##TITLE=<SNM>
##JCAMP-DX=4.24
##DATA TYPE=INFRARED SPECTRUM
##DATE=2/5/2025
##SAMPLING PROCEDURE=Instrument type and / or accessory
##ORIGIN=Admin
##XUNITS=1/CM
##YUNITS=ABSORBANCE
##RESOLUTION=4
##FIRSTX=4497.3318
##LASTX=599.83466
##DELTAX=-1.4281778
##MAXY=1.7191074
##MINY=0.27467972
##XFACTOR=1
##YFACTOR=1.6010435e-09
##NPOINTS=2730
##FIRSTY=0.29886997
##XYDATA=(X++(Y..Y))
4497+186671982+186482823+185884820+184794692+183488674+182564381+182503661
4487+183309121+184574354+185874266+186968285+187711554+188043522+188028481
4477+187686220+186959945+186081257+185625132+185919070+186680694+187352782
4467+187561169+187267696+186688232+186073718+185530981+185013503+184490683
4457+184245960+184759771+185926423+186777823+186521057+185429104+184263867
4447+183469092+183225468+183412020+183336781+182315265+180662333+179472004
4437+179404750+180073451+180595247+180535253+180221900+180214622+180699878
4427+181433803+182037316+182271764+182206427+182092508+181898081+181235114
4417+179984232+178755018+178411211+179160884+180293639+180875541+180669164
4407+180250529+180223631+180588248+180940543+181014125+180779398+180189008
4397+179188377+177971355+176960449+176420262+176259974+176254259+176308799
4387+176504789+176867173+177013202+176319912+174754206+173172046+172366046
4377+172260094+172402400+172686845+173178226+173733323+174178540+174520280
4367+174745272+174662680+174109798+173180311+172192058+171593850+171857801
4357+173105462+174800221+176113721+176571056+176207370+175464975+175053934
4347+175316024+175730713+175666103+175308764+175165322+175147620+174817402
4337+174053676+173118269+172507720+172723497+173680645+174541538+174689578
4327+174524189+174699164+174956656+174390520+172875874+171562932+171572965
4317+172725973+173936070+174356958+173830248+172805958+172161289+172554162
4307+173715640+174761131+175161637+175048313+174815671+174823694+175212212
4297+175662417+175592334+174804260+173743989+173031992+172877847+173008594
4287+173091576+173122737+173247546+173334139+173094424+172573968+172167655
4277+172136066+172350876+172541058+172637387+172862006+173441953+174163872
4267+174422797+173986701+173427211+173307968+173328350+173004852+172765956
4257+173347579+174478715+175218540+175268110+175087961+175100582+175373356
4247+175685480+175653371+175222673+174956339+175354313+176071895+176277155
4237+175680864+174846180+174453306+174589340+174904275+175169064+175361070
4227+175411012+175308243+175304948+175637549+176206272+176725015+176982116
4217+176881040+176544587+176360286+176549613+176764347+176499149+175795714
4207+175220346+175253293+175867770+176650577+177244410+177598752+177772945
4197+177692773+177257552+176521096+175682204+175041202+174865148+175092838
4187+175354499+175467042+175631964+175932772+176024186+175636264+175106892
4177+175108102+175971564+177416183+178785955+179537973+179632161+179438889
4167+179301292+179260191+179026340+178192065+176843458+175894519+176216212
4157+177482897+178497023+178586093+178083711+177554841+177151227+176775758
4147+176464043+176321755+176217366+175901797+175455910+175281122+175591776
4137+176236743+176975564+177617423+178016923+178190874+178335991+178527737
4127+178520310+178095978+177496188+177184547+177270545+177466945+177507915
4117+177413633+177462533+177834112+178190632+177952536+177115209+176249531
4107+175629768+175112253+174893423+175521768+176991274+178453745+179098061
4097+178965452+178593222+178144692+177418920+176528243+175900159+175727474
4087+175937202+176408702+176852616+176944404+176843924+177091047+177840739
4077+178650796+179072205+179067515+178808776+178362982+177764532+177268237
4067+177214162+177598566+178034030+178155246+177884780+177430274+177164108
4057+177273747+177487067+177465846+177362518+177557838+177998700+178249230
4047+178127231+177888950+177799247+177842916+177860916+177810211+177857957
4037+178150499+178522655+178679779+178688713+178916534+179352928+179442779
4027+178852315+178053519+177818122+178304607+179023939+179638471+180272456
4017+180941939+181257339+180931850+180150160+179346674+178968859+179300007
4007+180124324+180796431+180960962+180912509+181054555+181330047+181341178
3997+180899163+180362792+180337309+180980898+181811339+182313422+182505820
3987+182744902+183130516+183281236+182743115+181608740+180614755+180530525
3977+181488604+182917662+184034986+184396513+184076105+183462056+182985641
3967+182975236+183575510+184635986+185686969+186239069+186188457+185761351
3957+185137362+184431489+183950793+184140864+185206924+186740725+187792154
3947+187917056+188082091+189395293+191086720+191207098+189459308+187489895
3937+186585221+186982599+188735304+191486965+193656518+193665919+192146581
3927+191234890+191875929+192924082+193002430+192544574+193014995+194628949
3917+195695995+194478843+191277777+187910392+185839029+185581518+187432209
3907+191948395+199189529+207403355+213353810+215082484+212972496+207931759
3897+201306423+195821493+194149518+196481705+199649247+200220297+199328299
3887+200370905+203333931+205288974+205963687+207428689+208396614+205956222
3878+202081914+201190158+204125077+208702001+213229988+216353972+216238638
3868+213924227+212791956+213325349+212606148+209168680+205327208+204108361
3858+207283311+215883234+228774110+237343376+231880374+218395496+206929658
3848+201322059+201599338+205818756+211373936+216796750+222074150+226504598
3838+227738019+225089370+221173813+217999272+215208689+212428809+210633515
3828+210352234+210975441+213079342+218590798+226368229+230618137+229372542
3818+226976247+224618968+219643958+212863342+208379787+208641020+213370005
3808+219604273+223680304+226211050+230537016+235507726+235841685+231338530
3798+226369327+222125637+217790699+214385713+213576512+215341781+218567735
3788+222450996+226365177+229536311+232308410+236450671+242469404+247887974
3778+250418031+251523926+254363241+260854145+271159139+283189624+293325787
3768+300163047+305267538+310024816+315677982+324489699+337437107+351714953
3758+363397183+373109051+385678998+405459980+431894833+455653842+467253909
3748+471661964+478633209+489768551+497796196+499416311+501353987+509783850
3738+525487739+543210611+554293497+554741655+548711587+542573257+539812978
3728+540992194+544565584+547592271+548154795+546779309+544561154+541900238
3718+539546942+539317018+543156145+551157433+559561124+562505796+558774744
3708+552532509+548540819+550073745+556906202+564119099+566934550+566849111
3698+568066226+571908406+577431980+584032652+591789086+599278703+602165299
3688+598042825+591171314+586589476+585375451+586651425+590321385+597530522
3678+608077874+615932890+612572672+601659958+593648730+590283784+586152896
3668+578814241+571643152+567506754+566307248+566560515+567464612+569576294
3658+573021170+576132552+578369247+582713009+592009703+604288112+610634736
3648+604083504+590718652+580339237+576560942+577152355+578190252+578315043
3638+579153357+582403378+587888681+594267731+601196834+609241641+616246504
3628+617606280+614467609+612103517+613369848+619016128+627541594+634292632
3618+636066129+635575754+636108719+637509036+639102123+641618332+644674206
3608+645822411+644286135+642591115+643229363+646311595+650576357+655511383
3598+661121290+665908519+667675612+667137510+668275068+673957793+682576815
3588+688238619+685935060+678526490+672416082+669712911+668815702+668395539
3578+669139218+672107382+676843086+681917645+686584030+691044689+695231643
3568+697515098+695478171+689761642+684082787+680891327+679661516+678214961
3558+675428771+672604235+671465561+671385072+670174249+668099349+668063013
3548+670925299+674180197+675767700+676433720+677097432+677212617+676418680
3538+674953138+672845402+670653828+669979766+671834422+675120220+677926811
3528+679733591+680938607+681284684+680022857+677182388+673819377+670932372
3518+668833199+667497883+667083379+667712990+669013609+670257119+670588380
3508+669503017+667839195+667187322+667688568+668049462+667824303+667316952
3498+666082376+664041801+662495324+662163394+662304043+662508652+663267222
3488+664784810+666608640+667767269+667108620+664994407+663805548+664717724
3478+665746872+665051813+663879559+664034951+664961795+665503471+665907029
3468+666161822+664773120+660971259+656316936+653109914+652552304+653938176
3458+655128375+654741644+653679810+653566932+654650509+656183137+657558362
3448+658069213+656876929+654257449+651723818+650586483+651186236+653062187
3438+655357629+657262022+658272407+658211799+657312653+656117019+655100752
3428+654448655+654152539+653833191+652498173+649575726+646298491+644564977
3418+644467959+644701829+645213872+647270604+650977607+654674707+656593545
3408+656234661+654376432+651977345+649202100+646050846+643621753+643249243
3398+644522164+645589658+645227944+643652876+641767097+640683819+641427572
3388+643841923+646359024+647816525+648833015+650543670+652604945+653193157
3378+650978947+646776729+642933842+640950673+640203048+639561748+639411568
3368+640706081+642742189+643606638+643016639+643068908+645304635+648195140
3358+648859745+647221239+646144215+647079398+648549110+649212896+649480346
3348+649899615+650579931+651722850+652768974+652306520+650479488+649501567
3338+650516419+651952476+651764471+650002664+648364828+647791805+647650932
3328+647465608+647989936+649756583+651535664+651505435+649583470+647173289
3318+645103452+643298832+641879900+641345744+642067532+644045042+646618508
3308+648317473+647990755+646450532+645835962+647058401+648949317+650126710
3298+650430495+650216580+649644227+648962869+648567128+648591253+648776130
3288+648915439+649226447+649864248+650523790+650921392+651228230+651789191
3278+652602711+653301939+653593216+653500219+653456736+653842052+654349627
3268+654502711+654207488+653284739+651423383+649162116+647906916+648317920
3258+649371416+649625166+648999725+648551195+648809785+649470890+650660717
3248+652769346+654914609+655429555+654105631+652317689+651128755+650758628
3238+651030249+651564479+652259984+653293600+654104960+653726196+652494897
3228+651501861+650266019+647523833+644183235+642589924+643155427+644187777
3218+644733176+645278426+645771780+645256015+643612445+641895610+640934069
3208+640763265+640996837+640900713+639811701+638176992+637430856+638233877
3198+639577831+640223971+640189869+639982655+639218128+637204134+634367089
3188+631812759+629976122+628775797+628386013+628795454+629317101+629456709
3178+629634959+630248934+630695975+630242158+629322239+629101696+629677325
3168+629444274+627074747+623532108+620917207+619956709+619781138+619514433
3158+619020334+618464362+617962706+617493886+616687849+615161476+613392186
3148+612515601+612918787+613751777+614124063+614079203+613871206+613023920
3138+610996375+608441635+606859195+606769847+606919022+605897468+604045382
3128+602881019+603146980+604149808+604628010+603963590+602784709+602211611
3118+602301816+602007747+601133619+600958868+602080418+603125276+602507988
3108+600261613+597504573+595305553+594356930+594702933+595551671+595892983
3098+595222794+593625611+591740019+590450717+589892586+589158474+587571381
3088+585714306+584759094+585139086+586086927+586390489+585710211+585036708
3078+585321655+586103233+586269868+585576448+584558469+583567592+582643019
3068+581814459+581079268+580397612+579849271+579673031+580078711+580812525
3058+580976666+579841714+577763165+575660232+573919608+572441892+571296777
3048+570742368+570894075+571536716+572048349+571764518+570726137+569568662
3038+568500610+567108780+565249695+563377877+561933257+560969334+560320290
3028+559804860+559429930+559487337+560138540+560882033+560851133+559780475
3018+558303429+557193756+556712241+556663360+556560907+555785211+554109923
3008+552027056+550236583+549106471+548680128+548636236+548335093+547520494
2998+546741336+546593650+546890548+546880720+546003316+544365964+542634982
2988+541316530+540199039+538811714+537265944+536187022+535873855+535877764
2978+535496989+534617947+533824121+533529568+533377564+532880115+532212643
2968+531849254+531800001+531645949+531087035+530234612+529454970+528984512
2958+528773798+528696660+528648635+528432486+527906967+527244111+526590562
2948+525637249+524144381+522576833+521516376+520807505+519922767+518819981
2938+517864136+517159138+516397068+515235795+513642894+512023412+510976096
2928+510642267+510433489+509712334+508597820+507774360+507623063+507894869
2918+508119581+508002013+507485131+506723955+505960210+505221482+504298361
2908+503128191+501906050+500743102+499622148+498753381+498436975+498483920
2898+498304665+497650372+496759081+495755286+494454443+492870477+491473101
2888+490690778+490454116+490421280+490316519+489964039+489344554+488627941
2878+487915571+487121559+486261205+485504645+484900276+484521475+484675601
2868+485333766+485677758+484865057+482993053+480853822+479076528+477894780
2858+477382961+477419929+477514750+477097268+476086399+474919617+473972372
2848+473258178+472731170+472406946+472070064+471335096+470220285+469277322
2838+468858909+468599128+467936570+466817887+465546344+464291702+463137801
2828+462296918+461861268+461526583+460877986+459899208+459013688+458638908
2818+458786929+459028356+458775611+457688126+455928999+454100404+452891106
2808+452552102+452620454+452387664+451669337+450791226+449925139+448937575
2798+447843426+446952694+446501930+446311431+445857428+444808214+443509158
2788+442639721+442354475+442132853+441510354+440584813+439735479+439149352
2778+438734736+438269155+437480951+436207434+434698223+433498903+432802095
2768+432232422+431423705+430450996+429599428+429014455+428583943+428026482
2758+427223684+426377924+425618869+424771136+423765033+422825755+422035317
2748+421212490+420351280+419651196+419094032+418481770+417830306+417260448
2738+416623429+415684523+414530957+413451364+412646630+412268425+412336628
2728+412436959+411957193+410777456+409357146+408169591+407394081+407043909
2718+407020157+406994134+406483990+405234635+403481018+401730677+400324999
2708+399308359+398630463+398288965+398258847+398376862+398342649+397899814
2698+397063697+396122967+395367002+394819258+394261461+393554155+392868552
2688+392441391+392146056+391564322+390527803+389363701+388503385+387964798
2678+387381872+386549403+385713993+385175890+384851368+384469552+383971247
2668+383477967+383043398+382578747+381966709+381255381+380686044+380369228
2658+380020582+379249689+378051709+376832025+375998067+375637806+375551994
2648+375492018+375311162+374936195+374313025+373443141+372450477+371561495
2638+370925556+370422671+369799874+369070453+368599623+368642026+368875115
2628+368597203+367504766+366090563+365052926+364550191+364341636+364354480
2618+364632801+364915516+364753832+364026719+363029998+362072142+361230440
2608+360514646+360002194+359714007+359557907+359451024+359314432+359000669
2598+358444064+357782660+357175871+356686501+356392506+356316746+356228030
2588+355818329+355066088+354214967+353495598+353021529+352795886+352662608
2578+352364779+351779992+351036462+350322529+349675681+349061818+348549255
2568+348258276+348189999+348180729+348000021+347547879+347009702+346673602
2558+346533288+346281734+345769282+345224143+344923783+344839609+344689317
2548+344262900+343650191+343111717+342744531+342419264+342075421+341871408
2538+341926618+342062912+341950333+341483151+340881201+340381332+339984550
2528+339619374+339369607+339357471+339529169+339664756+339514762+338985594
2518+338314511+337898853+337836756+337852988+337726485+337500730+337270620
2508+337081313+337026587+337148324+337242140+337006074+336406134+335728760
2498+335275985+335149222+335281830+335491129+335510823+335172527+334581932
2488+333997182+333566410+333257077+332956046+332587334+332216090+332042158
2478+332178266+332411466+332325393+331764246+331079500+330766668+330914019
2468+331175922+331235302+331077453+330813576+330470142+330034456+329573603
2458+329214086+329026491+328974408+328981705+329010706+329051881+329087248
2448+329101730+329086727+329033415+328970275+328950879+328919868+328669170
2438+328059440+327275256+326755768+326791359+327193837+327474281+327376704
2428+327084683+326881750+326824157+326797129+326705584+326571561+326525472
2418+326675801+326981522+327312708+327566272+327649032+327478338+327102553
2408+326712732+326447068+326254485+326029512+325814293+325747282+325851261
2398+326014844+326145591+326216623+326220197+326157541+325998724+325665491
2388+325148906+324530651+323775021+322622088+320742973+317912146+314102541
2378+309561803+304733791+299982004+295407797+290954714+286625193+282565877
2368+278996788+276133944+274142138+273087377+273036020+274182959+276710522
2358+280675129+286182712+293397377+302212408+311822288+320559399+326564860
2348+328824749+327713214+324822635+321817726+319201299+316618749+313675492
2338+310138437+306140325+302210788+298842082+296234291+294435144+293428687
2328+293028795+292849298+292608149+292504412+293012992+294254064+295900965
2318+297647713+299363227+300911845+302212538+303416754+304786804+306421811
2308+308193912+309896247+311375116+312533429+313323532+313821539+314228560
2298+314702331+315232914+315715806+316088688+316392958+316731701+317145199
2288+317543024+317810065+317925995+317917135+317782628+317563277+317402859
2278+317414139+317505796+317459036+317209903+316964008+316948595+317118730
2268+317225166+317156963+317085373+317209865+317457771+317581035+317532154
2258+317551326+317809916+318154058+318316077+318242438+318105847+318091179
2248+318248134+318493024+318700537+318804293+318831209+318858349+318941182
2238+319069882+319181084+319212505+319168538+319148881+319268757+319520683
2228+319772498+319928262+320030715+320212763+320588400+321120360+321564721
2218+321678677+321510032+321348162+321392389+321597519+321836155+322081826
2208+322385016+322749038+323104869+323370569+323485718+323453254+323384902
2198+323397113+323465354+323510996+323556824+323654959+323797284+324027171
2188+324457422+325060116+325587571+325794786+325680643+325494909+325519219
2178+325822447+326234121+326544719+326700000+326813398+327015326+327301391
2168+327572787+327815146+328107465+328421823+328587826+328542928+328473646
2158+328608860+328971169+329402165+329753640+329995589+330188731+330391106
2148+330575536+330671698+330706953+330819756+331089775+331434587+331710674
2138+331858360+331932073+332027341+332198332+332452976+332785800+333143120
2128+333381383+333377288+333180274+332977453+332929577+333094797+333448097
2118+333885645+334261617+334504012+334672658+334859546+335073908+335261466
2108+335396159+335523704+335715357+335975474+336215784+336363359+336467189
2098+336635239+336877412+337070256+337101565+337009796+336937015+336970930
2088+337081759+337179745+337194786+337145495+337132130+337210459+337331452
2078+337457359+337623771+337840106+338042854+338152120+338126357+338052272
2068+338151598+338507951+338861660+338889842+338576563+338144897+337818737
2058+337746514+337933401+338188157+338297088+338237112+338123118+338028409
2048+337957265+337945203+338095197+338464989+338926103+339220283+339204871
2038+338996167+338845800+338907526+339121776+339321396+339435353+339531589
2028+339672127+339849745+340074717+340401771+340882653+341564048+342413754
2018+343159369+343433633+343233343+342975981+342997946+343277161+343658047
2008+344054085+344425999+344776320+345148234+345557600+345981820+346349713
1998+346555848+346725015+347285269+348306115+349049086+348813987+347863429
1988+346855278+345999801+345306344+344942509+344917826+344912614+344663927
1978+344225560+343794490+343475254+343256015+343189971+343511143+344332964
1968+345214724+345395879+344669883+343632992+342875650+342412563+342073671
1958+341929298+342040202+342199764+342192021+342055652+341989944+342161233
1948+342669031+343676624+345295250+346939452+347235010+345533699+342999696
1938+341197830+340484716+340283421+340078626+339768549+339502625+339436246
1928+339701538+340611628+342309328+344037592+344813251+344967340+345421864
1918+345657112+344382665+342018312+340377423+340362346+341291795+341872264
1908+341390005+340210155+339192287+338696290+338410188+338069174+337982096
1898+338654334+339945757+340993482+341434232+342060790+343317293+344053042
1888+343103340+341172664+339642456+338855405+338496112+338405200+338478912
1878+338546520+338580286+338785602+339796582+342672642+347717716+352813905
1868+354241660+350985719+346085911+342645577+341330253+341260970+341536946
1858+341731540+341729790+341585902+341437583+341532478+342247901+343969911
1848+347116102+351812530+356471133+357591454+354023724+349212073+346471116
1838+345978879+346201022+346438876+347806134+351561050+356612155+359713262
1828+359572166+358184581+356754369+354473706+351438866+349254774+348706211
1818+349038848+349378150+349918747+351458634+353978938+356103650+356463315
1808+355337001+354266678+354702066+357257737+361208178+364481095+365288881
1798+364232296+363925420+366587490+371837657+375689553+374008346+368525575
1788+364322501+363634404+365251913+367389171+369581155+371608254+372685427
1778+373047624+374733820+379712329+387396876+393512570+393743909+389201682
1768+383671370+379479799+378109749+380185394+383854386+385960856+386160736
1758+386296584+386617271+386922173+389108238+395058712+403006241+407998190
1748+407658777+404555473+402024895+401558085+403077683+405295206+406565744
1738+407613656+411734864+419989678+426679885+425145991+418476968+412211502
1728+407914612+405949238+406464743+408715697+412601509+419987817+432287632
1718+446145094+453075686+449621651+441776724+435478274+433080639+435272474
1708+441657332+449948742+456967156+462820799+471080527+482619688+491868096
1698+494365057+492106025+486723808+480311290+477289405+479586039+485511049
1688+493655182+505635241+521502527+532352846+530265698+522728800+518734355
1678+520828130+527809502+536068560+542459933+548105318+554914396+560108385
1668+559808285+557132738+557906535+562927001+567922710+569411296+569567582
1658+572918791+582520834+599216122+617200488+621802094+614940896+612265424
1648+616254881+618335104+611317807+600488336+593383476+591865554+595615258
1638+603771267+611898611+610993322+599641273+587848772+581963745+581269729
1628+582322480+583008678+583595513+583421767+580565178+576637484+576025706
1618+579538226+581776299+577521961+570211600+565510332+564553594+565250961
1608+565316260+564429623+563737580+563779611+563772500+562899042+561607172
1598+561013226+561408929+562062106+562311016+562105477+561510154+560509635
1588+559345012+558464369+558104554+558121158+558388236+559637927+563466518
1578+570295178+576352424+575921391+571192314+569478568+572637491+576078235
1568+575358048+572416912+571047048+573048012+580727681+597246430+618878307
1558+626897017+616022425+602954062+595165499+592058919+591884540+593139554
1548+595838071+601937125+612996780+628333893+645668508+659532745+659959608
1538+648586636+639721086+639561003+644462152+647620851+648035950+650654761
1528+657884038+667473163+677061693+687352652+697980679+704633955+705759600
1518+705193873+704635221+703010117+701384194+702962911+710089065+723261147
1508+739157546+745881556+735067907+719774463+712183250+713361982+720041095
1498+727299708+730237121+728445159+727078272+730654677+738554293+745141526
1488+745260732+740424734+735620901+733889100+735330220+738299426+741681274
1478+746152283+752827673+761490847+769543547+772072934+767295087+760846867
1468+758782391+761731791+765456589+765911374+765202988+768580666+778024451
1458+789118953+791747442+783438088+773280780+766872692+764272942+763820615
1448+763242529+760952447+757627857+754968840+753696514+754115783+757018722
1438+762028354+765554054+764377480+761181552+759866935+760010712+758871442
1428+756275117+754880384+755858901+757887042+760301021+764107126+768436815
1418+769147658+764660716+758394692+753446040+750431713+748765806+748051166
1408+748612201+750437520+752079154+752359039+752682555+755142176+759479236
1398+763686517+766397803+766965986+765002326+761984350+760808372+762531983
1388+764910222+764769200+762585369+762285753+766115164+772721010+779871363
1378+787188723+795233977+802844625+807355468+808347611+808692422+810607239
1368+813713149+817259398+821397211+825139357+825673737+821906722+816452505
1358+812232641+809682852+807648457+805492548+803748908+802789601+801835803
1348+800098716+798260143+797821739+799395839+802309426+805297246+807036493
1338+806796294+805267538+804146658+804558481+806238535+808260198+810223338
1328+812435537+815126719+818049241+821020755+824375426+828307737+832015112
1318+834341901+835348711+836318368+838122542+840429153+842600847+844670684
1308+847094416+850005471+853087033+855921323+858157572+859587970+860399181
1298+861080391+861800392+862153394+861575308+859790866+857060221+854094663
1288+851331778+848358403+844650357+840649993+837300161+834737566+832161271
1278+829010613+825856827+823896592+823641501+824309606+824722397+824670426
1268+824894914+825815355+826897665+827448947+827576566+827968658+828997434
1258+830437661+831926880+833354523+834809343+836393123+838108469+839750103
1248+840994507+841825673+842781331+844513877+847093374+849855514+852033240
1238+853561177+855060076+857032895+859434811+862046101+864740634+867225496
1228+869096234+870397673+871546697+872667799+873726954+875120868+877205969
1218+879561498+881611157+883495968+885628274+887966381+890240230+892456153
1208+894862164+897506364+899908429+901484317+902504604+904071110+906848366
1198+910447927+914219856+917826193+920817587+922588776+923272294+924137487
1188+926539329+930540289+934863872+938270589+940536025+942010948+942854921
1178+943046798+943022599+943761066+945889129+949037777+952426400+955555540
1168+958108233+959856265+960897773+961703475+962879974+965007664+968085354
1158+970799768+971429825+970060854+968912872+970127717+973813797+978028300
1148+980399243+980121591+978871454+979514169+983192581+987595908+989284300
1138+988082635+987191903+988954380+992600775+996119773+998780428+1001286882
1128+1004227348+1007284562+1010084304+1012758212+1014959094+1015491612
1120+1014045355+1012245649+1012089586+1013696969+1015230193+1015599277
1111+1015873950+1017207777+1018782027+1019495997+1020660434+1024059482
1103+1028794441+1032396608+1033561939+1032457366+1030143607+1028556625
1094+1029448325+1032938955+1037596256+1041710912+1044425549+1045821324
1085+1046017817+1044691138+1042158177+1040483559+1042012389+1046450637
1077+1050389351+1050979350+1049454168+1048522410+1048395088+1047999496
1068+1047974032+1049925035+1053804779+1057836415+1060466915+1061963953
1060+1063955014+1066955343+1069279154+1069275207+1067443559+1065321974
1051+1063824267+1063330615+1063808556+1063937367+1062420152+1060883578
1043+1061957996+1065058321+1067521814+1068599210+1069090107+1069439311
1034+1070376356+1072490569+1073741823+1070538449+1062829295+1055158188
1025+1052228742+1055014188+1060203560+1063216249+1062457381+1060105276
1017+1059076799+1060132453+1061496063+1060882610+1058146381+1055001828
1008+1052470728+1050159724+1047650739+1045668687+1045247557+1045793477
1000+1045195213+1042765599+1040641408+1040708047+1041958929+1042378942
991+1041336392+1039086368+1036138978+1033605124+1032363177+1031857612
983+1030840005+1028657366+1025298450+1021315881+1017679985+1014863789
974+1012232470+1008950990+1005088223+1000934402+996153055+990780965+985920322
964+982341832+979408589+976181314+972403279+968087216+963699227+960346790
954+958368535+956698236+954668606+953063903+952333180+951234935+948444873
944+944608538+941762857+941172560+942182349+942939207+942085480+939672470
934+936844584+935073693+935295426+937185449+939427282+941012700+941723841
924+941413578+940241695+939482380+940250035+941572395+941482525+939590418
914+937100791+935140853+934176259+933871953+933106532+931359393+929909115
904+930338435+932181029+933226483+932172540+930209847+929447926+930202327
894+930741919+929765263+927910012+926447523+925886562+926163766+926576483
884+925449349+922022082+918607622+918196841+920303534+921768927+921226581
874+920069292+919374234+918708139+917656803+916450149+915308123+914447249
864+914310769+915110886+916432651+917558296+917979128+917441845+915923364
854+914080621+913199122+913721216+914501975+914572635+914660271+915470515
844+915832973+914574049+912825198+912409131+913279015+914294462+915352128
834+917396947+921003060+925298945+928241347+928452656+926647813+924557947
824+923088608+922642981+924146049+927813888+931504212+932516458+931173771
814+930446770+931988929+934441551+935797417+935847676+935486260+934879285
804+933461321+930913320+927658942+925014444+924484755+926212685+928525699
794+929591629+929261486+928712810+928545281+927977545+926570228+926028254
784+928579532+933616266+937567861+937855490+935661235+933975150+934395015
774+936321075+938197844+939128336+939306289+939056187+938081765+936163374
764+934182365+933272646+933102660+932377447+931136542+931059926+932991868
754+935742095+937490053+937080985+934831632+932648248+932118931+932807959
744+933527067+934275809+935474570+936768786+937975440+939486699+941037792
734+941800979+941674923+941336515+941612751+943269276+946292612+948975754
724+948794003+944201853+935519915+925519711+918907238+919053770+925080935
714+933094023+939640677+942864080+941996951+938569013+936239767+936613245
704+937074359+934721212+930439176+927167897+926242914+926828074+927455823
694+927434528+927145783+926732322+925065522+921101195+915237240+908475256
684+902226134+899050458+900348844+903231158+902651062+897649694+892342605
674+889902865+888551019+883886496+874486492+865746552+865540007+872012725
664+877555024+878889372+876488871+872320233+868419790+865410526+862695368
654+859876938+857854084+858006572+860041712+861584317+860691575+858320186
644+856146407+853352101+848921448+844171523+841073506+840253880+840889224
634+841581974+842204809+844862486+850428016+855024857+853068196+844054625
624+834062090+829651169+831976245+836592966+838221272+835389067+830055993
614+824501184+819922138+816356679+813991991+814841325+820520849+827908273
604+830952086+829252450+829566138+836324250
##END=
