##TITLE=<SNM>
##JCAMP-DX=4.24
##DATA TYPE=INFRARED SPECTRUM
##DATE=3/5/2025
##SAMPLING PROCEDURE=Instrument type and / or accessory
##ORIGIN=Admin
##XUNITS=1/CM
##YUNITS=ABSORBANCE
##RESOLUTION=4
##FIRSTX=4497.3318
##LASTX=599.83466
##DELTAX=-1.4281778
##MAXY=1.7130243
##MINY=0.17815365
##XFACTOR=1
##YFACTOR=1.5953782e-09
##NPOINTS=2730
##FIRSTY=0.19184844
##XYDATA=(X++(Y..Y))
4497+120252644+120810011+122536548+124233225+125111148+124964993+124075973
4487+123272874+123454270+124716179+126134667+126656616+126169020+125413911
4477+124970924+124778609+124592785+124428183+124498664+124984028+125803865
4467+126443379+126175745+124803678+123170739+122584342+123476565+124777507
4457+124951664+123617248+121771315+120578075+120491473+121327337+122526750
4447+123395829+123542386+123069996+122187514+120960678+119702543+119085762
4437+119363942+119859449+119765991+119212350+119019157+119567250+120392878
4427+120831765+120632818+119982562+119288482+118848689+118516869+117889459
4417+116978248+116380372+116559321+117267831+117903946+118125318+117896315
4407+117297019+116629092+116348568+116574013+116945538+117031244+116621648
4397+115826880+115161363+115158112+115671627+116055809+116077684+116068483
4387+116242211+116353350+115957344+114887863+113570922+112660261+112310834
4377+112248853+112409495+112859553+113339593+113564645+113692699+113977622
4367+114281833+114272847+113886144+113399781+113117445+113075536+113083036
4357+112989765+112877486+113014311+113504709+113930818+113720421+113002243
4347+112533496+112634855+112846467+112719879+112316158+111896923+111668602
4337+111769028+112143738+112554035+112848942+113056117+113238896+113514563
4327+114101436+115004316+115739391+115764983+115153956+114482638+114083970
4317+113806547+113503289+113269252+113155581+113062282+112971234+112983516
4307+113139965+113407337+113724633+113990502+114173935+114410821+114793769
4297+115103799+114989316+114449116+113957793+114008426+114598447+115295600
4287+115759547+116020876+116199321+116164510+115707587+114998694+114609674
4277+114952254+115879793+116990063+118061926+118908681+119126075+118524416
4267+117637124+117234562+117408682+117597886+117435404+117132622+117031711
4257+117199545+117603864+118301792+119178483+119840881+120111803+120287473
4247+120610757+120871619+120785587+120399145+120026032+120089638+120852631
4237+121975790+122704672+122746535+122463358+122136629+121721597+121341730
4227+121328635+121681639+121966898+121871806+121643867+121852537+122716357
4217+123785782+124422597+124396408+123856768+123033868+122215395+121718785
4207+121677044+122055602+122806985+123685113+124134620+123850071+123233244
4197+122883089+122892186+123005492+123124141+123293824+123494424+123741071
4187+124144530+124679808+125109140+125186458+124851164+124362559+124255557
4177+124868798+125928043+126847296+127278328+127196218+126785268+126392933
4167+126293105+126460518+126720550+126933619+127014897+127088974+127469700
4157+128061187+128175492+127535324+126916236+127077617+127612969+127640691
4147+127194892+127055462+127493200+127998056+128111194+127890896+127574441
4137+127295552+127192538+127423830+127953840+128513169+128887552+129160473
4127+129580456+130203671+130738239+130840608+130569537+130399713+130669664
4117+131134741+131310579+131166497+131145725+131482710+131826103+131666665
4107+130949095+130127642+129730562+129939801+130474958+130860624+130911594
4097+130875475+130987558+131087488+130921410+130615911+130525507+130757153
4087+131155551+131644324+132267418+132937251+133432534+133667758+133773377
4077+133933225+134256620+134696684+134990976+134854356+134353011+133888430
4067+133716570+133713674+133688437+133653542+133663172+133645481+133562232
4057+133532624+133665049+133921382+134204549+134431833+134528859+134514317
4047+134582164+134904878+135294719+135247149+134495225+133416235+132710611
4037+132760917+133445059+134424735+135415413+136272200+136946310+137397788
4027+137659519+137936484+138388420+138866349+139119001+139113098+138936213
4017+138632610+138267296+137910416+137577101+137346024+137321712+137379248
4007+137277346+137058318+137028598+137404457+138124419+138823841+139023451
3997+138646592+138223882+138313567+138940585+139761355+140415777+140672539
3987+140640521+140761999+141226749+141648058+141675257+141551294+141692947
3977+142079632+142360249+142281997+141855140+141304469+140878350+140616582
3967+140485333+140703548+141492376+142533267+143190500+143238882+142907015
3957+142413460+141939743+141778728+142189930+143224900+144583732+145571935
3947+145715503+145463850+145563155+145887512+145649804+144658528+143600703
3937+143221033+143832331+145319282+147075914+148083423+147744345+146711832
3927+146194432+146559232+147125519+147336972+147633897+148681794+150143209
3917+150684213+149416354+147091614+145305505+144907501+145628779+147019629
3907+149295081+152854111+157094424+160334934+161396635+160369605+157739384
3897+154388847+152041746+152108547+154008121+155153529+154060781+152950081
3887+154340530+157249901+158934688+159298582+159856902+159727802+157512548
3878+154986639+154615842+156366720+159008270+161940852+164109909+163891610
3868+162114356+161314778+161833010+161628553+159645683+157472142+157272990
3858+160285842+166877767+175414305+179815952+175602996+167787111+161690833
3848+158790064+159046247+161598571+164945652+168093937+171023904+173287204
3838+173551924+171787447+169744520+168447015+167564926+166887369+166795648
3828+167196511+167706524+169229725+173172469+178196510+180373114+179270801
3818+178009070+176826600+173769569+169638321+167188124+167911672+171453628
3808+175435171+177240483+177889497+180025770+182811674+183141551+181312290
3798+179652424+177966610+175359478+173004980+172522334+173919666+176286587
3788+179036045+181817932+184187467+186291293+189049007+192715319+196101274
3778+198233475+199909015+202664207+207468249+214232128+221417399+227111488
3768+231336493+235423617+239935311+245349810+252819976+262438987+272082620
3758+279935491+287464688+297652574+311830820+328051471+341343780+349491503
3748+356668742+366699264+378029271+385756087+390064313+395945953+406134512
3738+420672805+437822806+453498213+463154230+466375704+466993129+468483154
3728+471674254+475780171+479864718+483388330+486102257+488272772+490877606
3718+494756706+500242881+508006125+518613946+530312854+539462445+545061675
3708+549090741+553163930+558202971+564737566+571732596+576687987+578504358
3698+579167662+581824465+587641135+595060995+601988028+606978351+608592936
3688+606862233+604526210+604046497+605863429+609009322+611880502+613749813
3678+615199936+616136273+615755455+615623646+617963666+621259414+622123757
3668+621056358+620963143+622179275+623452158+624864098+627787770+632408258
3658+636764455+638873922+639628835+641812949+646726196+652949464+656970385
3648+656408478+652700416+648643778+646463251+647248276+650286459+653971058
3638+657471319+660504271+662818923+665220552+669257838+674714984+678446434
3628+678181620+676566512+677034344+680998626+688233998+695959694+699433728
3618+697558962+695075961+695617544+697717745+698580033+698678292+699994215
3608+701971350+703031351+704275691+707738591+712442767+714941907+714008485
3598+712352354+712673433+714442991+715551262+715996155+717303186+718707879
3588+717030826+711932119+708078126+709607603+716321344+724582196+729736944
3578+729450536+725562245+721897671+720595871+721195213+722485133+723761677
3568+724182883+722627104+719399876+716285104+714406826+713716398+714093368
3558+715337035+716374695+716245202+715486927+715355043+716795079+720866961
3548+727829449+734780207+737152096+734274939+730006240+727193568+725465406
3538+723891021+722513751+721857471+722427971+724332700+726654676+727316410
3528+724943475+720829600+717902753+718092322+720780284+723290333+723252150
3518+720664540+717615896+716318430+717659758+720966714+724445455+726252897
3508+725546553+722605958+718485059+714670967+712565535+713043679+715986740
3498+719504710+720854333+719621127+718450014+719427747+722040464+725296834
3488+729205075+733189831+735177801+733551559+729095757+724474522+722307220
3478+723546853+726871891+729415939+728913212+725733731+722181165+720281591
3468+720805241+723233470+725786410+726341143+724104201+720316113+717405331
3458+717427149+720772811+725803820+729902602+731305501+730040986+728064374
3448+727943101+729704141+730142832+727124226+722863523+720652061+720336288
3438+719406302+717548273+717382167+720358480+723870696+724064524+720850671
3428+717617391+716916203+718767506+722129234+726297357+730624487+733679482
3418+733887955+731170404+727280619+724018122+721833560+720830272+721516964
3408+723460923+724492978+722636668+718685910+716138276+718109059+724026566
3398+729671263+731553203+730302063+728398156+726889750+725730294+725252972
3388+725391730+724661476+721821829+717961858+715724990+716675450+719790819
3378+722523017+723199845+722151949+720861357+720764891+722549543+725698537
3368+729020139+731847008+733945267+734517859+732987709+730674401+729762872
3358+730534149+731263656+730994509+730767804+731882651+734134462+735899238
3348+735546253+733030898+730075283+728596617+729254242+731426325+733875851
3338+735338377+735152918+733783868+732346821+731432677+730640553+729619257
3328+729082905+729601399+730436787+730544685+729779610+728747106+728055557
3318+727864419+727933238+728180417+728899314+730130577+731360271+732081634
3308+731934059+730513600+728259472+727068633+728389413+730970449+732047262
3298+731073714+730609618+732443138+734455392+733520250+730545581+729473475
3288+731816522+735138422+736804865+736599978+735513749+734049728+732262834
3278+730504260+729544012+729598186+729476688+727856648+725055707+722112346
3268+719250283+716596319+715349888+716853736+720757792+725102856+728296908
3258+729972093+729722597+727215163+724083429+722796274+723262462+723566878
3248+723702050+725047338+726724167+726415790+724295788+722583989+722046890
3238+721913288+722407646+724609918+727884071+729852463+729431482+728100016
3228+727614102+728023277+728244080+727630466+726513825+725327021+723942055
3218+722361543+721416314+721939067+723572931+725243258+726589369+727833335
3208+728640105+728399725+727272773+725619183+723250955+720727680+719965220
3198+721786261+724132073+724427821+722545657+720194391+718941982+719413475
3188+720985320+722206795+722334643+721842825+721241615+720709298+720411457
3178+719838118+718057352+715495819+713886912+713793585+713655499+712098599
3168+709897972+708500004+707923004+707622249+708171229+709934361+711023878
3158+709094042+704687706+700577193+698617319+698826091+700297585+701690023
3148+701958572+701524290+701564416+702016183+701858445+701152102+700796426
3138+700720509+700289590+699733137+699353327+698153821+695163385+691522947
3128+689588702+690347500+692532137+693916580+693166673+690815930+688710424
3118+688398461+689635627+690724770+690628379+689888859+689274497+688732765
3108+687775955+685928387+683200897+680620385+679604470+680433058+681888711
3098+682566137+682142166+681452261+681443071+681935412+681712741+679970456
3088+677187523+674529151+673056836+673285708+674618443+675500009+674906495
3078+673393382+672219580+671811824+671686739+671613064+671689878+671414080
3068+670022091+667884678+666289296+665646241+665160700+664353407+663668583
3058+663507035+663699518+663947818+664013723+663495902+661982713+659576602
3048+657103315+655710279+656028145+657469376+658596777+658624199+658188796
3038+658034496+657668061+656172208+653917782+652347730+652023737+651938853
3028+650977186+649312686+647842911+646884083+646012082+644862115+643537450
3018+642406164+641892154+642172883+642716707+642609781+641696533+640696906
3008+640036292+639405492+638436502+637041374+635391819+634198589+634342727
2998+635487537+635726572+633662610+630423875+628462581+628715663+629928769
2988+630479916+629722762+627783884+625341346+623358046+622076047+620726686
2978+619115874+618378670+619104815+620152712+620379006+620157045+620257696
2968+620535735+620470241+619963703+619018549+617330475+614718393+611671730
2958+609263451+608468935+609242977+610337537+610454140+609369257+607647446
2948+605873516+604492884+603679091+603063011+602094357+600656339+598978464
2938+597263042+595716117+594602577+594036897+593821064+593608032+593370156
2928+593517843+594124172+594323679+593219181+591165419+589350019+588406845
2918+588103325+587892424+587160376+585474954+583263978+581689294+581196542
2908+580730951+579109828+576801414+575479514+575967297+577352038+578119990
2898+577589354+576098171+574326745+572689295+571086404+569120776+566734801
2888+564522443+563178387+562885217+563327121+563835489+563548334+562117190
2878+560224267+558805004+558033204+557525694+557055845+556578709+555977723
2868+555232225+554571947+554195014+553970326+553511983+552567726+551345728
2858+550303174+549523304+548566195+547174579+545867137+545297048+545138675
2848+544361309+542751580+541229500+540357760+539587380+538327274+536819578
2838+535553195+534560742+533632923+532753300+532096385+531723636+531373266
2828+530680671+529673087+528755281+528028501+527050357+525571989+524072923
2818+523130235+522608005+521957068+521114320+520572065+520400242+519840614
2808+518369756+516551629+515262867+514591120+514038815+513340690+512507058
2798+511430917+510052751+508714673+507852572+507414255+506917169+506034407
2788+504849210+503536537+502139579+500833332+500040573+499899349+499918029
2778+499581632+498935551+498135171+496949599+495235447+493330606+491553501
2768+489861018+488215984+486845290+486034821+485796347+485638610+484866324
2758+483365726+481718562+480390310+479351642+478482368+477705674+476803260
2748+475653032+474444559+473311293+472138686+470946951+470002992+469377871
2738+468761081+467892853+466900026+465982818+464995596+463652885+462030117
2728+460545099+459486817+458785591+458171491+457400364+456353103+455031165
2718+453571365+452290300+451495037+451064865+450465597+449390427+448085189
2708+446860203+445709116+444639326+443873541+443390652+442702391+441457753
2698+439936494+438648966+437754286+437073011+436400330+435658232+434912398
2688+434253988+433582091+432664509+431511815+430454877+429710538+429078766
2678+428238932+427175232+426103425+425146838+424370032+423955775+423943670
2668+423903694+423302596+422164473+421019438+420228211+419624535+418811077
2658+417636229+416311489+415116988+414134175+413329123+412723654+412312946
2648+411925589+411351055+410604324+409918192+409421219+408968331+408405826
2638+407815973+407286832+406647514+405714053+404655061+403852438+403468593
2628+403302561+403018246+402425030+401543913+400480997+399386213+398537226
2618+398177889+398161675+398010924+397448120+396645572+395894283+395271254
2608+394708003+394200194+393800396+393436091+392913413+392179683+391404857
2598+390720594+390112696+389615797+389309550+389075821+388634664+387865890
2588+386953464+386246672+386009394+386183009+386380424+386205800+385585274
2578+384785976+384178713+383923128+383802041+383471958+382904485+382375680
2568+382008871+381585461+380874634+379949879+379121104+378698478+378817397
2558+379346427+379954399+380348855+380437325+380279812+379998074+379705614
2548+379416889+379050529+378563269+378027141+377600854+377458584+377611390
2538+377761319+377559234+377065511+376698291+376684991+376845493+376915582
2528+376793113+376512160+376242751+376209350+376381584+376436579+376196050
2518+375817286+375455446+375092448+374755529+374560281+374508984+374484513
2508+374396229+374199002+373857972+373395819+372938485+372642064+372512160
2498+372365482+372114305+371963330+372083333+372228704+371966655+371230759
2488+370433927+369998449+369874673+369657158+369183946+368773575+368742827
2478+368980255+369173373+369194258+369095401+368917675+368641542+368248207
2468+367799279+367485000+367505436+367805033+368028338+367884275+367464750
2458+367067567+366827337+366671393+366503792+366276639+365986644+365705728
2448+365529011+365447079+365383192+365357301+365426306+365450778+365186412
2438+364665603+364194707+363940093+363832680+363834847+363937926+363965535
2428+363713611+363216638+362692652+362358908+362341722+362560357+362714060
2418+362576871+362257660+362042088+362065214+362233114+362370228+362359431
2408+362207933+362045040+362031702+362245107+362622414+362968001+363052287
2398+362807238+362385285+361957914+361566858+361232217+361026322+360940317
2388+360816840+360443904+359618603+358176737+356034206+353120958+349324762
2378+344713689+339780902+335171248+331098171+327273917+323455828+319762897
2368+316406737+313480824+311147958+309751933+309602172+310726247+312927472
2358+316177229+320820806+327237192+335445328+344800852+353713949+360134257
2348+362655366+361350689+357987878+354815682+352452909+349898176+346399521
2338+342198259+337874304+333753218+329969463+326767603+324525431+323455902
2328+323345053+323641885+323896013+324150440+324809149+326126267+327981046
2318+330035331+331875613+333174200+333991954+334808811+336037459+337613526
2308+339198671+340599814+341801114+342752881+343375910+343727811+344006897
2298+344395935+344941403+345547769+346081357+346504991+346878898+347235246
2288+347542501+347805110+348092228+348405686+348576051+348404640+347930307
2278+347436807+347148980+347039288+346962661+346845012+346684211+346461578
2268+346138070+345765060+345552439+345677822+345986909+346083486+345809856
2258+345435014+345277277+345368400+345580684+345851924+346157722+346434940
2248+346642591+346800142+346925973+347014817+347090846+347227026+347497407
2238+347889882+348260128+348464791+348562751+348740289+349017058+349201957
2228+349176664+349070708+349101531+349311088+349522700+349605080+349689329
2218+349962026+350364476+350740140+351111431+351532824+351898400+352155779
2208+352470506+352985749+353623088+354199789+354583672+354753888+354839369
2198+355051242+355497331+356088230+356632689+357021877+357336006+357754821
2188+358359245+359056734+359694371+360206439+360666051+361193661+361802979
2178+362374711+362812879+363168629+363576011+364125066+364837500+365700086
2168+366646324+367573283+368493555+369607319+371112998+373022136+375252726
2158+377802976+380743871+384077652+387624016+391076045+394251266+397235051
2148+400169333+403034647+405769086+408418006+411021906+413533263+415951293
2138+418389946+420989512+423894690+427264039+431109402+435151320+439018128
2128+442585863+445993394+449358297+452616646+455582013+457986779+459512371
2118+459971760+459464139+458219799+456354971+453927937+451145153+448313838
2108+445613733+443052313+440643959+438540470+436900778+435605665+434196078
2098+432194584+429410680+425887218+421755671+417233218+412578432+407989813
2088+403623229+399620017+396015407+392701353+389535135+386476927+383681852
2078+381422867+379783847+378498373+377244133+375973230+374834210+373959668
2068+373424176+373189064+373027516+372697470+372192837+371662986+371169898
2058+370676474+370168927+369655776+369142625+368706026+368507752+368638104
2048+368984738+369356254+369738754+370303949+371146211+372213498+373551576
2038+375364174+377756313+380652785+383988322+387745028+391753658+395561623
2028+398539019+400230680+400682148+400290494+399337943+397834057+395709609
2018+392982044+389854943+386724218+383914311+381445731+379232887+377337386
2008+375772826+374259339+372516195+370672401+369066708+367754110+366516234
1998+365266813+364174494+363426493+363031589+362805930+362491651+361928212
1988+361111019+360140198+359182192+358392720+357821548+357454067+357265357
1978+357147745+356940393+356600372+356204347+355854874+355733974+355988439
1968+356369631+356340789+355767748+355081430+354610086+354250749+353888312
1958+353655367+353623386+353606499+353411476+353056996+352696278+352480183
1948+352550346+353072165+354058715+355000282+355011976+353845683+352336381
1938+351354576+350965836+350860255+350926944+351130074+351292108+351269692
1928+351202442+351486123+352327937+353332196+353968040+354379196+354930492
1918+355226166+354642739+353534692+352813852+352802158+353127571+353253327
1908+352909645+352268907+351698968+351331038+351072912+350960718+351206888
1898+351883605+352679914+353127795+353244473+353594693+354315533+354637060
1888+353992698+352939310+352256952+352017431+351942411+351904079+351842545
1878+351692019+351501254+351466695+351990158+353601157+356302569+358830888
1868+359327338+357498227+354972785+353233975+352517431+352347440+352276305
1858+352126338+351938152+351855995+352009735+352477530+353275557+354431202
1848+356197211+358773651+361280824+361759267+359687534+357036933+355628841
1838+355586324+356057482+356528116+357499497+359683611+362518924+364251383
1828+364223885+363535886+362832979+361715666+360266515+359302531+359213089
1818+359678680+360335221+361211146+362505885+364056883+365182340+365377662
1808+365053408+365129250+366162875+368111504+370454887+372312467+372990528
1798+372856552+373279141+375421149+378978348+381752389+381630780+379568462
1788+378199786+378688465+380426566+382530615+384749773+386885991+388523030
1778+389924509+392278353+396539281+402109668+406449240+407320083+405558333
1768+403346348+402084524+402721078+405518021+409099355+411451331+412531134
1758+413654648+415063413+416592405+419188048+423725147+429057246+432573909
1748+433307414+432781411+432759293+433991715+436309393+438794748+440520631
1738+442223164+446018725+452363004+457740198+458414598+456231381+454274720
1728+453396591+453881721+455894648+458941498+462851981+468641265+476985544
1718+485776471+490397706+489330494+486029777+483883062+484286932+487459688
1708+492821527+498899424+504165320+509126912+515898674+524584020+531520879
1698+534361983+534827760+533895906+532254421+532247360+535324360+540836389
1688+548033616+557731328+569748811+578703790+579876434+577474245+576912077
1678+580040374+586400718+593832982+600226017+606054492+612430080+617826552
1668+620214469+621592000+625376764+631848742+638120728+642003564+645115272
1658+650413710+659486711+672320678+685394650+691078353+690586087+692198356
1648+697338308+701508673+700979420+698555001+698366553+701447103+707406154
1638+715516143+723282936+725855004+722243333+717701602+715863300+716408918
1628+717359601+717540801+717267469+716431259+714240271+711705787+710962830
1618+711698016+710508821+705583170+699741880+695402345+692295494+689312605
1608+685787163+681903580+678568977+676596624+675892896+675711023+675608655
1598+675641084+675726566+675479087+674695108+673519288+672134621+670607385
1588+668935787+667202619+665817354+665312011+665780068+667074247+669494855
1578+673153974+676160997+675779618+673572639+673632491+676921664+680857477
1568+683091206+684886020+688344138+694016558+702687631+716288167+733575993
1558+744700328+745655644+745436112+749097398+756206640+765056373+774132812
1548+782762042+791739400+802181452+813752996+824549154+830785198+828329173
1538+821034994+816818751+817364144+819850432+821433709+822228225+823826147
1528+826661535+830548331+835944131+843084532+850208867+854749702+856952795
1518+858474277+858847662+857669899+857028040+859452907+865995310+876338132
1508+887477635+891400149+884176209+874819489+870270584+870583220+873632461
1498+876683196+877457462+876331930+876026916+878399702+882883898+886867683
1488+887780856+885823373+883451035+882867609+884482269+886905492+888731764
1478+890262736+892829947+896939563+901096927+902207664+899151175+895099319
1468+893653529+895460523+898046565+898615570+898318925+900727503+907087212
1458+914323256+916542489+912626029+907226941+903171498+901179718+901403584
1448+902634698+902683417+900882027+898538233+897069728+897349187+899834056
1438+903627301+905810966+904693504+902925814+903245921+905014134+905972141
1428+905532478+905160439+905797068+906942028+908102007+909532403+910889572
1418+910609964+908213641+905160439+902616840+900695597+899346497+898903622
1408+899547274+900614374+901128235+901143030+901527099+902160589+901976923
1398+900947035+900039316+899036178+896912589+894135932+891965791+890190106
1388+887359276+883044549+879179796+878322515+881076979+885647777+889755450
1378+892867607+895873435+899081758+901867008+904074659+906302560+908718535
1368+910894355+912780404+914943371+917617809+919997394+921042750+920967506
1358+920890094+921333716+922043348+922671234+922801922+922054855+921084221
1348+921501915+923995750+927489660+930560122+932648891+933727797+933848472
1338+933384675+933230898+934300538+936640297+939242777+941082499+941992011
1328+942211842+941884786+941419270+941581042+942805954+944702390+946321757
1318+946935371+946537852+945455957+943992683+942958386+943653522+946507515
1308+950346489+953450576+954839726+954511400+953124939+951515360+950075698
1298+948625575+946936866+945066658+943088402+940972808+938879780+937039759
1288+935251520+933173810+931256602+930418375+930461041+929873504+927764934
1278+924869769+921986261+918709268+914595990+910549141+907937544+906834952
1268+906041109+904698286+903009427+901420322+899841752+897718014+894519030
1258+890282238+885778689+881939939+879175014+877389914+876385580+876014512
1248+876213571+876990228+878130181+879027738+879141315+878530689+877810671
1238+877738117+878773385+880650617+882374969+883098125+883131376+883641725
1228+885227318+887308914+888958096+889767630+889943525+890108585+890995531
1218+892826435+895069804+897074212+898679831+900196755+901892339+903615420
1208+905251674+907347467+910324527+913207961+914540248+914455514+914461790
1198+915591358+917895699+921015477+924298746+927165816+929779430+932600396
1188+935555189+938286639+940646723+942603757+944265791+945999333+948159013
1178+950729737+953271543+955236274+956640145+958184268+959933202+960653818
1168+959724580+958741019+959835541+963217368+967218414+970058883+971199509
1158+971559891+972652695+975162670+978328627+980969663+982573713+983061272
1148+982666219+982436449+983916835+987373682+990776880+992014196+991578494
1138+991607262+992865350+994073599+994161920+993950906+994956585+997177312
1128+998897255+998925276+998492937+1000162965+1005022488+1011355073+1016050208
1118+1017602999+1017393703+1017360527+1017618092+1017498463+1017583197
1110+1018976009+1021558838+1024309192+1026311284+1026566683+1024528052
1101+1021810351+1021345731+1024193448+1028775529+1033480229+1038043928
1093+1041843449+1043723371+1043949554+1043805192+1043444062+1041970401
1084+1039192026+1035984375+1034157655+1036266300+1043128662+1051000513
1075+1053765737+1049323385+1041785017+1036903601+1037257259+1041382417
1067+1046215264+1050157055+1053183282+1054583341+1053300744+1050513925
1058+1049256360+1051276983+1055675548+1060148087+1063348490+1065751986
1050+1067417457+1066925266+1064402289+1063015978+1065149431+1069395563
1041+1072718286+1073741823+1072599553+1069629741+1065560101+1061626230
1033+1059156007+1059311727+1062297978+1066192545+1067810792+1065641398
1024+1061224377+1057857569+1057894183+1060763494+1064107587+1066745261
1015+1068681000+1069012690+1067142332+1064833732+1063623839+1062389736
1007+1059821180+1056790245+1054445779+1051979292+1048321219+1044667405
998+1043522295+1045880735+1050116257+1053223706+1053082557+1050226546
990+1047350360+1046100043+1045051175+1041958521+1036887685+1031529695
981+1026516395+1021675926+1018149513+1017317487+1018081815+1018028165
973+1016852569+1015559735+1013268994+1008553161+1002607036+997523199+993315996
963+989101994+985086453+981707091+978552194+975270568+972294779+970071511
953+968331393+966129047+962773746+958849739+955565423+953392518+952361732
943+952828220+954413738+955228727+953815965+951094229+949097368+948572149
933+948803786+949099236+949559372+950454238+951310473+951048126+949384897
923+947712028+947568563+948471499+948377649+946484277+944374959+943749016
913+944293886+944425770+943343053+941866404+941352992+942042672+942910714
903+942883291+941789964+940357550+939613247+940212515+941686698+942480691
893+941414338+938715018+935352992+932073609+929227087+927347763+927324749
883+929088628+930632975+929701944+926501391+923354713+921889347+922052240
873+923397304+925546374+927409035+927795495+927265270+927970045+930756640
863+933612576+934082052+932248158+930094830+928832482+928171271+927792731
853+928069948+928843093+928650535+926718308+924996198+925786305+928196676
843+929395062+928527020+927077346+926478825+927350827+929634171+932010095
833+932716140+931768371+930815744+930773527+930972510+930374513+928903916
823+927790937+928625503+931578951+934884488+936713375+937088702+937339692
813+938353889+939930142+941251520+941775916+941882544+942143397+942205341
803+941262578+939289478+937197870+935815221+935189726+935062774+935829866
793+938316603+941744757+943424799+942162227+940408884+941082798+943678927
783+945013157+942982521+938669662+935021079+933931114+934449458+934121654
773+932339244+931228731+932737361+936052910+938675042+939139587+937678181
763+935364350+933787574+934219988+936213412+937973929+938373466+937817387
753+937142352+936452970+935365396+934092662+933461339+934361511+937270350
743+941705678+946138017+948873128+949600917+949628041+950033480+950263100
733+949133682+946918484+945580145+946492272+948503928+949303525+948093183
723+945411647+941353589+936309355+932970493+934478376+940233063+945393266
713+945562585+941499072+937513943+936604356+938365097+939897489+938210199
703+932670859+925476061+919898911+918156776+920585827+925229629+928005911
693+926042824+920697686+914875674+909262060+903517908+898973337+897172545
683+896866187+895252573+891800582+888666382+887846910+889380049+890853261
673+887325577+874636795+855571939+842861114+847879868+862167395+871432058
663+873005173+870815903+868286202+866970876+867088638+866871497+863950926
653+858700535+854053296+852048888+852716078+855719514+860421673+864661155
643+865814559+863084827+858275144+854053819+851951600+851633660+850653760
633+846114270+838776978+833793119+835316319+841152529+844396494+841381999
623+834713241+828444991+825134299+825579565+827260279+826229195+823810306
613+825553413+831910133+835568430+830314452+819043065+809786098+807465692
603+811243096+816376847+817931356
##END=
