##TITLE=<SNM>
##JCAMP-DX=4.24
##DATA TYPE=INFRARED SPECTRUM
##DATE=2/5/2025
##SAMPLING PROCEDURE=Instrument type and / or accessory
##ORIGIN=Admin
##XUNITS=1/CM
##YUNITS=ABSORBANCE
##RESOLUTION=4
##FIRSTX=4497.3318
##LASTX=599.83466
##DELTAX=-1.4281778
##MAXY=1.8140461
##MINY=0.24594666
##XFACTOR=1
##YFACTOR=1.6894621e-09
##NPOINTS=2730
##FIRSTY=0.26898131
##XYDATA=(X++(Y..Y))
4497+159211209+159639546+160152768+159983899+158970915+157713562+156884212
4487+156596272+156637885+157145321+158429716+160016145+160676204+159907588
4477+158631431+157915665+157837537+158019760+158331178+158592376+158413699
4467+157749072+157049182+156673959+156584471+156639349+156855952+157308669
4457+157903423+158326045+158224808+157445309+156311684+155714319+156388436
4447+157922404+159003285+158816829+157734925+156638732+156099861+156174038
4437+156590998+157045002+157364711+157492073+157466512+157380058+157199370
4427+156835737+156445326+156270724+156192313+155899681+155471855+155291538
4417+155445713+155643370+155666849+155619327+155738839+156000442+155934132
4407+155135493+154018574+153502776+153801530+154167597+154029087+153669299
4397+153500501+153391926+153135403+153016438+153357633+153799854+153685793
4387+153076027+152740652+153081812+153581769+153410836+152235969+150411574
4377+148725866+147953176+148299716+149220707+149974681+150309032+150445637
4367+150541493+150476278+150196435+149929734+149849330+149757425+149371389
4357+148788912+148407003+148515843+149165687+150206455+151227624+151630171
4347+151045472+149736063+148439831+147698620+147418865+147232585+147139393
4337+147426097+148046880+148542215+148584198+148234835+147729622+147400352
4327+147664654+148568110+149421769+149464405+148855680+148425049+148513302
4317+148758818+148893465+148902832+148523057+147496367+146251089+145576901
4307+145738158+146352625+146907372+147168702+147376864+148018726+149113543
4297+149973711+150026261+149533449+149152704+149150358+149346075+149513850
4287+149622284+149859844+150382803+150900629+150782263+149836259+148723537
4277+148279200+148592983+149018233+148999111+148707097+148745958+149310724
4267+149953672+150211235+150086625+149733540+149123862+148422950+148252387
4257+148991015+150137094+150938802+151343308+151756545+152209455+152309281
4247+151830493+151021199+150386966+150230957+150417483+150706728+151116650
4237+151631953+151905199+151675401+151138541+150626413+150354420+150546115
4227+151280720+152209402+152829294+152975901+152823120+152581380+152345231
4217+152109771+151929736+151987472+152258989+152293828+151797329+151232986
4207+151342831+152221292+153235723+153754589+153693378+153400764+153180968
4197+152995552+152639963+152118962+151712022+151654109+151851149+152011763
4187+152020071+152004230+152088338+152285643+152557407+152784894+152856354
4177+152913984+153219564+153714334+154068019+154156343+154183597+154411402
4167+154956958+155709838+156353668+156547779+156127539+155244509+154396602
4157+154076345+154250400+154454655+154410502+154211927+154015028+153948613
4147+154224734+154914410+155621426+155757520+155228280+154535976+154098519
4137+153817123+153492281+153270509+153436273+154077104+155039002+155942123
4127+156326802+156034046+155317081+154552946+154097778+154231349+154822946
4117+155257828+155088659+154541815+154169432+154261584+154673287+155005839
4107+154960786+154641658+154498614+154915133+155748841+156330400+156171639
4097+155570675+155158249+155032105+154795021+154195980+153359133+152685862
4087+152708195+153661061+155106669+156240735+156521954+155953731+155045000
4077+154515320+154693802+155175783+155327630+155024713+154637795+154491435
4067+154619114+154906930+155203443+155362822+155366438+155317275+155261462
4057+155170015+155008837+154694543+154261002+154105610+154584592+155401736
4047+155961598+156132460+156086173+155779305+155190090+154623030+154325177
4037+154203125+154127872+154143148+154316745+154668912+155182804+155723933
4027+156076135+156134207+155986506+155816843+155765440+155862002+156102613
4017+156529645+157056715+157312549+156997814+156369614+156026620+156241353
4007+156794194+157369280+157772463+157841559+157514564+157003953+156661558
3997+156638150+156807389+156960541+157006282+157092877+157537549+158453936
3987+159481103+160106692+160184644+159891500+159333631+158594246+158099317
3977+158409483+159490911+160602680+161116201+161075664+160790053+160378721
3967+160014364+160158184+161083955+162361629+163240690+163465919+163262475
3957+162709175+161882418+161445013+162238731+164231853+166286469+167051415
3947+166277472+165238346+165295112+166169550+166363927+165326740+164075262
3937+163771022+164907064+167319598+169924850+170965953+169800047+168039791
3927+167797963+169346695+170999840+171369929+171195962+171989839+173632293
3917+174209178+172318315+168910720+166095391+164991684+165480333+167521842
3907+171782655+178355701+185298007+189679585+190425004+188267087+183840351
3897+178405799+174651486+174664117+177658687+180006058+179178313+177606031
3887+178684848+181672873+183520077+184226670+185515545+185738075+182652483
3878+178952308+178728013+182254486+187246236+191948934+194736091+194042552
3868+191723105+191229711+192300519+191529152+187875635+184331364+183894118
3858+187778897+196391035+208018505+214464701+208429097+196743079+187732062
3848+183814420+184663492+188737567+194017627+199394866+204825396+209213853
3838+209849833+206194287+201327412+197618876+194915139+192761350+191753023
3828+192199830+193689168+196932357+203316671+210669375+213080463+209995170
3818+206597241+203833968+198859100+192429733+188528814+189535006+194953982
3808+201467916+205500483+208031859+212080603+216197014+216301532+213516632
3798+211417122+209653516+206787066+204123442+203748184+205930708+209959713
3788+215461333+221893575+228065696+233698681+240299757+248745531+257332550
3778+264369054+271389947+281104240+294350157+309868192+324812835+336019112
3768+342576511+345425003+345516026+344973099+346610914+350671600+354436567
3758+356394656+359045014+365946501+378280088+393198236+404470134+410057926
3748+415511582+425092181+436233648+442349056+444245475+449566089+462624368
3738+482333679+502970508+517524987+524178877+526905123+529897417+535095292
3728+543125853+553419994+563753826+571558064+575290080+574828790+571897848
3718+569339678+569324472+572309040+576311408+576976476+571677135+563080115
3708+555007535+549665682+548401414+550454231+552123727+550532976+547306209
3698+545883392+548170364+554369950+563550788+573559266+580634120+581057342
3688+575762271+569596518+565367933+563462482+564159549+567881792+574992597
3678+585422250+595963565+600567073+599268125+596519652+591011594+579159476
3668+564612971+554110288+549437948+548348741+548237220+548635957+550607100
3658+553855458+556113465+557064056+560331783+568670729+578970445+582304287
3648+574247831+561659802+552139321+547853688+547233250+547757479+548708176
3638+550906135+553685443+555255873+556891783+562491252+571952639+577200223
3628+571865391+562924670+558902580+561200207+567682917+575049010+579257379
3618+578976019+577995546+580002498+584239162+587769409+589384257+589404331
3608+588381804+587543439+588061565+589836797+591986705+593995068+595898155
3598+598000576+600141734+600832663+598829944+595917348+595574000+599081774
3588+603968865+606382740+605496853+603903103+604194729+606618059+609261961
3578+610243598+609258292+607171042+605812117+607628344+613541596+621027501
3568+625257391+623673801+618926138+615064151+613368229+612645548+611061254
3558+607639069+602997670+598986165+597261666+597921054+599691770+601328279
3548+602276754+602239851+601012662+598793041+596137003+593747612+592319256
3538+592057830+592285105+592021279+591037242+589961018+589506503+589930254
3528+590953593+591912122+592026995+590878411+588786610+586663691+585003720
3518+583109418+580113772+576680686+574742389+575171785+576522913+576707393
3508+575407422+573981676+573421250+573167585+571907833+569371747+566765560
3498+565502915+566165972+568379702+571205332+573298263+573187059+570525588
3488+566517364+562619143+559903516+559232592+560433320+561705032+561354417
3478+559689930+557906972+556079667+553723757+551398295+550129935+549849351
3468+549747250+549680147+549812589+549313479+547201215+544375514+542788291
3458+542800392+543234657+543328996+543051941+542224513+540811751+539554010
3448+539230525+539505111+539063544+536920762+533471342+530212964+528461017
3438+528466874+529604662+530981756+531903594+532130869+531716044+530589122
3428+528696337+526549110+525028002+524452334+524198387+523451257+522154426
3418+520890335+520000496+519477184+519599677+520571719+521431851+520814729
3408+519043837+517863254+518006421+518387554+517548836+515118521+512242122
3398+510793621+511517395+513074983+513634916+512924972+511898422+511211410
3388+510859807+510581410+510024476+508953121+507552107+506198016+505042764
3378+504161534+503810319+504139308+504774246+505049750+504669217+503872942
3368+503033236+502400344+502187251+502534021+503255043+503864192+504094043
3358+504157477+504364537+504688445+504814995+504530177+503802699+502600948
3348+501052145+499703769+499098289+499009453+498613927+497613979+496653650
3338+496443697+496945559+497530117+497634794+497197037+496495912+495707892
3328+494939947+494598540+495160378+496429303+497234998+496095975+492618719
3318+488397013+485793543+485609450+486736831+488027453+489248149+490122323
3308+490089301+489318110+488639953+488463446+488679785+489288298+490324762
3298+491396434+491798065+491182565+489974252+488991380+488739197+489138428
3288+489723727+490035852+490153123+490710128+491972067+493296946+493882775
3278+493631650+493048115+492662007+492719797+493161152+493583528+493258491
3268+491712898+489576714+488252400+488391333+489241058+489663045+489189796
3258+487989385+486526666+485437353+485065676+484988377+484413732+483096862
3248+481652488+480912732+481076997+481518494+481428071+480640298+479680111
3238+478990064+478501009+478184263+478468587+479407782+479881984+478659876
3228+476138079+473937368+472877514+472438451+471994591+471451169+470763592
3218+469821327+468781865+467911043+467254548+466720828+466222177+465717987
3208+465324824+465171708+465051226+464590395+463817440+463107566+462537755
3198+461760143+460603021+459371564+458380860+457536850+456611167+455650239
3188+454802666+453928739+452710230+451120572+449513804+448166381+446988656
3178+445824337+444806960+444175056+443866777+443481164+442628052+441349849
3168+440120579+439231834+438390541+437284823+436219324+435630038+435308035
3158+434669992+433524830+432148971+430876660+429927092+429349201+428865403
3148+428007599+426622708+425092428+423978560+423563981+423660367+423719955
3138+423312186+422521097+421609491+420512875+419093268+417593293+416387061
3128+415580202+415048740+414573798+414049180+413783450+414160454+414793064
3118+414681085+413473901+411877752+410653351+409925942+409524524+409346535
3108+409243517+408976798+408436375+407733063+407082037+406646679+406364119
3098+405913555+405029608+403867865+402932974+402602504+402755690+402922213
3088+402813938+402554417+402342241+402174342+401985205+401744276+401293324
3078+400357974+398898995+397335833+396232513+395732875+395457265+394998940
3068+394318948+393599831+392991176+392582701+392384532+392248809+391920491
3058+391194176+390075545+388856719+387904822+387277610+386675235+385824311
3048+384758036+383679483+382754929+382127329+381910002+382012350+382115898
3038+381941296+381472633+380934856+380583959+380366139+379851118+378800895
3028+377602601+376751042+376210831+375606621+374718794+373622072+372557843
3018+371721313+371152243+370837014+370672537+370272530+369264432+367915104
3008+366995665+366886614+367114136+366857966+365829794+364546334+363678016
2998+363318828+363074724+362624548+361947767+361182997+360429093+359650917
2988+358843140+358195042+357845591+357611331+357198058+356525122+355727259
2978+355017950+354524838+354145893+353727328+353339810+353078065+352735635
2968+352071344+351234214+350547413+350051161+349569621+349029304+348447639
2958+347801798+347119549+346517139+346011502+345493306+344915415+344290179
2948+343600379+342928785+342468413+342218911+341940479+341518351+341065882
2938+340636838+340133883+339485926+338718792+337944109+337353059+337065666
2928+336961660+336780319+336393577+335822778+335017471+333912317+332716458
2918+331800724+331231124+330751066+330270090+330005100+330068640+330226660
2908+330151760+329750271+329163419+328500221+327707121+326813296+326115911
2898+325815006+325602231+325012980+324119120+323458426+323276204+323217603
2888+322880854+322356624+321970023+321716429+321300616+320623200+319886583
2878+319277399+318834668+318550344+318357185+318113398+317780070+317499980
2868+317376358+317284842+317006939+316519154+316072647+315897869+315840503
2858+315462687+314570732+313468894+312604246+312125211+311876027+311670554
2848+311410998+311019175+310470073+309907494+309543685+309424226+309405633
2838+309303144+308967523+308361443+307659755+307102644+306700061+306256765
2828+305665221+305000400+304407727+304045999+304002780+304134234+304094509
2818+303611981+302728246+301778996+301107612+300723940+300334269+299800903
2808+299339931+299085419+298787830+298264765+297797796+297673715+297650854
2798+297292371+296590188+295900918+295451412+295168694+294868124+294449259
2788+293927288+293290850+292447052+291484713+290810172+290672897+290715745
2778+290384128+289612972+288726009+287879495+287015040+286166339+285461034
2768+284936046+284549216+284260553+284000396+283652409+283118372+282400578
2758+281642211+281026977+280586944+280198085+279773928+279325322+278861052
2748+278386550+277953203+277586359+277210077+276711991+276065850+275411296
2738+274979166+274840550+274780944+274539151+274101940+273630084+273165055
2728+272584942+271840811+271085920+270531138+270244045+270080027+269772171
2718+269166216+268403509+267751213+267251892+266710992+266028549+265368067
2708+264963967+264835389+264728560+264380609+263800090+263188048+262691073
2698+262401863+262431780+262728487+262950629+262752443+262132551+261387750
2688+260800616+260434460+260165818+259860891+259512657+259215245+259016741
2678+258825504+258502743+258043641+257589125+257235741+256924410+256554214
2668+256125401+255733402+255476209+255386862+255386826+255274706+254856652
2658+254170734+253506830+253112009+252949014+252814561+252593389+252306190
2648+251984664+251606071+251172177+250785788+250563963+250499718+250495520
2638+250459146+250275089+249860334+249397069+249256177+249487069+249656114
2628+249401532+248881854+248453993+248163142+247818278+247407087+247145942
2618+247119394+247099937+246830854+246369600+246009424+245912298+245970545
2608+246025212+246055977+246087164+246047192+245854738+245583345+245410701
2598+245391561+245369546+245170495+244828665+244533828+244389832+244337440
2588+244302319+244288436+244307523+244328021+244307240+244199089+243974900
2578+243711569+243562633+243553496+243534726+243419695+243306975+243281326
2568+243273758+243220679+243216587+243406836+243796788+244220539+244474381
2558+244485600+244374961+244334336+244423718+244519239+244470270+244234740
2548+243846251+243364499+242895872+242534637+242249361+241924271+241508000
2538+241039884+240577395+240179469+239931396+239916084+240122527+240377515
2528+240451092+240297693+240097813+239996347+239929473+239774505+239535763
2518+239314238+239185342+239138437+239095801+238992606+238837073+238682105
2508+238582350+238585842+238683533+238762914+238701103+238496919+238243077
2498+238041433+238009575+238226090+238574659+238774927+238647054+238260717
2488+237825094+237517010+237375571+237291445+237121941+236819607+236434082
2478+236058330+235791417+235655377+235537805+235309860+234992708+234724243
2468+234602544+234627134+234717610+234722779+234509492+234112571+233704432
2458+233390279+233152155+232979617+232888611+232829305+232724488+232561440
2448+232360625+232137371+231939379+231815757+231726215+231561051+231249914
2438+230829586+230444149+230260550+230322838+230495287+230581071+230493629
2428+230304880+230132360+230015776+229945480+229959539+230116924+230390047
2418+230661211+230815544+230799386+230627059+230377504+230161201+230046964
2408+230014400+230005915+230026307+230143332+230377910+230668143+230959417
2398+231247798+231527129+231809230+232234763+233090591+234725601+237510783
2388+241834924+248049611+256434015+267215182+280504847+296165520+313852179
2378+333237618+354068841+375908091+397966996+419325624+439149278+456665569
2368+471305955+482862389+491138007+495743526+496563368+493774923+487105192
2358+475923011+460456432+441911087+421724857+402487984+388236104+382102491
2348+384939870+395584062+410564056+424530237+433682604+438035375+439495695
2338+439723852+439560893+439179937+438389765+436870809+434348377+430737832
2328+426280702+421413050+416191891+410083222+402720481+394511366+386102213
2318+377756459+369533126+361551217+353841389+346208154+338422262+330497753
2308+322678380+315155185+307938116+301032818+294554218+288586405+283080181
2298+277947875+273170541+268804240+264906320+261407171+258083049+254775667
2288+251606477+248832373+246542156+244649635+243108647+241942247+241090387
2278+240397660+239754836+239129917+238466595+237687113+236834072+236088653
2268+235572380+235218554+234908300+234626252+234384900+234098600+233660843
2258+233106379+232589417+232206186+231922109+231673048+231428732+231142521
2248+230774848+230400860+230161113+230077516+230025213+229894482+229698483
2238+229521623+229426102+229429842+229537429+229735933+229967618+230168875
2228+230325448+230440744+230508271+230572957+230732600+231008774+231302852
2218+231536090+231749006+232023698+232402697+232910820+233556008+234288443
2208+235042735+235802178+236558728+237277668+237955649+238639821+239373492
2198+240170031+241003157+241803295+242520349+243180372+243851473+244582885
2188+245344392+246002209+246443301+246708996+246921630+247161113+247455015
2178+247758937+247968095+248058801+248115779+248158609+248075647+247753115
2168+247203625+246589767+246099512+245761863+245454378+245076897+244635664
2158+244206974+243866996+243635945+243519768+243560975+243777349+244163138
2148+244756217+245595375+246821135+248910907+252364367+257076133+262507280
2138+268375709+274691014+281388723+288379275+295680910+303300527+311215827
2128+319443005+327971582+336722001+345570217+354382129+363084920+371564810
2118+379440808+386217897+391655536+395760287+398561363+400058692+400348695
2108+399809648+398976047+398084832+397047170+395813702+394323111+392303670
2098+389520975+386005651+381958583+377615091+373040654+368049345+362500538
2088+356427855+349812455+342588965+334784515+326472877+317858816+309331544
2078+301174010+293489672+286463928+280302144+274998217+270440326+266583842
2068+263456972+261074373+259214486+257424261+255517010+253749946+252354806
2058+251315133+250533111+249847933+249154464+248620374+248425821+248490984
2048+248788432+249510530+250775927+252593177+255029825+258142884+261973102
2038+266634170+272163696+278439153+285267045+292251088+298787477+304543485
2028+309648044+314299603+318547275+322365621+325672121+328350703+330194202
2018+330776820+329755775+327347898+324154435+320623129+316878660+312833144
2008+308361796+303495591+298418693+293302792+288280031+283493595+279028915
1998+274931820+271420006+268824597+267065506+265425345+263236223+260607209
1988+258076275+255913843+254128891+252741795+251743700+251030015+250496631
1978+250086392+249783564+249597284+249489362+249437994+249608362+250160534
1968+250800905+250904241+250273660+249414445+248881272+248744190+248833714
1958+249112940+249550397+249945395+250171859+250381882+250771076+251326334
1948+252008954+253076199+254806043+256662119+257294218+256124095+254285712
1938+253186574+253061823+253337838+253589192+253794488+254080063+254486633
1928+255057573+256122702+257963696+260069503+261624216+262817323+264285140
1918+265425909+265049381+263590966+262775075+263469602+265066457+266435948
1908+267010998+267066776+267152190+267474510+267912761+268372798+268957727
1898+269851905+270950867+271756668+272155529+272857482+274132669+274810685
1888+273800153+271816168+270223388+269394055+269002815+268811437+268719938
1878+268673527+268686475+268864587+269715123+272175938+276445642+280550499
1868+281311406+278095135+273644373+270574956+269406086+269335720+269476047
1858+269414853+269227250+269175036+269382307+269921442+271014460+272942137
1848+275995149+280165997+283964304+284466695+281064391+276955512+274906083
1838+274895340+275442501+275851223+277169311+280650272+285330850+288237660
1828+288263026+287272092+286255351+284339298+281606031+279621359+279201453
1818+279692589+280265858+281079244+282874815+285570649+287734528+288052086
1808+286995548+286227885+287054678+289800857+293612641+296607546+297362367
1798+296675108+296963100+300000518+305152811+308785971+307424188+302772805
1788+299326489+299047669+300857864+303050214+305005516+306544546+307363894
1778+308061385+310389070+315729088+323239865+329033976+329477202+325747868
1768+321125767+317580102+316563607+318810395+322645287+325098923+325773693
1758+326291889+326920089+327669689+330376566+336545070+344220712+348900919
1748+348875659+346751964+345416783+345970471+348192139+350858021+352487298
1738+353806779+357793941+365214295+370832181+369049787+362910353+357177877
1728+353154976+351261591+351583735+353282268+356299646+362473972+372992390
1718+384492764+389286185+384822246+376895091+370762043+368304068+369926537
1708+375082569+381553813+386566396+390571727+396849847+405804292+412363525
1698+413129742+409920686+403645352+396184497+391861467+392416954+396290902
1688+402400418+412097089+424683812+431770626+427406142+419021120+414208365
1678+414855334+419712719+425424168+429356328+432874051+437540287+440400563
1668+438221337+434546088+434644520+438738087+442661145+443437240+443388588
1658+446780643+456369003+472945746+491425364+498035260+493461881+492257661
1648+497585049+502235868+499496850+493478957+490852307+493450733+501072784
1638+513206967+526567985+533217536+530279961+525865414+526620517+532938081
1628+541992475+551352431+560788098+569951296+577060301+582458744+589681281
1618+600807684+612455529+618627879+619741888+620507046+622942230+626260479
1608+629157340+631352689+633490037+635972708+638531584+641090038+644302234
1598+648796726+654435497+660518659+666423444+672027429+677557114+683100347
1588+688467602+693362948+697432102+700429229+702727244+705659315+711007095
1578+719353837+727829000+731814468+733008705+737834761+748802826+762411053
1568+773184441+781007413+789603023+801102620+816837187+839352619+866989755
1558+884164110+883241320+877788687+875004652+874160748+873768502+873166480
1548+872819322+874180646+877917036+883439312+889751866+892349622+883075432
1538+865995487+853524342+848468683+845967242+841074295+835129362+832489058
1528+833694091+835897765+837841143+841308627+846099685+848254461+846254071
1518+842718849+838833647+834565442+831604935+832273284+837701292+847611232
1508+858640614+861578612+851687088+839305485+832527796+831553144+834013165
1498+836308075+834796104+830174533+827557867+830056697+835602611+838551052
1488+835299130+828254723+821931726+818905386+819284861+821581958+824587553
1478+828527016+833933361+840026613+843953022+841894773+834217438+826740777
1468+823796076+824955667+826521969+825699657+824900206+828772990+838583016
1458+849156013+850225639+840531262+829893984+823729184+821862930+822079903
1448+821490723+818777672+815362967+812992346+812068638+812913883+816275808
1438+821186960+823468040+820245895+814883579+811535766+810358181+809427065
1428+808182660+807759015+808469347+809357845+810318244+812345024+814677895
1418+814059432+809409848+803575977+799180270+796724341+795341496+794274198
1408+793867417+794504155+795221120+795095522+795174832+796787916+799392304
1398+801659554+802985527+802642461+800036098+796936869+796156752+797949906
1388+799548878+798314563+795342413+794105911+796223220+800584847+805517378
1378+810524704+815812296+820873460+824382292+825825537+826393478+827529502
1368+829719629+832972821+837096236+840839047+842097916+840350415+837515859
1358+835421412+834331534+833887850+833931668+834224635+834226963+833663820
1348+832982982+832892806+833710813+835351909+837526937+839702388+841235455
1338+841851731+841840088+841716960+841896748+842565733+843723983+845539646
1328+848478914+852542070+856657087+859679194+861843425+864350863+867695854
1318+871359143+875021939+879122280+884022777+889285602+894113211+898131702
1308+901312145+903460219+904556447+905545423+907702669+911019435+914141596
1298+915970666+916563374+916489920+916039392+915177707+913814690+912000368
1288+910059460+908369254+906848463+905009868+902803936+900960895+900108666
1278+899996827+899897972+899368345+898458256+897537794+897096367+897547390
1268+899021963+901142518+903065362+904255012+905239261+907037636+909923349
1258+913093773+915459314+916689677+917421460+918306289+919192952+919569322
1248+919479569+919563606+920113978+920337302+919132058+916727780+914512321
1238+912973750+911119631+908238223+905044443+902760047+901918895+902141655
1228+902586891+902569463+901825614+900562793+899452312+899095487+899382810
1218+899737094+899810477+899680363+899766800+900581280+901999052+903124280
1208+903566271+904230387+906088668+908869457+911605652+913828167+915599094
1198+916926902+917888218+918982329+920555263+922116414+922964199+923237127
1188+923729921+925112978+927870835+932161407+937069736+940851920+942592154
1178+943103717+943882776+945665910+948003650+949835401+950684243+951373619
1168+953094590+955777441+957989654+958660614+958416263+958728211+959844901
1158+960430130+960091228+961071243+965553175+972029500+976457736+977307919
1148+976982071+977406774+977717382+977217743+977708491+981374532+987677278
1138+993504235+996293209+996414643+996039544+996208607+996154699+995734017
1128+996486404+998854978+1000510469+999802394+999441971+1003328443+1010527731
1118+1015760074+1016609058+1015994476+1016343680+1016827231+1016641093
1110+1016200019+1014762772+1011353218+1007971818+1007735158+1010544172
1101+1013612565+1015228189+1015990807+1017184126+1019337209+1022231319
1093+1025513017+1028886585+1031794595+1033417980+1033265075+1032017495
1084+1031253043+1032166237+1034912310+1038732314+1042827364+1046840915
1075+1049885671+1050267898+1047428331+1043570083+1041781304+1042684196
1067+1044248452+1044341733+1042623161+1040278718+1039024082+1040574226
1058+1046257662+1056018084+1066945224+1073741823+1072552667+1065038115
1050+1056774493+1051962408+1051049567+1052251565+1053841505+1055019230
1041+1055433067+1054431038+1051651801+1048922379+1049461250+1053978533
1033+1059272405+1061317248+1058774107+1053523771+1049175903+1048850902
1024+1052459295+1056031138+1055847116+1052885974+1050393636+1049480513
1015+1049608157+1050452625+1051775846+1053342924+1055052393+1056036853
1007+1054880296+1051666477+1048133160+1045501606+1043793478+1043130985
998+1044046649+1046028693+1047205784+1046256180+1043788115+1041325695
990+1039482796+1037874299+1036320063+1035024925+1034278183+1034814231
981+1036892026+1038479778+1036739898+1031867766+1026822055+1023178946
973+1019800016+1015611685+1012068913+1011760846+1014614736+1016511332
964+1013717842+1007902104+1003318988+1001004745+998783430+995398996+991920434
954+989477911+987823268+986078095+983635855+980278304+976210562+972140774
944+968992576+967628359+968498441+970803017+972266724+970955781+967380833
934+963584608+960708844+958812601+958133668+958918301+960297829+960859561
924+960341224+959784360+960186343+961611101+963327274+964355834+964009946
914+962251226+959665678+956968291+954476800+952157123+950307239+949821641
904+950954349+952117609+951229747+948355888+945875263+945874558+947937253
894+949926776+950567677+950449277+950780558+952019883+953780226+955143949
884+954926976+952523262+948570674+944364140+940672414+937565001+935152467
874+933829669+933772868+934525537+935194379+935218299+934987426+935432239
864+937022037+939026732+939905351+938925548+937155961+936205582+936357287
854+936928192+938002193+940116750+942395784+943142949+942376239+941686228
844+941587513+940976883+939340373+937746764+937251147+937591884+937689751
834+936865887+935398229+934148743+933982221+934906281+935782854+935440988
824+934118191+933225248+933540865+934666164+936136997+937777458+939437394
814+941295534+943796551+946691507+948821517+949511881+949606008+950363193
804+952241161+954540375+955628065+954254957+951079594+948285398+947167155
794+947492933+948998835+951470287+953725048+954501355+954193993+954162241
784+954535012+954168874+952632489+950743655+949049216+947234329+945246993
774+943911917+944243693+946300955+948606237+949161901+948109985+948232266
764+951605411+957110541+961752081+963438477+962109752+959229261+956793019
754+955793176+955385407+954655106+954857826+958112712+963695105+967741468
744+967870452+966061987+965328087+965764998+965187037+962334558+957791732
734+953058251+950005522+950214875+953602343+957761673+960382078+961216386
724+960635814+958800888+956519738+954683965+952898361+950599783+948835417
714+948404081+947651694+945318047+944163748+947736226+954256651+957549215
704+954917309+950220943+947947484+948428354+949279737+948731976+946444898
694+942998512+940061995+939292110+940326950+941368564+941584903+941235981
684+939692823+935974496+930774893+925735462+921604851+918399993+916447020
674+916026761+916097463+914390746+909973941+906497213+909002534+914275309
664+914781651+908223405+898788831+892721616+892550437+896002609+899248251
654+900146557+899218263+898260333+897685759+896486231+894991901+895281410
644+897659158+898624637+893882054+883600049+872829554+865853096+862971829
634+862096102+861878705+862313570+862230308+859242424+853705118+849512061
624+849506416+853016801+857641618+860549487+859037234+852920133+845713013
614+841923914+843366100+847854312+851364979+851897006+850360127+847648346
604+844556950+843650953+846979221+853528153
##END=
