##TITLE=<SNM>
##JCAMP-DX=4.24
##DATA TYPE=INFRARED SPECTRUM
##DATE=2/5/2025
##SAMPLING PROCEDURE=Instrument type and / or accessory
##ORIGIN=Admin
##XUNITS=1/CM
##YUNITS=ABSORBANCE
##RESOLUTION=4
##FIRSTX=4497.3318
##LASTX=599.83466
##DELTAX=-1.4281778
##MAXY=1.8455994
##MINY=0.39184779
##XFACTOR=1
##YFACTOR=1.7188484e-09
##NPOINTS=2730
##FIRSTY=0.41092208
##XYDATA=(X++(Y..Y))
4497+239068251+238643925+238898975+239257744+239028875+237743066+235761930
4487+234140863+233615592+234101262+235107175+236131050+236749325+236717665
4477+236066880+235203941+234802346+235229619+236201497+237240283+238062494
4467+238340067+237807583+236841549+236240266+236315983+236713486+236988874
4457+236958601+236676434+236346221+236199641+236407409+237008935+237743066
4447+238056582+237558428+236414639+235186776+234391821+234221661+234534327
4437+235156659+236107955+237220171+237823465+237446803+236552047+235954891
4427+235950521+236464314+237327323+237982026+237731311+236517769+234841236
4417+233191595+232116363+232208968+233460568+235094968+236272151+236746742
4407+236884548+237053478+237015506+236336391+235371848+235025684+235467799
4397+235885450+235612975+234981921+234827712+235303742+235550244+234888570
4387+233914058+233660274+234048466+233979771+232878825+231516883+231074005
4377+231676120+232275791+231981053+230998339+230150780+229966297+230348578
4367+230851274+231232375+231609714+231917958+231720056+230957819+230336493
4357+230524633+231415123+232368431+232838739+232757074+232558080+232710919
4347+233066879+232917369+231861469+230384451+229410233+229357177+229688049
4337+229478322+228586462+227971117+228432617+229384832+229601061+229042309
4327+228931967+229943723+231282137+231806038+231430294+230965934+230920385
4317+230925587+230389254+229421850+228863428+229377203+230708751+232016909
4307+232736788+232794144+232296996+231612089+231425717+231986654+232513121
4297+232070936+230906410+230182422+230437698+231035981+231291031+231364061
4287+231638305+231919536+231789705+231308855+230904313+230806697+230839397
4277+230732175+230599778+230838582+231416268+231696632+231222076+230282344
4267+229463566+229061260+229131568+229708508+230689939+231698088+232277837
4257+232293632+232073034+232008327+232013320+231697793+231198998+231199432
4247+231812367+232203767+231746237+230866358+230337065+230334499+230542301
4237+230786983+231323125+232435358+233668995+233837352+232365085+230314750
4227+229380879+230009574+230996918+231005916+230161217+229761356+230556918
4217+231820654+232303169+231760247+231138192+231352340+232345232+233429983
4207+234172697+234664712+235091102+235343430+235167027+234589116+233972974
4197+233537048+233092748+232529124+232197733+232396138+232806749+232879190
4187+232534135+232112601+231847217+231708509+231665180+231837039+232282206
4177+232725709+232739580+232277993+231888361+232193884+233166923+234126021
4167+234514283+234497760+234597387+234930911+235081652+234597907+233509151
4157+232406680+231915462+232043975+232272219+232241530+232007269+231728743
4147+231562518+231641773+231824365+231834855+231771049+231958045+232351526
4137+232622406+232706584+232844148+233153173+233438236+233445848+233194976
4127+232927512+232749913+232579753+232486108+232747486+233484513+234430555
4117+235067660+234980759+234193139+233161964+232379406+232054395+232158635
4107+232541522+232947850+233143672+233109081+233017707+233024469+233179927
4097+233515150+233963663+234153468+233671786+232725431+232098123+232189671
4087+232574205+232781175+232984053+233547694+234348353+234888362+234816962
4077+234179927+233316537+232557490+231971864+231474126+231093337+230898175
4067+230798218+230713051+230791109+231210095+231839675+232330113+232593867
4057+233027573+233856476+234392029+233745874+232319259+231533650+231978314
4047+232866082+233349602+233410651+233366455+233354924+233440074+233625700
4037+233709896+233547070+233433052+233840473+234757474+235664279+236213079
4027+236546638+236858142+237011917+236760526+236159069+235655471+235764132
4017+236553712+237418524+237546309+236725866+235584401+234960803+235137084
4007+235713937+236098506+236030244+235745857+235705874+236065372+236481323
3997+236596105+236545424+236750036+237355064+238098073+238618212+238775975
3987+238759382+238897189+239270193+239519781+239221021+238581992+238525919
3977+239640059+241201394+241817086+241011780+239604948+238619425+238406543
3967+238767375+239499426+240617640+242003891+243121464+243464767+243151044
3957+242734069+242619895+242848469+243325626+244179341+245591669+247155761
3947+248169650+248815476+249734782+250323634+249169615+246382861+243712570
3937+242653896+243803961+246987733+250749763+252562421+251168940+248289303
3927+246663260+247252371+248787404+249676195+250105862+251472017+253969305
3917+255595018+254236700+250565385+247298752+246040511+246401188+247958085
3907+251604310+258088144+265888372+271722236+273611045+271782123+266981532
3897+260704738+255891993+255030475+257683168+260212948+259895358+259183784
3887+261569446+265903855+268084610+267639495+267120796+266014926+262488146
3878+258749436+258526341+262312506+268025902+273686103+277141466+276340218
3868+273107395+271403797+271784221+271231503+268017978+264315645+263165476
3858+266247523+274274019+285951612+293705442+289452940+278508905+269291113
3848+264829872+265107462+268786214+273992354+279337705+284257793+287780793
3838+288087356+285039553+281070553+277954505+275469268+273231261+271837173
3828+271683086+272450281+274794712+280347987+287769055+291317786+289057725
3818+285542856+282993536+279462438+274511522+270716341+270348122+273777703
3808+278990206+282971811+285678495+289130027+292349984+292351129+290270521
3798+289164253+288466533+286384209+283832097+282908594+284175331+287093528
3788+291219962+296024403+300706121+305273994+310772253+317223300+322584480
3778+325530610+327766797+331976802+339896909+352073766+366817004+380206935
3768+390128186+398012818+405233488+412168592+419735616+427793599+433417320
3758+434485097+433835387+436387516+444874003+457984645+469652719+475389175
3748+479088041+485546474+493377460+497407492+498255000+501792339+511546898
3738+527342621+544809466+556539925+559121877+556979076+556419075+560072687
3728+566813253+573501318+577572684+579523235+581145915+582434792+582447346
3718+581395971+580810518+582454073+586195036+588425536+585576744+579410847
3708+574038153+571548062+572450255+575498925+577264578+575678379+572912119
3698+571980207+573579029+576858406+581141303+586381668+592005944+595599114
3688+594941428+591380716+587908916+586766307+589339138+595365876+602709441
3678+608707744+610705768+608142438+605242602+605164162+605170543+600805600
3668+593255914+587229939+584336137+583034220+581809218+581032035+581661494
3658+582917844+582883514+582068186+583796492+590091631+598607836+602311348
3648+596815447+586529670+577475346+571889770+569107593+567569179+566596279
3638+566850843+568694623+571194633+573883286+578274965+585372288+591378844
3628+590648406+585344269+581716457+582532235+587396805+593769898+597826353
3618+598402895+598541326+600253402+602175830+603110170+604396828+606975000
3608+609121996+609323540+608773700+609125117+610050302+610349773+610627328
3598+612792427+616962970+621052299+623735820+626242626+630330152+635430873
3588+638302205+636856379+633395398+631241674+631316715+632396698+632816707
3578+632016360+630845800+630633993+632098891+635558138+641411768+649158073
3568+655754209+656647282+650605564+641430910+633702290+629020052+626482453
3558+625708738+627746848+632669399+637963341+640616970+640828985+641523290
3548+643841591+645106056+642339311+636681190+631776672+629439506+629065895
3538+629587855+630218908+630241656+629592918+629232415+630063555+631835207
3528+633291991+633040860+630663954+627267126+624732509+623996800+624037996
3518+623376635+622096773+621209872+620824887+620297657+619603699+619325173
3508+619806490+620967965+622163492+622326266+621044601+619388909+618899338
3498+620095905+622269534+624041394+624105755+621994059+618377795+614689332
3488+612277819+611559865+611878547+612434698+612926627+613074143+612681668
3478+612217897+611854966+610645985+608287458+606455468+606825819+608796101
3468+610112859+609334914+607344241+606267795+606784969+607217600+605941831
3458+603766815+602634469+602726641+602258778+599889293+596416730+593951745
3448+593852707+595453540+596681178+596107411+594324315+593075455+593213261
3438+593941133+594079217+593491233+592745676+591961141+590802441+589310703
3428+588006706+587294993+587077499+586806185+585873094+584210536+582452547
3418+581108359+580095199+579552017+580122490+581690761+582724485+581787233
3408+579070387+575795276+573205314+572422860+573825583+576143538+577285766
3398+576415337+574375665+572207689+570466796+569604377+569761811+570399903
3388+570917251+571232084+571192483+570274476+568535039+566916209+565952984
3378+565024054+563575454+562421817+562818211+564559798+566200821+567014727
3368+567318255+567201047+566683908+566549326+567231944+567563838+566213721
3358+563770200+562082224+562121236+563291379+564369559+564618367+564085207
3348+563312151+562836728+562669654+562269931+561362536+560579493+560596831
3338+560952549+560685050+559866706+559464798+559802622+560133303+559609818
3328+558025214+555950762+554617913+555186305+557569973+560124738+560842519
3318+558947381+555402725+552081077+550493352+550953621+552482221+553655832
3308+553954783+554200401+555290649+556821607+557698972+557705838+557562830
3298+557819440+558383081+558748994+558512982+558039986+558295868+559531135
3288+560755340+561056858+560531604+559530026+558181053+557067676+557228265
3278+559009627+561589255+563725328+564513746+563604167+561260828+558458504
3268+556744659+557304555+559743359+562156572+563080231+563002935+562887045
3258+562226932+560076849+556943636+554254220+552651168+551800435+551478875
3248+552071194+553812399+555819751+556487320+555293874+553693353+553362499
3238+554112148+554652868+554747397+555000297+555098503+554028923+551736699
3228+549195770+547247126+546310533+546583754+547685063+548357140+547234226
3218+544387966+541802825+541518160+543273272+544641213+543820649+541488893
3208+539510912+538854787+539169100+539733262+540197276+540408321+539983526
3198+538477813+536101150+533982380+533198123+533579606+534058878+534069177
3188+533800117+533302848+532491890+531831707+531869297+532214820+531864720
3178+530488005+528867823+527941598+527622985+526879127+525006634+522435640
3168+520106589+518566753+517811174+517569544+517630680+517967845+518498855
3158+518900832+518912137+518521604+517592570+515818490+513429690+511371328
3148+510278099+509761271+509163196+508467608+507947903+507518011+506998722
3138+506483039+505947833+504999033+503432357+501746046+500748421+500707814
3128+501019561+500828005+499939439+498884424+498087960+497366712+496393812
3118+495212780+494196533+493769832+494053663+494562688+494526589+493786754
3108+492992302+492587066+492180893+491278942+490042808+488982418+488410766
3098+488428590+488934945+489531807+489844525+489975916+490291547+490737078
3088+490697962+489696315+488015205+486383475+485135550+484060561+483094458
3078+482620665+482879564+483557466+484112854+484103110+483347982+482263248
3068+481648527+481696104+481603135+480564869+478821027+477447052+477369688
3058+478512020+479745726+479952887+479080412+477803741+476541564+475366289
3048+474484901+474175374+474338772+474469921+474096414+473196301+472206270
3038+471508151+470954116+470190284+469286252+468535077+467729216+466424665
3028+464989796+464384300+464680858+464812146+464117078+463132249+462430662
3018+461660415+460313696+458734710+457699426+457423951+457530097+457690410
3008+457800128+457718013+457311112+456652004+455922156+455168554+454250408
2998+453103395+452003923+451307018+450932263+450453303+449656389+448628560
2988+447415660+446030172+444700757+443842395+443790414+444445291+445121702
2978+445103219+444405724+443595182+442992529+442539126+442188367+441901380
2968+441463582+440681926+439627916+438496923+437373247+436322150+435590429
2958+435452795+435755491+435811218+435088998+433939487+433198473+433125166
2948+433187307+432837103+432047402+431138828+430513045+430407627+430586283
2938+430507531+429971042+429286898+428720067+428120673+427222537+426085337
2928+425081990+424427634+423840481+422907945+421729999+420845803+420533675
2918+420514464+420380090+420029262+419584598+419131230+418649634+418037133
2908+417182447+416197375+415480981+415259395+415193994+414860366+414412199
2898+414267838+414369165+414266659+413753473+413007431+412258302+411577140
2888+410910057+410225254+409621110+409259462+409229328+409467490+409729753
2878+409720009+409363702+408829536+408248729+407646597+407129041+406828634
2868+406648694+406284897+405543813+404566544+403724168+403264593+403041654
2858+402649629+401857154+400887791+400193937+399900812+399613790+398959745
2848+398137552+397610391+397423273+397173737+396577187+395800004+395208170
2838+394918686+394691690+394250632+393599258+392953293+392454290+392054047
2828+391605118+390976804+390161650+389363106+388889347+388822039+388852624
2818+388585299+387968116+387301345+386846937+386540010+386115285+385448237
2808+384655345+383890126+383231192+382769536+382530230+382277052+381696731
2798+380812917+379960519+379338239+378839791+378364576+378042044+377990341
2788+378014892+377772083+377183648+376492638+375917276+375405477+374770297
2778+373982780+373192975+372439373+371555697+370484695+369466680+368792419
2768+368546801+368621634+368778409+368733468+368368387+367796389+367129687
2758+366320012+365344858+364429244+363904892+363829296+363879786+363698564
2748+363234307+362671706+362172217+361754358+361316768+360760825+360118987
2738+359498129+358909485+358286269+357672623+357261665+357194357+357360079
2728+357419203+357062584+356282315+355353767+354564516+354000875+353545704
2718+353060294+352602106+352343241+352204013+351817884+351004567+350033366
2708+349312534+348999504+348909933+348690913+348170444+347555030+347152360
2698+346991111+346875463+346662858+346320075+345856235+345340032+344877647
2688+344486594+344061488+343534500+343023811+342708527+342569090+342390503
2678+342038357+341599137+341261209+341140429+341159501+341085813+340807044
2668+340513155+340442865+340506879+340314421+339589427+338509097+337557420
2658+337019162+336750761+336487701+336154420+335777480+335345334+334896300
2648+334513916+334137843+333613630+333002654+332584518+332450110+332346529
2638+332039498+331598510+331210751+330910274+330601509+330242532+329953811
2628+329915146+330085376+330124214+329765341+329162757+328678526+328434296
2618+328225366+327815622+327220771+326670758+326316220+326074000+325801057
2608+325472908+325122531+324758074+324408044+324130662+323916878+323652014
2598+323242235+322765009+322396704+322171060+321968962+321794606+321834519
2588+322127194+322382521+322299192+321928633+321540111+321205962+320775932
2578+320260838+319905849+319804072+319784583+319731354+319660474+319506785
2568+319197119+318854960+318623421+318427218+318157812+317907686+317793356
2558+317701774+317425190+316968423+316538358+316263958+316089706+315942952
2548+315857404+315880187+315954292+315977283+315943473+315906819+315805562
2538+315492983+314961487+314377456+313928491+313757603+313899432+314161279
2528+314263056+314162666+314040845+314004469+314011127+314006515+313973260
2518+313900819+313771959+313560533+313281660+313037499+312927642+312923446
2508+312895080+312749471+312504200+312250953+312085925+312050277+312085127
2498+312059154+311895998+311635365+311350424+311103523+310971195+310986765
2488+311086982+311183558+311205820+311105742+310957498+310942205+311103939
2478+311263072+311209912+310851941+310273250+309750250+309515417+309484346
2468+309441416+309382950+309418633+309502794+309497731+309378928+309244623
2458+309193336+309210016+309136812+308831550+308396457+308136829+308229521
2448+308532911+308781303+308853431+308794029+308703349+308652998+308601710
2438+308413795+308068099+307761623+307694419+307825949+307917081+307793110
2428+307556613+307479595+307643513+307833786+307877237+307890518+308061927
2418+308341077+308489010+308386366+308173552+308049339+308045663+308114879
2408+308300991+308630804+308937489+309004207+308838971+308664857+308670198
2398+308857107+309107996+309332079+309509660+309612651+309566219+309330519
2388+308941615+308396908+307555295+306190127+304073820+301016792+296994737
2378+292308580+287452003+282687545+277878389+272879254+267943336+263531423
2368+259854456+256850762+254460644+252661632+251477254+251254817+252703921
2358+256368352+262127140+269470601+278215710+288144764+297680961+304101839
2348+305452546+302117200+296981213+293296183+291787071+291092177+290313711
2338+289666100+289423083+289220777+288451864+287103186+285910884+285551577
2328+285899440+286266688+286258556+286234334+286883021+288448605+290522363
2318+292463205+293819218+294527844+294964671+295693965+297008781+298731469
2308+300410741+301616949+302173273+302287707+302407343+302814626+303401362
2298+303882992+304142862+304322351+304637426+305125923+305584388+305822620
2288+305930674+306135442+306435017+306560063+306277687+305618198+304840218
2278+304219256+303831600+303573118+303392554+303353473+303443460+303526234
2268+303530187+303500296+303452303+303340053+303150335+302911791+302677062
2258+302557946+302635692+302787647+302789346+302630941+302528921+302608332
2248+302774331+302907110+303004517+303088540+303103486+302994669+302841258
2238+302807552+302944873+303122836+303189762+303138371+303090066+303149121
2228+303288974+303390127+303386936+303318449+303231860+303136880+303065931
2218+303068982+303144058+303260226+303411072+303566980+303648020+303618440
2208+303536637+303457192+303361310+303226381+303094192+303033854+303066347
2198+303138648+303177799+303180157+303209806+303281102+303313802+303242090
2188+303102584+303001188+303037807+303222671+303429728+303509520+303468323
2178+303439576+303505324+303646876+303801778+303870265+303766165+303551306
2168+303432918+303574643+303961431+304428012+304766044+304856065+304756785
2158+304647136+304665342+304817470+305023868+305217019+305376846+305498112
2148+305575823+305624891+305662966+305686928+305713976+305786243+305884553
2138+305942256+305999230+306180522+306460886+306653517+306714237+306835433
2128+307117982+307370258+307399387+307321016+307380626+307607345+307842040
2118+307992295+308092165+308211697+308429781+308779673+309158936+309435868
2108+309645005+309915729+310259310+310601676+310929999+311240047+311457091
2098+311553389+311625448+311770363+312014733+312371664+312798781+313129844
2088+313231968+313178461+313121140+313095097+313064824+313042076+313077863
2078+313227876+313528665+313924712+314261183+314420178+314449619+314567347
2068+315010555+315751049+316386958+316506767+316134370+315639597+315325041
2058+315267061+315413537+315660126+315893364+316053121+316149905+316227963
2048+316336711+316527469+316836685+317219208+317517951+317588137+317453659
2038+317278783+317215567+317303438+317436772+317433685+317233425+316998800
2028+316958436+317201904+317637656+318094180+318515818+319055949+319805147
2018+320446396+320481385+319862121+319099018+318699815+318771007+319116564
2008+319463127+319603361+319519477+319385658+319385450+319547392+319742555
1998+319873287+320177059+321142850+322766570+324123692+324263406+323340198
1988+322238334+321511190+321201801+321182104+321274519+321340613+321392560
1978+321476409+321561784+321622295+321656972+321730869+322125633+323088685
1968+324231746+324702175+324275994+323679513+323551555+323763397+323951694
1958+324099487+324309145+324475109+324465955+324362444+324367264+324636531
1948+325317450+326662054+328756654+330874591+331599550+330355961+328249606
1938+326663823+325938448+325749735+325881577+326269648+326773472+327200797
1928+327585609+328400382+330027118+331906061+333068229+333606660+334243782
1918+334615485+333740444+332013213+330902888+331083382+331979923+332602446
1908+332426807+331736768+331203295+331132623+331307327+331496282+331832823
1898+332593361+333642793+334376318+334635321+335195910+336501190+337576943
1888+337344329+336290978+335536058+335355633+335489487+335824224+336256058
1878+336582473+336775555+337101867+338184971+340895470+345376546+349748321
1868+350902270+348113366+344074942+341499267+340912392+341275947+341451760
1858+341103602+340651239+340566350+340873242+341519241+342824591+345146221
1848+348538992+352758707+356530152+357300087+354289597+350279019+348057432
1838+347943795+348698750+349491606+350895369+353820034+357588497+359977019
1828+360159143+359560652+358829867+357147265+354709155+353089666+353067160
1818+353891989+354588340+355216238+356530048+358613412+360365299+360696014
1808+359865428+359176568+359955970+362786799+366734507+369509471+369656086
1798+368393424+368253606+370761314+375314311+378719357+377640657+373358246
1788+370107755+369887694+371554691+373311605+374757189+376026092+376759339
1778+377208720+378880779+383090611+389175052+393984763+394669011+391995200
1768+388153812+384614738+383065921+384657183+387947102+390010943+390358234
1758+390473813+390562413+390717315+392889106+398520352+405426362+409054521
1748+408020728+405130913+403053166+402619287+403642469+405183067+405971590
1738+406641447+409995033+416924380+422544009+421149609+415292026+409653463
1728+405635430+403633557+403767688+405305304+408049336+413502446+422863385
1718+433499539+438591626+435195803+428087869+422214750+419510111+420449479
1708+424738305+430627479+435539315+439446763+445114315+453171882+459379183
1698+460564099+458031667+452448033+445543375+441461224+441989356+445661069
1688+451252020+459918689+471287952+478011422+474341962+466524361+461532526
1678+461380779+465182948+470034549+473505759+476647884+480756113+483123656
1668+480748137+476758123+476006774+478877690+481705502+481653590+480604470
1658+482440656+489794243+503362552+518397009+522678172+517125920+514612422
1648+517780936+520158015+515892283+508825233+504993589+505929627+511175368
1638+520003771+529341373+532329220+526949001+520436680+518197997+520046563
1628+523374418+526641901+530193458+533360516+534082666+533192020+534357551
1618+538741913+542422643+541175100+537427791+535633321+536748571+539102243
1608+540812586+541544862+542231919+543441317+544680745+545384794+545955891
1598+547271816+549536819+552098277+554230882+555728655+556722361+557349635
1588+557784902+558278461+558968430+559798669+560854031+562902268+567233158
1578+574057885+580158242+580794012+577851141+577503399+581369617+585574386
1568+586129635+584374490+583575252+585535478+592184809+605656854+622486405
1558+628642627+621089681+612273103+607415815+605838007+606101900+607129729
1548+609398928+614987347+624985859+637969791+651525547+661873673+662254358
1538+653962444+647617093+647911363+651960467+654644334+655417564+657989077
1528+663996674+671666758+679289127+687510300+696322232+702944029+706092014
1518+707686674+708304134+707472509+706976002+709717226+717157193+729032776
1508+742053742+746779188+738010880+726727513+721853163+723550329+728913903
1498+734196470+736129371+734944871+734733410+738746520+745980297+751560464
1488+751923533+749235366+747301563+747419465+748894698+750753043+753129463
1478+757133140+763251703+770607267+777271647+780386966+778628214+775156969
1468+774085794+776367754+779691483+781508146+782891414+787241654+796284258
1458+807138115+811408042+805756927+797723079+793027109+792002609+792796229
1448+793263260+792353611+790767828+789710593+789681880+791118344+794854036
1438+800389539+804088196+802784407+799119872+797051592+796781943+796534834
1428+796121206+796919958+799063210+801268048+803328491+806287486+809301271
1418+809108258+805040498+800194376+796862325+795189364+794514201+794622948
1408+796065445+798980748+801869765+803043514+803260177+804674794+807934370
1398+811806621+814673722+815317190+813364662+810436044+809261947+811017856
1388+814089552+815568529+815065920+815408807+818638630+823863148+829089192
1378+833669757+838261072+842909882+846402835+848123858+849089753+850069728
1368+850769581+851547942+853629608+856814281+858905240+858489670+856748256
1358+855594411+855786036+856756787+857405248+857105083+855905534+854182430
1348+852658927+852177470+852956872+854632399+856964294+859555782+861156684
1338+860622726+858414282+855983418+854394237+854161068+855298615+857011941
1328+858225708+858820975+859620628+860995436+862371908+863315402+864242597
1318+865646603+867263249+868549144+869523570+870651824+872200017+874084300
1308+876139541+878229598+880151332+881572746+882303808+882599604+882857601
1298+883064346+882812521+881875546+880575641+879508766+878818762+877766035
1288+875555163+872503233+869583978+867133972+864901947+863018705+861897664
1278+861378409+860866229+860195851+859727572+859658010+859853103+860498860
1268+862087278+864406481+866387652+867332048+867599547+867819400+868172828
1258+868607402+869195456+870145677+871488859+872913740+874305123+876056732
1248+878229737+879976560+880637783+880846747+881806955+883962136+886741226
1238+889228544+890901436+891856234+892434648+892879555+893395273+894193192
1228+895384003+896969647+899060953+902105878+906430734+911229903+914786315
1218+916310789+916687243+916968128+917399233+918082649+919278731+920928805
1208+922810106+925139296+928412327+932608046+936766452+939665248+941108716
1198+942197507+944056546+946563837+948605624+949495368+950083908+952152742
1188+956199904+960374401+962490674+962640617+962842299+964483982+967052860
1178+968861270+968643775+967068881+966712331+969578045+974621479+978761437
1168+980436479+980794069+981470272+982788279+983883450+983733853+982492275
1158+981763086+982940234+986002844+990137601+994129141+996284252+995973615
1148+994989063+995318981+996255539+995758062+993966297+993045759+994011169
1138+996144087+998919641+1002309048+1005330947+1006491104+1006009508+1005457033
1128+1005349604+1004962885+1004153799+1004107332+1005854571+1009218248
1120+1013735354+1019185065+1024717377+1028651354+1030589456+1032164905
1111+1033831208+1033666908+1031177995+1029298220+1030459347+1033512317
1103+1036149995+1037377425+1036687420+1034014650+1031001142+1029768094
1094+1030491319+1032559530+1036751365+1043590240+1051226827+1057156538
1085+1060065529+1058772976+1052820516+1044347934+1036920658+1032896522
1077+1032533175+1035228417+1040197781+1045827952+1050143376+1052373182
1068+1052967616+1051962397+1049072894+1045612399+1044498294+1047503618
1060+1053196832+1057979564+1059823275+1060801932+1063964273+1068788341
1051+1072270821+1073479942+1073741823+1073197046+1071000461+1067869745
1043+1065513923+1064747212+1065255717+1065509068+1063305409+1058314198
1034+1053085657+1050172852+1049312097+1048624936+1047601893+1047729435
1025+1050190676+1053717473+1055645519+1055001566+1053749168+1054296789
1017+1056837856+1059670973+1061262721+1061134901+1059216010+1055742754
1008+1051766194+1049091343+1049601165+1053838774+1060082382+1065519124
1000+1068296620+1067976134+1064978300+1061181299+1059108372+1058978472
991+1058568450+1056490114+1053281513+1049536943+1045663028+1042855710
983+1042237487+1043309078+1043930977+1042085116+1037900771+1033433739
974+1030489308+1029302797+1029197171+1029505797+1029288718+1027532532
965+1024600100+1022339085+1021731611+1021285734+1019053362+1015495632
957+1012532475+1010369527+1007119314+1001773703+996128482+992660428+991471004
947+990247249+987144344+982817824+979458655+978761923+980209622+981049431
937+979178949+975621775+972927504+972238679+972759944+972942068+971907512
927+970458843+970074759+970667183+970880169+970490468+970278106+969695323
917+967304061+963613795+961105879+961302706+963188030+964769929+965199786
907+964832070+964081381+962772737+960785255+958874825+958188704+959058198
897+960670612+961966426+962398155+962095078+961688940+961654887+961536499
887+960540920+958846321+957551686+957467837+958159853+958251817+957081881
877+955440060+953978976+952438482+951367584+952227922+954264369+954053324
867+950335317+946269221+945305822+947251831+948967791+948019581+945219546
857+943162848+943069012+944069931+944640785+943940655+942364443+941113571
847+940861261+941222527+941978071+943620793+945837006+946877665+945510001
837+942669532+940367736+939556085+939576406+939383670+938813371+938644216
827+939787450+942593381+946476382+949812941+950842712+949276279+946719607
817+945412281+946813928+950814138+955487152+958303208+958554478+957962818
807+958445315+960273421+962680843+964552365+964216968+960568939+955098075
797+951121793+950329976+951310159+951861940+951913748+953078967+955646042
787+957366511+956140468+953244446+951812005+952372110+952636488+951887671
777+951959036+953308391+953995691+953071824+951856600+951944056+954086614
767+957788253+960548618+959461284+954966441+950991060+950816426+954585062
757+960022082+964156907+965161641+963564345+961395363+960304145+960504787
747+960564362+958609684+954812613+952111615+953321083+958260833+964542309
737+969701981+972458393+973403204+973866074+973473113+970480759+964890883
727+959255926+955657971+954061854+953555777+953159973+952379947+952481759
717+955228045+959859307+963300800+963615113+961864475+959858753+957780902
707+954993628+951774693+948797319+945797543+942420342+940087130+940863411
697+943890442+945348406+943201062+939227485+935218606+931202445+928060979
687+927876358+930505297+932330005+929536350+921872785+912881989+906727917
677+904978388+906696638+910553423+914805457+916178115+912266887+906634566
667+906812321+912162023+915726619+914684503+911369444+908983799+907704354
657+905587803+902216636+899313887+897833453+896648399+894562711+892332836
647+891446629+892495749+895831962+901303311+906389052+906290708+897659305
637+883107346+871054771+869626422+879259438+890389879+892126369+884592842
627+876252033+872399132+871806501+870712508+867074467+862813139+862228553
617+866822364+871873289+871845131+867786873+864290521+864204314+867118645
607+870252274+871017043+867775707+860140229+850461509+842151563
##END=
