##TITLE=<SNM>
##JCAMP-DX=4.24
##DATA TYPE=INFRARED SPECTRUM
##DATE=3/5/2025
##SAMPLING PROCEDURE=Instrument type and / or accessory
##ORIGIN=Admin
##XUNITS=1/CM
##YUNITS=ABSORBANCE
##RESOLUTION=4
##FIRSTX=4497.3318
##LASTX=599.83466
##DELTAX=-1.4281778
##MAXY=1.7149774
##MINY=0.1846991
##XFACTOR=1
##YFACTOR=1.5971972e-09
##NPOINTS=2730
##FIRSTY=0.20372988
##XYDATA=(X++(Y..Y))
4497+127554624+127569654+128215223+128696564+128374684+127349252+126349123
4487+125970454+126128628+126585235+127550790+129080326+130367191+130480172
4477+129517575+128360055+127569654+127162866+127137611+127493879+127857555
4467+127800160+127556154+127764512+128526644+129348131+129897764+130196208
4457+130142553+129423850+127977776+126285448+125133489+125028793+125734285
4447+126439675+126507054+125997790+125377700+124888112+124473665+124206410
4437+124321695+124747637+125008361+124726123+124008306+123314260+122970130
4427+122810940+122516293+122274993+122528067+122983714+122749029+121621755
4417+120390840+119726976+119538873+119528639+119727172+120288159+121111204
4407+121812470+122038461+121796927+121375119+120963050+120525876+120000537
4397+119473902+119213001+119522322+120406868+121433503+122104952+122249915
4387+121912614+121116335+119946575+118648823+117442463+116422004+115740180
4377+115639514+116118821+116783208+117227528+117406451+117526998+117760144
4367+118162006+118682269+119136834+119283840+118954711+118150615+117162585
4357+116509431+116471572+116773281+116994812+117093071+117193709+117185424
4347+117009543+117040918+117566658+118182102+118365363+118305532+118458201
4337+118697421+118613445+118232845+117864327+117615237+117438423+117391645
4327+117613483+118081828+118455421+118351340+117948126+117953527+118692952
4317+119684890+120378907+120776646+121067840+121189442+121014820+120583197
4307+119994893+119417197+119232397+119764835+120755393+121490834+121566375
4297+121182435+120711553+120364092+120281190+120610141+121351217+122239709
4287+122863642+122948915+122546176+121887443+121104198+120241343+119572208
4277+119606979+120519747+121776813+122645750+122900951+122788530+122610568
4267+122609729+122908284+123288278+123335560+123013373+122831483+123255988
4257+124114150+124778742+124856616+124499946+124148604+124199860+124776409
4247+125587606+126162550+126363490+126439032+126558730+126634113+126604314
4237+126562005+126516113+126287743+125740741+124991502+124383429+124296020
4227+124887291+125901285+126734135+126847088+126281035+125704123+125765045
4217+126408225+127009264+127080887+126675993+126257217+126322253+126936223
4207+127585244+127795859+127748120+127858302+128073721+128099107+128027913
4197+128231121+128736783+129126134+129083862+128816393+128778244+129124567
4187+129674741+130307155+131004372+131504941+131377397+130623726+129856686
4177+129667193+130079420+130750394+131427226+132086798+132776086+133358157
4167+133510491+133132177+132540346+132032799+131608872+131317557+131406990
4157+131986533+132896913+133837557+134375547+134161639+133395112+132725538
4147+132576311+132809709+132992867+132836439+132462034+132254796+132398704
4137+132711096+132993632+133286973+133654408+133985011+134182611+134336521
4127+134532200+134641552+134456136+133995040+133587226+133580994+133966100
4117+134402696+134681174+134921261+135208155+135378252+135383877+135526387
4107+136068267+136870768+137626902+138218826+138655748+138899240+138951187
4097+138932006+138913067+138795533+138463372+137944639+137391946+137012904
4087+136947513+137167812+137626043+138373258+139290411+139931427+139964024
4077+139589675+139243912+139114287+139216436+139599229+140102307+140240301
4067+139779625+139121527+138691536+138349020+137821787+137308465+137240993
4057+137742402+138560474+139333149+139851183+140162408+140406647+140615116
4047+140788487+140998692+141233984+141342412+141303330+141338540+141567199
4037+141697047+141328707+140601112+140253931+140828800+141959311+142748956
4027+142843708+142802051+143287562+144261914+145238794+145982800+146536799
4017+146758479+146328637+145308561+144302824+143831177+143779062+143751064
4007+143703959+143835170+144135955+144470486+144830915+145216096+145470037
3997+145411298+145016387+144477408+144102826+144082786+144429165+145171976
3987+146309372+147500077+148224023+148316069+147983414+147421242+146833087
3977+146592869+146911857+147528149+148067081+148463980+148737215+148685912
3967+148235182+147805368+147893048+148456563+149062294+149425579+149486715
3957+149197965+148626893+148170444+148359498+149371224+150732157+151603315
3947+151640250+151436483+151714486+152347394+152561695+151962475+150935485
3937+150118392+150002547+150872725+152533155+154008823+154257288+153506313
3927+152993411+153320226+153864774+153996806+154148216+155000276+156210433
3917+156567168+155363066+153296622+151750871+151432014+152012472+153086884
3907+155020680+158271195+162079450+164689491+165176364+163938330+161521057
3897+158573771+156450306+156468974+158484021+160372998+160183439+159147633
3887+159747525+161876812+163384545+163819975+164347618+164335825+162535629
3878+160500160+160665144+163124213+166345806+169138874+170424116+169430237
3868+167634294+167107808+167449028+166806090+164978726+163553597+163757019
3858+166194201+171437997+178660390+182761500+179136702+171862847+166163824
3848+163624259+164001360+166333585+169503343+172951869+176566163+179438662
3838+179819607+177574223+174821141+173054046+172065205+171366141+171098569
3828+171355486+172042087+173940001+178006331+182606835+183916818+181849087
3818+179898144+178864129+177062104+174504682+172908729+173379928+175852413
3808+178915479+180998622+182972330+186492917+190029104+190329815+188125331
3798+186266545+184796559+182666693+180626559+180093020+181136103+182896481
3788+184873192+186976898+189025634+191215601+194356401+198451167+201906317
3778+203611893+204742264+207126323+211598042+218043822+225437786+232147742
3768+237353007+241396760+244941212+249141888+255436418+264007027+273182322
3758+281328939+289049307+298229491+309974914+323509563+335907030+345296607
3748+354057184+364924229+376483192+384005026+387557950+392425895+401749904
3738+415397832+431154803+445386239+454850154+459319130+461568713+464665682
3728+469670846+475257989+479444391+481947104+483882840+486095889+489135761
3718+493675604+500519290+510643702+523970916+537173749+545713776+549646973
3708+552013138+554718079+559208885+566014097+572926636+577282798+579905340
3698+583410982+589105415+596784732+605567962+614263382+620606070+621430207
3688+616748032+610937689+607562251+607457983+610231776+615159468+621797121
3678+629124713+633045297+630076031+625364897+625314070+628447461+629086276
3668+626204708+623641203+624063012+627872387+633538271+638614005+642031239
3658+644258245+646031460+648768979+654601677+664205908+674806389+680797913
3648+679635448+675048435+670827813+667483797+664199714+660834501+658521663
3638+658932985+662666828+668601180+675242490+681997621+687951304+690437373
3628+689001440+688545261+692006382+697629202+702388849+704585552+705303630
3618+707878442+713509994+718666111+719491890+717428115+716833187+718670216
3608+720475973+720556655+719527118+718507359+717802641+716808034+714624542
3598+711258209+708298497+708249461+712157132+717486779+720309757+720321401
3588+721107398+724231983+726724918+726165069+723701018+721467146+720577329
3578+721316306+722893749+724298260+725284657+725926158+726365692+726550791
3568+726527952+726755967+726830529+725973328+724583073+723684524+723446508
3558+723054516+722543405+723318506+726194551+729972802+732534105+733041484
3548+732498429+732144428+731809011+730348747+727670265+725251593+724472760
3538+725543048+727744006+730017286+731516809+732039190+732239291+732277281
3528+731324620+729684929+728627404+728157865+726813661+723827154+720612334
3518+719436808+721030896+724120252+727360001+730859335+735035773+738677664
3508+739378128+736301907+731366565+727122432+724772053+724328264+725291075
3498+726413236+726397861+725772183+726461824+729332421+733198445+735503147
3488+734280974+730462120+727153183+726106405+726199775+726123572+726905763
3478+729872043+733729559+735347679+732776525+726976219+721155837+718633943
3468+720354390+724134507+726948082+727178783+725057911+722529150+721805698
3458+722972416+724033524+723936422+723942094+725672543+729366231+733919509
3448+737764112+739640923+739028157+736685614+734760140+735328199+738161850
3438+740320638+739029799+734516974+729528491+727126687+728292808+730608258
3428+730533248+727864842+725920485+726787911+728756003+729184342+728187048
3418+727975678+729437882+730786117+729869879+727221401+725823756+727627199
3408+731207142+733649996+734119311+733924509+733827034+733631785+733503186
3398+733209267+731230578+727422919+725008949+726624308+730132599+731637645
3388+730879935+730325460+731194901+732762120+733702764+732988716+730944794
3378+729233602+728654721+728245339+727326937+727032943+729041189+733388619
3368+737996381+740769726+741660513+741821057+741793143+741413466+740713450
3358+740487451+741872556+744884663+747434024+746829244+742476664+736495067
3348+731839239+730014972+730265602+731030029+732012470+734130805+737962869
3338+742567422+745097676+742823052+736903702+731914323+730750217+731872452
3328+732281759+731667127+731172212+730929867+730699240+730825301+731451950
3318+731754078+731448442+732166147+735838638+742142591+748305630+751725924
3308+752283161+751505970+750003163+747336026+743825048+740706136+738683933
3298+737430039+736567390+736205776+736827573+739064281+742760880+746288801
3288+747780487+746886938+744667098+742354484+740650905+739568600+738455918
3278+736445508+733477586+730843587+730342403+732488950+735640478+737588268
3268+738011159+738379938+739572630+740819434+741086782+740641053+740670758
3258+741647228+742674302+742549360+741197020+739690631+738897319+738472562
3248+737469149+735873494+735046968+735939696+737348685+737262107+735564349
3238+734049973+734287168+736071654+737120073+734936581+730315459+727452923
3228+729258083+734324860+739181236+741773961+742012350+740763009+739332674
3218+738609595+738314482+737605808+736106210+734145807+732205704+730372929
3208+728508956+726921287+726336286+726973234+728185033+729311970+730345836
3198+731565024+732813544+733470495+733538713+734000116+734997111+734785367
3188+732036578+728107336+725432437+724730256+725187331+726188281+727227073
3178+727057573+724990141+722788736+723147887+725823085+726984056+723725723
3168+717898026+713775775+713644340+716566286+719912318+721810325+722449438
3158+722722757+722296732+720491124+718231876+717136211+717280260+717208086
3148+715723192+713085163+710651563+709443645+709208466+709118006+708779753
3138+707851872+705523137+701589342+697552774+695835312+697552027+701170407
3128+703886506+704157437+702403254+699884793+697668087+696146546+694985426
3118+693859683+693117497+693024425+693076297+692803277+692357099+692080347
3108+692256042+693169444+694537382+694991844+693296699+690013512+687086714
3098+685997393+686935948+689057044+690884968+691343684+690806674+690290189
3088+689845953+688833209+687262558+685761915+684570119+683424970+682321916
3078+681728033+681867230+682113456+681585477+680325612+679246368+679022682
3068+679714264+681038690+682206080+681984485+679769943+676399133+673668554
3058+672862256+673499503+673897465+673185357+671980201+670867967+669466218
3048+667463122+665644752+665210964+666435228+668370479+669697591+669677290
3038+668432352+666791244+665767753+665585267+665386285+664390261+662941565
3028+661778802+660857116+659733164+658636081+658370524+659219515+660456392
3018+660940708+659961626+657579899+654567717+652023208+650613174+650184910
3008+650187149+650286191+650447182+650376427+649288823+646861792+644068519
2998+642270972+641767548+641923688+642222682+642333144+641825019+640665241
2988+639484789+638856648+638635351+638219700+637236960+636006651+635171021
2978+634718275+633775989+631756921+629223159+627219839+626424064+627047578
2968+628557028+629444979+628459478+625983448+623333141+621443978+620903609
2958+622069096+624290131+625942808+625792676+623732148+620411493+616880624
2948+614153181+612567676+611745331+611140551+610395268+609369761+608261035
2938+607581395+607583335+607674317+606936946+605582591+605136190+606468340
2928+608298615+608457441+606316305+603179518+600504058+598552499+596771820
2918+594903742+593293981+592315832+591988140+591904398+591420081+590376587
2908+589504571+589491846+589834763+589441279+588237616+587199533+586722979
2898+585798941+583343174+579923887+577318176+576524901+576960592+577535667
2888+577796223+577807456+577582576+577102551+576559085+576120856+575565561
2878+574455566+572751277+571061394+570047606+569614676+569094049+568358095
2868+568054287+568332308+568253119+567136108+565639907+564749306+564362614
2858+563515601+561690178+559494370+557927226+557131974+556322690+555027671
2848+553722427+552951954+552539885+551936449+550808168+549172769+547317827
2838+545612307+544301167+543546032+543456020+543750349+543654553+542626360
2828+541015852+539598878+538675399+537939595+536975440+535670980+534345845
2818+533440056+532826207+531784916+530155040+528904243+528822404+529286942
2808+529034521+527627398+525602359+523702561+522417095+521823697+521552692
2798+521106925+520315181+519427118+518763823+518243494+517419021+516210543
2788+515178618+514603693+513886697+512449234+510619557+509068273+507979438
2778+507224564+506733418+506298809+505478255+504072998+502430956+500948563
2768+499561069+498111665+496888819+496211231+495732587+494781643+493231554
2758+491574921+490329722+489637057+489190619+488418914+486985220+485166178
2748+483574890+482563341+482004611+481566010+481054264+480483966+479909041
2738+479264965+478394777+477198465+475687597+473951812+472209571+470757256
2728+469668645+468745764+467917932+467316884+466803534+465935847+464584888
2718+463094508+461794152+460772303+460025042+459487920+458998454+458344861
2708+457351076+456041951+454731818+453733703+453004989+452225149+451151652
2698+449819427+448422230+447063733+445763714+444698053+444096221+443813759
2688+443417849+442775789+442139512+441657397+441186776+440521653+439548019
2678+438294199+436989851+435936916+435181445+434412576+433331764+432055815
2668+430972428+430273345+429875569+429682447+429580568+429276350+428479679
2658+427214664+425762983+424414861+423387750+422799278+422585407+422540252
2648+422454121+422119600+421319534+420062505+418757111+417846359+417299236
2638+416725318+415949546+415205830+414765810+414601199+414423639+413920476
2628+412964046+411709331+410495181+409550058+408792684+408027137+407315626
2618+406937368+406962446+407105935+407009355+406490557+405600777+404600908
2608+403795207+403268945+402835717+402285459+401648921+401132809+400785936
2598+400392153+399787597+399079259+398420965+397820178+397243722+396661371
2588+396024086+395391728+394908046+394553821+394199148+393883174+393691209
2578+393423749+392782434+391854888+391104791+390861774+390992426+391103522
2568+390984514+390754484+390571364+390364546+389993826+389541752+389222718
2558+389076282+388990151+388959550+389044076+389110614+388944175+388611482
2548+388376265+388263116+388018532+387493203+386806920+386167658+385709576
2538+385453386+385344529+385384273+385656771+386130713+386589205+386861181
2528+386926413+386753704+386318498+385797311+385442750+385273213+385112185
2518+384890477+384753071+384876669+385234813+385528694+385381660+384662649
2508+383605012+382602307+381914904+381549820+381376402+381300160+381277956
2498+381237615+381097895+380861671+380605518+380374816+380143854+379894008
2488+379696967+379663567+379783060+379862698+379710290+379376776+379111145
2478+379046099+379051883+378940339+378660713+378264804+377855348+377575087
2468+377488509+377485598+377416858+377259113+377064088+376858912+376677098
2458+376587982+376619068+376690793+376677359+376530511+376322835+376153709
2448+376033805+375895690+375697157+375442124+375129658+374787300+374487933
2438+374205956+373803441+373323341+373051105+373084243+373126525+372890263
2428+372425203+371970778+371742390+371830536+372078217+372144681+371846769
2418+371353160+371001846+371002966+371283487+371547551+371513181+371156866
2408+370758195+370654450+370871307+371073049+370986098+370731736+370606422
2398+370725542+371008190+371312148+371481349+371439366+371316626+371337935
2388+371496761+371426155+370675050+369059766+366700952+363826213+360603817
2378+357072016+353218493+349214541+345438566+342095557+338994222+335884826
2368+332845476+330266149+328558576+327777020+327609647+328029105+329664056
2358+333107823+338196656+344419030+351626831+359625892+367327451+373092005
2348+375802693+375513066+373479145+371179705+368909709+366007355+362084495
2338+357370562+352473509+348077826+344593456+342069696+340380111+339345387
2328+338790277+338577451+338568122+338671120+338968771+339640910+340768818
2318+342274498+343927437+345420989+346609501+347619744+348620956+349620414
2308+350540608+351333361+351988110+352522209+352946480+353247639+353462443
2298+353710050+354087897+354593149+355136317+355568500+355772108+355805322
2288+355873017+356123534+356551724+357062462+357503564+357677803+357478039
2278+357017904+356527281+356130998+355828086+355633881+355555065+355440647
2268+355091124+354561018+354147345+354026770+354087487+354163355+354235640
2258+354323861+354359500+354283333+354150181+354062148+354086554+354251650
2248+354506198+354699021+354744624+354784517+355027385+355445573+355793305
2238+355938510+355996802+356094762+356213957+356346511+356587401+356965584
2228+357346865+357566072+357557974+357387393+357245882+357341118+357703441
2218+358167456+358570457+358886132+359153069+359377763+359569206+359796138
2208+360118083+360483205+360790894+361037568+361305438+361631264+361973137
2198+362297619+362632738+363021258+363461651+363930145+364426739+364943112
2188+365444707+365940630+366476483+367018083+367494786+367966079+368547834
2178+369181125+369670143+369943015+370144832+370507230+371194185+372222490
2168+373472838+374772149+376009847+377236312+378622574+380271781+382178259
2158+384414221+387143680+390354544+393770212+397071834+400072336+402723911
2148+405066864+407149448+409050478+411001105+413248822+415741272+418205099
2138+420542642+422920376+425515489+428326152+431177753+433905458+436572707
2128+439382624+442365847+445317574+447981613+450131557+451568721+452167754
2118+451881187+450707228+448714470+446097787+443175355+440247326+437395687
2108+434482884+431372443+428066603+424681052+421388647+418292648+415293378
2098+412194543+408935090+405645522+402567286+399932579+397779090+395879888
2088+393944637+391875525+389828096+388064023+386695711+385563363+384418811
2078+383173538+381926324+380854617+380091683+379605612+379237617+378915448
2068+378694971+378556148+378355711+378044327+377745371+377541426+377347670
2058+377069350+376737516+376403667+376049815+375690738+375421562+375284753
2048+375217841+375180224+375221871+375383161+375621252+375899012+376284174
2038+376873093+377654911+378529838+379414617+380272154+381098530+381881243
2028+382482553+382646940+382268868+381565344+380881113+380408440+380091533
2018+379665694+378846372+377634274+376363438+375340730+374537790+373719064
2008+372787376+371894201+371225868+370776332+370377885+369912675+369404811
1998+368936018+368611200+368553655+368709011+368707519+368207864+367340625
1988+366531788+366011945+365717578+365505872+365288194+365033497+364725920
1978+364339452+363897193+363501544+363224270+363078243+363150267+363509307
1968+363894170+363822780+363190870+362442452+361997954+361833716+361719410
1958+361589953+361515615+361465161+361283756+360901692+360464546+360195294
1948+360229702+360676140+361572712+362499661+362601204+361559613+360158872
1938+359347125+359267972+359458520+359524237+359415380+359277414+359212592
1928+359265211+359598015+360320236+361094478+361494717+361751541+362280528
1918+362634790+362000379+360608594+359513713+359275847+359590962+359836740
1908+359690303+359325629+359078209+359031748+359057124+359086307+359183036
1898+359441614+359811588+360026952+359997731+360113306+360617588+361005511
1888+360728125+360060016+359537373+359216846+358951327+358745815+358605125
1878+358469399+358358041+358423161+359038204+360726259+363474489+365989890
1868+366420543+364514362+361902008+360035908+359188223+359022418+359218824
1858+359566257+359898502+360097894+360136406+360181375+360548363+361482849
1848+363151685+365550355+367840018+368379677+366775477+364674458+363514009
1838+363325962+363498484+363845096+364943112+367299649+370127180+371654244
1828+371385403+370516709+369681637+368501186+367104960+366267314+366234175
1818+366538431+366816825+367332527+368570822+370414121+371952268+372415686
1808+372084599+371866846+372441100+374007647+376230099+378225097+379212203
1798+379482350+380287939+382652911+386205685+388828563+388651749+386807517
1788+385813060+386551775+388234717+390013642+391778573+393465620+394775491
1778+395999270+398259041+402483731+408093638+412512159+413496914+411983023
1768+410108862+409004987+409451053+411873046+415210756+417579794+418779689
1758+419975964+421422681+422970979+425522803+429943936+435135991+438564011
1748+439353441+439035340+439205250+440417161+442514859+444812284+446564079
1738+448394615+452154879+458167077+463024984+463236578+460744016+458667291
1728+457919508+458656656+460761220+463649841+467335804+472979335+481207493
1718+489921609+494803287+494499778+492097600+490499221+490890839+493697883
1708+498860418+505250763+511027707+516075675+522365521+530339019+536725072
1698+539213790+539382879+538416336+537273464+538078531+541795394+547483408
1688+554488347+563879715+575472489+583865966+584913714+583284883+584040168
1678+588293071+595013980+601988169+607543592+612639887+618701570+624432201
1668+627652209+629725239+633586039+639534423+645226579+648951690+651970813
1658+656719190+665024074+677766176+692247085+699919350+700006152+701120550
1648+705817503+710269200+710713288+709311912+709769733+713033365+718764333
1638+726328225+733260692+734899039+730667519+725871375+723941273+724584267
1628+726148425+727614063+728802277+728693905+725918694+721834358+719419418
1618+719093555+717800327+713153754+707210669+702602086+699564453+697024571
1608+694121731+690953111+688112817+685792367+683651940+681487181+679691874
1598+678834523+678881470+679070823+678658680+677585481+676205302+674705853
1588+673165952+671903325+671251898+671087324+671178007+672035133+674629948
1578+678790637+681917983+681296634+679135980+679668139+683552673+687950259
1568+690446030+692312019+695667305+701178244+709657181+722653270+738496819
1558+748261519+749183654+749418834+753039378+759423714+767157778+775191582
1548+783099772+791538256+801483726+812684657+823363282+830100052+829088353
1538+823241699+819668996+820486192+823212367+824497160+824353336+825561701
1528+829545577+835412905+841699915+847815560+853054523+856263970+858098686
1518+860138503+861869026+862132866+861978219+863816890+869281480+878596943
1508+889279598+893785705+887463318+878445505+874041874+874848024+878814135
1498+882822865+884135125+883099393+882771440+885208174+889689577+893283401
1488+893702560+891885459+890080971+889390732+889777946+891002284+893290641
1478+897068296+902064392+907086014+910411371+910404504+907700870+905694117
1468+906609609+909274805+910516832+909073884+907547790+908752648+912990213
1458+918043331+920076655+918167228+915319097+913281295+911933583+910835082
1448+909559171+908024195+906994509+907247229+908522693+910185371+912184810
1438+914090281+913965414+911043766+908379092+908892666+912013519+914874711
1428+915876632+916166222+916830413+917440567+917882340+919064807+920829738
1418+921111416+918959346+915949403+913661046+912462532+911999487+911897907
1408+912079796+912284897+911655487+909725088+907433372+906104394+906172015
1398+907087357+907665417+906767540+904420369+902075065+900939768+900495830
1388+898929806+895262614+891321729+890073059+892255731+895954718+898976304
1378+901070755+903535329+907022125+910511011+912757869+913947203+915053764
1368+916659794+919020996+922139012+925221054+926876194+926428076+924667027
1358+923206912+923461870+925637675+928387510+930142141+930721096+931106594
1348+932040372+933407490+934926045+936924887+939832727+942977538+944700896
1338+944195830+942578605+941515781+941584596+942262594+942831101+942955968
1328+942681455+942277895+942182360+942854238+944519230+947056649+949928216
1318+952159774+952904125+952340544+951510063+950993429+950410965+949496667
1308+948846061+949059148+949794019+950282292+950245795+949792975+949044445
1298+948403391+948530273+949377398+949694380+948165375+944834421+941019672
1288+937933600+935810190+934275961+932958551+931660994+930146320+928031941
1278+925150373+921911147+919004277+916679647+914578927+912298332+909805471
1268+907353362+905214204+903454423+901984232+900912003+900424328+899905082
1258+897984011+894334508+890565138+888454939+888091534+888284096+888097952
1248+887357259+886148893+884723111+883858596+884554209+886902946+889654721
1238+891407636+891880309+891579747+890985342+890703589+891583181+893841608
1228+896557185+898650591+900014648+901195473+902355848+903166102+903616160
1218+904332597+905890038+908144435+910371963+912043000+913273906+914471002
1208+915841553+917201655+918097294+918528693+919639285+922784245+927482467
1198+931284080+932581636+932697920+933907107+936377427+938459936+939499474
1188+940866070+943747190+947075607+948828297+949002200+949715502+952245830
1178+955405046+957357464+958026655+958763393+960305906+962108603+963313983
1168+963697018+963836215+964782233+967341521+971317410+975495191+978569993
1158+980161319+980815508+981070019+981008444+980955825+982029248+985180030
1148+989538581+992543299+992820798+992304462+993980277+998227246+1002538701
1138+1004650915+1004770483+1004531348+1005017456+1005855475+1006017361
1130+1005671197+1006196862+1007939029+1009623576+1010337176+1010421067
1121+1010441070+1010888815+1012682630+1016384453+1021057299+1024757182
1113+1026285813+1026135719+1025676779+1025579751+1025149770+1023712643
1104+1022218419+1022151694+1023525305+1025144396+1026621379+1028778599
1095+1031758837+1034459113+1035831604+1035836232+1035395503+1036150526
1087+1039361988+1044192839+1048597067+1051690901+1054071509+1056106848
1078+1056789474+1055316894+1052949796+1051216810+1050063153+1049495542
1070+1050746152+1054210482+1057747359+1058622547+1056568101+1053948881
1061+1053545620+1056336579+1060865973+1064558989+1065571658+1063786277
1053+1060937698+1059567371+1060994273+1064630193+1069109580+1072779235
1044+1073741823+1071059087+1066569250+1063562367+1063098203+1063161047
1035+1061985446+1060975091+1062769877+1067207990+1071114542+1072032646
1027+1070569098+1068581079+1067021846+1066158600+1066042839+1066071275
1018+1065455822+1064487264+1063857033+1062896535+1060276643+1056318442
1010+1052959797+1051893166+1053560622+1057046671+1060412183+1061761835
1001+1060429797+1057320960+1054147937+1052329193+1052468166+1054037549
993+1055324582+1054875568+1053028612+1050899754+1048431225+1044780079
984+1040110966+1035785777+1032938542+1031450812+1030075185+1027630913
975+1024172031+1020575520+1017471087+1015099734+1013027973+1009843007
967+1004916622+999723336+995848504+993149497+990645665+987592731+983395545
957+978100678+972942696+969202061+966871684+965012338+962962370+960995025
947+959843831+959450497+958722865+957162662+955715460+955372803+955993779
937+956647148+956487500+955235771+953365528+951991394+952114022+953756922
927+955819130+956752908+955716430+953288503+950757652+949042504+948655364
917+949788571+951492971+951731584+949764762+947578807+947322430+948526989
907+949252158+948616255+946920736+944737094+942872524+942220350+943042845
897+944626782+945749539+945607879+944262406+942131906+939562094+936877418
887+934511215+933034979+932845999+933719097+934866186+935531646+935237503
877+933603411+930721320+927634800+925720596+925672307+927347673+930068922
867+932641122+933632668+932574247+930729679+929846878+930427103+931740109
857+933003407+933770746+933716858+932944370+931947599+930890073+929587218
847+928287945+927710929+928354073+930122735+932216514+933499666+933227093
837+931693984+930190804+929484816+928711806+926930977+925287033+925966300
827+929322333+933424880+935985436+935767274+933317851+931341475+932618731
817+936561854+939450662+939443422+939133084+941311351+945123339+948006698
807+948962120+948303229+946498965+944234417+941811566+939020606+936415119
797+935211381+935863032+938126684+941541232+944635066+945323439+943403041
787+941081321+940336523+941069604+941987036+942235650+942088542+942446573
777+943800033+945889856+947727333+947922359+946024276+943321015+941345535
767+940204641+939231156+938619286+939524627+942330066+945412033+946543150
757+945685128+945033402+946018828+947715093+948311961+947289067+945354861
747+942893945+939955429+937476824+936677541+937435923+938970376+941541605
737+945257311+948129998+948368611+947596048+948356743+949798050+949090645
727+946010394+942585323+939784064+938022268+938505241+941283960+943709349
717+943371917+941869036+943218763+948973092+956048936+959184119+955809054
707+948311215+941401662+937723498+936292566+935246236+934706688+935357817
697+935910650+934643247+932162477+929786050+927208402+923551285+919369250
687+916270639+914875084+914301950+913369516+910770895+904870502+896204975
677+889339158+889098605+894708960+898848676+893572917+877745191+861551895
667+859411916+869960897+881623903+888106013+888059067+883597070+879360997
657+878408486+879438396+878823540+875412500+871921972+871065966+872299857
647+873126308+872093338+869539126+866279076+863028430+860926291+860568708
637+860647673+858804971+854514265+849937029+847313107+847316316+849552502
627+853204394+856102382+854742056+848099328+840206960+836321755+837274192
617+839226684+837437049+830421810+822064680+818172757+820735030+826716478
607+832056798+835158992+836379150+836944597+838372543+840058210
##END=
