##TITLE=<SNM>
##JCAMP-DX=4.24
##DATA TYPE=INFRARED SPECTRUM
##DATE=2/5/2025
##SAMPLING PROCEDURE=Instrument type and / or accessory
##ORIGIN=Admin
##XUNITS=1/CM
##YUNITS=ABSORBANCE
##RESOLUTION=4
##FIRSTX=4497.3318
##LASTX=599.83466
##DELTAX=-1.4281778
##MAXY=1.7328856
##MINY=0.28678766
##XFACTOR=1
##YFACTOR=1.6138755e-09
##NPOINTS=2730
##FIRSTY=0.30845428
##XYDATA=(X++(Y..Y))
4497+191126440+191487272+192409036+193171621+193118198+192402905+191679728
4487+191186529+190606300+189977540+190013346+191011063+192099338+192209748
4477+191374627+190512934+190235976+190394583+190622402+190756634+190760641
4467+190776799+191207286+192189656+193179764+193638301+193758332+193926671
4457+193984988+193574629+192760819+191860827+191042123+190445513+190340256
4447+190803040+191442177+191677087+191301741+190677949+190279926+190123978
4437+189909289+189585482+189345752+189248287+189362945+189883491+190543662
4427+190526322+189558152+188478538+188145553+188296848+187968037+186842607
4417+185825539+186080170+187678152+189531228+190513119+190238008+189011512
4407+187564382+186627678+186376389+186446653+186570119+186832045+187261756
4397+187540634+187291209+186568641+185925127+185897299+186452008+187069725
4387+187362360+187372332+187178860+186568013+185433554+184159047+183160370
4377+182491465+182200362+182325711+182335813+181544642+180230155+179412116
4367+179580399+180358292+181125254+181442228+181193339+180723482+180644003
4357+181240668+182101475+182459204+181941538+180917360+180078491+179745137
4347+179636112+179362220+179094403+179419170+180390996+181230364+181277287
4337+180751902+180267771+180041041+179924722+179862435+179836693+179661448
4327+179390362+179560031+180338515+180933721+180653606+179968395+179646028
4317+179577315+179347724+179248578+179860071+181075875+182205182+182797526
4307+182881030+182521934+181603697+180150547+178624842+177701231+177720454
4297+178340147+178816854+178785831+178618360+178884035+179732155+180909844
4287+182008276+182580731+182381369+181598970+180631169+179693155+178889538
4277+178512751+178855726+179692748+180372844+180594975+180638168+180724073
4267+180675987+180448186+180414449+180750037+181107877+181292577+181581021
4257+181996254+182131335+182046981+182347816+183136235+183886078+184343580
4247+184585101+184429541+183776905+183147979+183060061+183324517+183504028
4237+183570396+183722152+183874351+183609618+182636850+181229828+180071381
4227+179690495+180145302+181082966+181995663+182563373+182794553+182832113
4217+182785116+182769623+182813462+182676941+182096545+181223531+180464511
4207+179981044+179758433+180002373+180880723+181952286+182534584+182627894
4197+182823748+183323501+183696262+183576785+183052638+182399281+181779109
4187+181146010+180392252+179681188+179444857+179886220+180761726+181797575
4177+182929652+183967274+184478070+184325188+184019072+184166895+184746497
4167+185267487+185435789+185207951+184452107+183216065+182106775+181713110
4157+181815377+181696306+181089484+180419157+180215548+180596360+181290379
4147+181961944+182388589+182472537+182317217+182150171+181984990+181610493
4137+181061213+180777773+181128947+181990289+182931979+183718071+184419255
4127+184977067+185000575+184341124+183584744+183477677+184005887+184474359
4117+184400881+183979739+183685644+183715541+183882828+183865894+183473393
4107+182798763+182176522+181920173+182109453+182598182+183121185+183440227
4097+183497251+183405030+183280844+183168994+183054669+182863617+182588376
4087+182404618+182454846+182594322+182625844+182620951+182687282+182666673
4077+182447386+182352469+182750695+183429240+183804641+183685164+183437679
4067+183412084+183464584+183096292+182086647+180964504+180557802+181061120
4057+181961777+182818152+183539853+183967920+183823274+183176122+182570427
4047+182539034+183058159+183552262+183562825+183273587+183146779+183294159
4037+183472691+183497750+183512153+183907775+184815431+185640525+185604792
4027+184831719+184261553+184430169+184953578+185257238+185315610+185539680
4017+186130879+186686733+186603229+185799556+184752000+183956951+183699549
4007+184056891+184731705+185199549+185308630+185402808+185659785+185724214
3997+185277717+184624342+184337782+184473749+184566506+184399515+184331097
3987+184783208+185718489+186602435+186776221+186110954+185313449+185250055
3977+186010202+186916787+187335621+187239005+187034103+186988971+186964393
3967+186801428+186722503+187047731+187729526+188487457+189174274+189714709
3957+189949748+189876954+189880943+190465642+191748053+193185674+193894263
3947+193600094+193107210+193251266+193697578+193419863+192181808+190754085
3937+189951835+190240833+191767849+193962994+195384365+195011899+193733772
3927+193385313+194416730+195352880+194920583+193996935+194316181+196017057
3917+197399685+196902941+194744415+192351458+190894540+190758831+192082884
3907+195280935+200445352+206242757+210321521+211409021+209868321+206488931
3897+202429372+199478973+199071588+200996664+202980610+202855593+201814370
3887+202528074+204908271+206429064+206603773+207109436+207371529+205435890
3878+202601737+202009337+204380153+208185154+212016230+214531267+214252611
3868+212305615+211617801+212572527+212612027+210154549+206704027+204619642
3858+205646074+211177509+220807430+228152810+225487937+216635337+209046497
3848+205374711+205366919+207813575+211379142+215374531+219728314+223592685
3838+224930624+223160462+220355135+218112457+216094643+213893256+212290030
3828+211850606+212125255+213489324+217585355+223834021+227677783+226907516
3818+224686814+222567251+218937402+214072158+210767354+211038753+214858509
3808+219894899+223137860+224832827+227296140+229893722+229748318+227486103
3798+226027394+225550649+224522131+222934970+222125611+222842897+224993040
3788+228394294+232840538+237640449+242250341+247280120+253328298+259255983
3778+263655987+267395101+272607604+280760461+292260705+305840496+318486390
3768+328289083+335999357+342659527+348854678+355759637+364180310+373111504
3758+381073806+388826147+399095114+414139985+433332277+451729448+464712629
3748+474456155+485437515+497791365+506553665+509945630+512936803+519850958
3738+531396981+544906378+555558409+559745017+558223319+554959510+552912335
3728+552164782+551508822+550532730+549539649+548112720+545472850+541904384
3718+538682235+537419804+539830507+546265129+553164880+554978752+551508416
3708+547359701+545562781+546394319+548536448+550088910+550568222+551285453
3698+552979516+555266863+558472171+564249097+573734538+585059962+592469458
3688+591565569+585610775+580458897+578429708+578773994+580477622+584149019
3678+590273001+595267768+594197129+590055948+588551609+588003603+582440073
3668+572147101+562450479+555647232+551386944+549435794+549974124+552543120
3658+555561881+557418668+558652993+561585923+567327911+573835844+576064802
3648+571423258+563751393+557787773+555267122+555217041+555698569+555886482
3638+556441025+558026949+560408142+563321904+567465448+573052245+577138654
3628+576098595+572203903+570267969+572094619+577230617+584160321+590459806
3618+594781070+598497378+602786658+606831075+610115049+613481347+616476767
3608+616754167+613898907+610731307+610009681+612319151+616694337+621804186
3598+626400376+629279569+629867019+629280086+629911560+633733569+640628002
3588+647130654+648716836+645395707+641389848+640116707+642199928+646137979
3578+649635498+650912628+649655072+647264645+645986629+647353727+650868826
3568+653891834+653815162+650966549+647760355+645884474+645822944+647449530
3558+649638083+650350735+648628641+645879968+644357827+645212595+648077458
3548+651335654+652950496+651878711+648666238+644848588+641925075+640180452
3538+638596043+636551897+634748403+634077485+634717749+636494947+638785581
3528+640009824+638997205+636266851+633255070+631197554+630567557+630834728
3518+630859694+630011278+628235484+625495896+622625124+621504662+622747962
3508+624632190+625651456+625999953+625649093+623721949+620816312+619177021
3498+619874235+621808248+623428187+624155981+624157384+623664482+622585532
3488+620695616+618437298+616846831+616275114+615931900+614873817+612901689
3478+610783013+610028184+611624042+614155552+614623229+612416395+610347466
3468+610784195+612899695+614284779+613806982+611824291+608972465+606127767
3458+604313859+603745650+603670271+603424595+603176223+603391947+604133480
3448+605165266+606244917+607194787+607792911+607662834+606459348+604252551
3438+601624758+599434838+598565592+599420878+600908117+600808473+598494349
3428+595838857+594388292+593745110+593192894+592730387+592319917+591863541
3418+591966066+593267608+595067556+595575417+593502167+589288082+585151260
3408+583686512+585690513+589398769+592115606+592639606+591877169+591480771
3398+592354967+593694439+593481301+590714530+586755871+583998482+583845064
3388+586130232+589518837+592088756+592345364+590244083+587020493+584093657
3378+582309110+581934503+582895341+584898567+587304099+589100612+589553110
3368+588820958+587607242+586555438+586019324+585945052+586033654+586174552
3358+586403054+586338237+585472795+584185619+583545762+584006385+584922314
3348+585380722+585290828+585325101+585748054+586134923+586488442+587448358
3338+588849766+589508053+589017144+588279969+587834340+587115521+585737454
3328+584488134+584635606+586425656+588384673+588598328+586928826+585155101
3318+584806087+585813942+587111606+587496850+586252627+583962731+582205514
3308+581898567+582670643+583925725+585404950+586689097+587343063+587319906
3298+586534645+584983142+583556620+583441095+584539582+585662001+586424364
3288+587606097+589436330+591071115+592130712+593335564+594980839+596090294
3278+595785342+594349032+592394521+590077221+587557789+585323846+583742133
3268+582901288+582800683+583195345+583633034+584077185+585025910+586578927
3258+587860156+588050692+587752424+588323439+589848719+590879508+590371759
3248+588877059+587574482+587090222+587369580+587762026+587190383+585080829
3238+582265382+580368043+580221309+581234629+582207582+582375404+581510147
3228+579673968+577568033+576417434+576635891+577228512+577084622+576119388
3218+575008603+574452065+574653016+575209922+575633133+575805313+575541984
3208+574404754+572690084+571626018+571766547+572121395+571732089+571306440
3198+572050743+573421830+573406170+571084217+567755185+565285390+564447167
3188+564923893+565979907+566874452+567001057+565929679+563583719+560659579
3178+558498726+557931293+558366470+558425932+557540177+556518103+556186412
3168+556073213+555192444+553533616+551825297+550467728+549469366+548767314
3158+548137465+547390724+546814058+546807300+547069115+546682948+545257644
3148+543668212+543077290+543233847+542617073+540614586+538384669+537028060
3138+536304845+535796062+535882188+536586235+536773040+535796394+534775613
3128+534859635+535406792+535223200+534532671+534330575+534650633+534663449
3118+533888824+532536758+531002466+529455581+527918002+526664915+526193138
3108+526488673+526702217+526078610+524990870+524405599+524613752+525103183
3098+525371313+525270155+524680046+523473752+521941603+520824133+520639063
3088+521087093+521358621+521045174+520455360+519954665+519372976+518316925
3078+516885528+515749333+515386654+515395887+514885737+513579985+512164136
3068+511516005+511875397+512629745+512763884+511780664+510205784+508889025
3058+507993594+507043207+505796953+504726904+504521743+505182024+505860994
3048+505823913+505209613+504463353+503653014+502874512+502522027+502565201
3038+502299951+501273963+499831781+498481007+497337389+496329128+495380108
3028+494422002+493619899+493296444+493379062+493328169+492748844+491706458
3018+490505335+489530092+489109910+489219083+489466679+489457520+488997155
3008+488125397+487206772+486703196+486567579+486152900+485005293+483486180
2998+482303266+481678846+481282005+480758337+480002548+479115205+478425045
2988+478262394+478394539+478066725+476930825+475512354+474535634+474231753
2978+474391634+474656478+474641853+474096173+473076685+471815399+470472419
2968+469201383+468256203+467714254+467315640+466880833+466533851+466209693
2958+465442233+464040308+462539625+461652614+461557808+461832476+461840047
2948+461187300+460020673+458903461+458334588+458338134+458451628+458221907
2938+457673051+457080467+456438689+455570883+454660273+454061078+453644257
2928+452957679+451973831+451073599+450389644+449747275+449188078+449008401
2918+449201078+449294444+448840468+447817028+446587135+445639555+445202753
2908+444970521+444442089+443598178+442862038+442331833+441579183+440388549
2898+439186245+438465579+438182564+437901655+437276607+436360383+435589230
2888+435328264+435333028+434951145+433959615+432855182+432248638+432270502
2878+432563377+432643226+432284056+431625510+430929552+430367401+430035561
2868+429922658+429779175+429208972+428035882+426577487+425422604+424852179
2858+424639300+424490535+424408249+424484811+424605654+424470665+423803256
2848+422613139+421294904+420312828+419785024+419444986+418927781+418066143
2838+417002041+416023400+415296345+414821133+414534831+414291704+413841089
2828+413001130+411845583+410673895+409779794+409206673+408760269+408273054
2818+407742369+407252162+406934099+406910203+407075735+407062070+406587781
2808+405731979+404782183+403957256+403314813+402775338+402186300+401441812
2798+400554506+399614386+398765010+398171540+397807938+397320760+396406678
2788+395300472+394536041+394279950+394220415+393981904+393370743+392380949
2778+391217756+390226374+389669393+389560959+389632608+389468775+388844355
2768+387916792+386980366+386187164+385600305+385240766+384958194+384518253
2758+383883271+383178670+382423546+381515964+380419914+379237332+378182721
2748+377506337+377268417+377160648+376743199+375887101+374856274+373983593
2738+373374242+372892973+372373811+371833524+371429629+371173354+370816917
2728+370163468+369372593+368755043+368344131+367897394+367286676+366677251
2718+366300316+366146307+365878472+365070977+363634668+361989689+360743361
2708+360236535+360375955+360753444+360930240+360753887+360396158+360034846
2698+359598081+358878153+357824318+356682583+355813189+355315928+354938699
2688+354474234+354047884+353803870+353579800+353197178+352794391+352508828
2678+352098322+351283625+350253390+349432230+348941543+348598809+348247173
2668+347862926+347513322+347306241+347215239+346972444+346329779+345382384
2658+344486251+343881960+343464584+342951959+342281669+341705040+341406440
2648+341218749+340852783+340280217+339769993+339573031+339609336+339513163
2638+338991047+338060530+336986344+336105391+335626042+335470113+335370764
2628+335113750+334614606+333913588+333203300+332691672+332395731+332191641
2618+331969639+331670337+331337722+331123255+331040969+330825024+330237167
2608+329401899+328673256+328258392+328089831+328025494+328014747+327993880
2598+327788867+327317976+326756194+326305321+325929458+325485417+325004111
2588+324654064+324437380+324109455+323533159+322952209+322691723+322708047
2578+322667237+322360290+321841756+321274323+320821123+320602851+320563075
2568+320388753+319781322+318878319+318178963+317970885+318081277+318236504
2558+318341430+318339916+318131837+317726280+317267577+316860949+316483424
2548+316088171+315729851+315522585+315463197+315382352+315127258+314728275
2538+314331951+314003140+313671707+313298281+312976007+312770182+312597854
2528+312417623+312362113+312514275+312728595+312802498+312681765+312437603
2518+312141699+311793794+311358026+310895777+310599208+310596697+310774158
2508+310887652+310830444+310679759+310490590+310212930+309861479+309561347
2498+309338624+309065286+308694944+308366299+308210259+308182190+308113016
2488+307895113+307622938+307479418+307444018+307250971+306734339+306082590
2478+305628872+305489599+305526975+305585920+305617257+305599178+305514437
2468+305441402+305515434+305722995+305843635+305681760+305279674+304811812
2458+304372443+304001289+303787375+303752234+303739030+303594642+303350702
2448+303126724+303002169+303022944+303154867+303224947+303076201+302765394
2438+302476950+302289776+302157354+302056657+301997750+301904550+301672724
2428+301390762+301331393+301639965+302152036+302576853+302774480+302794091
2418+302710051+302517779+302212365+301902648+301778832+301936017+302235540
2408+302404766+302330845+302177852+302154898+302284550+302441864+302483875
2398+302326062+302004601+301663103+301444481+301429726+301620594+301858791
2388+301807879+301136352+299709497+297529346+294533206+290590705+285729468
2378+280213766+274337583+268297051+262299028+256556763+251121814+245961201
2368+241254656+237425169+234802953+233357890+232905650+233609715+236043483
2358+240591679+247062384+255204641+265222780+276812678+287861458+295384909
2348+297668361+295321699+290978534+287354226+284946330+282594959+279655363
2338+276461246+273433528+270597270+267942498+265806611+264526914+263914885
2328+263507260+263139041+262940233+263113263+263953147+265689091+268083876
2318+270490645+272464620+274129671+275873943+277851740+279880061+281728594
2308+283365171+284883323+286287187+287479169+288448299+289306281+290092890
2298+290714632+291150511+291571709+292156352+292858866+293434165+293702222
2288+293776494+293960363+294375652+294790719+294897454+294660771+294296376
2278+293998459+293810897+293695353+293601027+293490229+293362922+293245994
2268+293163929+293159479+293294597+293546330+293741870+293718029+293552405
2258+293521234+293756532+294042981+294080449+293873460+293676019+293606973
2248+293561269+293509083+293616409+293946218+294247348+294237191+293986511
2238+293840295+294018347+294430903+294838196+295083410+295176000+295209627
2228+295249625+295308477+295365944+295385629+295378538+295428878+295561761
2218+295659743+295623143+295516482+295464314+295500121+295583921+295701126
2208+295892825+296178056+296467404+296633656+296680265+296742663+296908103
2198+297129588+297332828+297521997+297725532+297892893+297931690+297837512
2188+297719328+297713105+297891877+298188372+298409007+298427307+298334219
2178+298304433+298406625+298603402+298790558+298824499+298684562+298563312
2168+298625894+298790447+298910423+299016327+299217185+299512739+299841790
2158+300191172+300547387+300832673+300986369+301062782+301164125+301285024
2148+301317045+301244269+301228831+301420308+301759294+302042623+302135084
2138+302070341+301998138+302079574+302404618+302939568+303499448+303829201
2128+303829921+303685681+303664186+303830568+304036689+304128891+304090444
2118+304036264+304123720+304417593+304799735+305051966+305083285+305051357
2108+305191110+305531019+305873994+306076994+306230929+306493760+306848443
2098+307137699+307280370+307344060+307436909+307622735+307910754+308235078
2088+308461438+308489580+308357528+308227119+308247524+308409843+308564480
2078+308624218+308686413+308872664+309124508+309279052+309304905+309337978
2068+309476623+309646402+309710148+309635877+309494517+309357719+309274971
2058+309284426+309373156+309462736+309481129+309442996+309450937+309601345
2048+309870085+310135519+310337615+310520062+310701807+310849168+310979393
2038+311134658+311278584+311358211+311404413+311477318+311603296+311799814
2028+312065840+312366286+312669983+312934938+313122593+313362876+313924806
2018+314811891+315612257+315971575+315967327+315870527+315856456+316033954
2008+316460858+317052223+317626378+318054537+318341984+318612848+318972017
1998+319389245+319874170+320641446+321763422+322788671+323131036+322727067
1988+321935121+321072819+320367627+320001440+319953280+320008716+319984710
1978+319831550+319611210+319447746+319385847+319367750+319463701+319873395
1968+320485110+320747479+320318470+319572099+319121004+319112878+319265410
1958+319364537+319429169+319483202+319434783+319216105+318929102+318790937
1948+318997279+319708491+320966600+322329045+322861724+322095963+320688239
1938+319569883+319008691+318790937+318717773+318685790+318644019+318609413
1928+318689741+319148592+320147915+321269042+321920607+322311021+322941609
1918+323267576+322323283+320564810+319462113+319626943+320402972+320841805
1908+320615999+320101934+319780546+319694419+319569366+319312019+319180059
1898+319489665+320202575+320881101+321308670+321899297+322913282+323674795
1888+323395437+322366531+321442182+320998658+320937608+321054906+321144062
1878+321114183+321061813+321179517+321884782+323876263+327342204+330843379
1868+331896771+329818721+326622904+324426965+323719964+323847234+324053170
1858+324024880+323904553+323965972+324278717+324808737+325671853+327085190
1848+329324858+332533453+335740607+336636039+334391385+331278778+329584568
1838+329475432+329866253+330180439+331146005+333710347+337236452+339553568
1828+339744657+339099112+338379812+336980805+334953795+333470766+333162304
1818+333506664+333818412+334214515+335338817+337246387+338936756+339363512
1808+338682881+338026515+338493602+340529512+343565853+346121443+346976765
1798+346538006+346580552+348682387+352666789+355776995+354993507+351343271
1788+348411191+347944030+349219720+350988571+352817104+354438409+355311718
1778+355702428+357095600+360876909+366645858+371383020+371949456+368999131
1768+365189753+362249399+361364900+363061289+365898785+367456418+367556949
1758+367677128+367989614+368313735+370067443+374538506+380206038+383533039
1748+383246959+381375804+380066543+380123161+381438479+383138783+384086363
1738+384888650+387996050+394074457+398860001+397712578+393028451+388711324
1728+385756973+384418055+384874394+386603616+389508367+394916742+403758300
1718+413504227+418246153+415780642+410308226+405947259+404341060+405971044
1708+410585663+416596262+421745481+426109255+432228214+440626617+447232865
1698+449004633+447452208+443559769+438671700+436158361+437695386+442118104
1688+448229713+456949467+468138757+475589285+474059278+468748774+465928266
1678+467475965+472462533+478060262+482054561+485693975+490518335+494113208
1668+493312251+490670498+490845558+494375282+497811456+498488209+498151532
1658+500259461+507120211+519459953+533204869+537439674+532681128+530418599
1648+533088568+534722911+530056364+522734989+518272015+518080852+521877931
1638+529060254+536649427+538252487+532129835+524922878+521624167+522285926
1628+524648320+527011712+529325726+531090846+530882620+529661185+530606770
1618+534625925+538099660+537046711+533377640+530947991+530690570+531486653
1608+532135411+532361070+532578455+533147439+533949209+534576140+534874888
1598+535119862+535613504+536353227+537140335+537794449+538202295+538348659
1588+538344818+538343673+538428877+538591787+538975701+540349262+543908163
1578+549726675+554730676+554661759+551318286+550283693+553085734+556384887
1568+556693533+555212351+554853366+557070542+563383175+575730377+591127696
1558+596815910+589819579+581676750+577457678+576419613+577028521+578313407
1548+580660955+585754074+594711267+606784798+620112820+631182707+633752035
1538+628385947+624228000+625870319+631060608+634964459+636698519+639775819
1528+646113899+654345219+662885665+672083955+681448146+687859944+690306065
1518+691478306+692420383+692298506+692122263+694536622+701255847+712323888
1508+725122147+731446563+725360880+715389590+710250564+711100606+715723683
1498+720540213+722263563+721126851+720940415+724602210+731296099+736718398
1488+737046360+733499942+730014168+728933076+730266787+733022625+736864134
1478+742340872+749568659+757346964+763191550+764329149+761006247+757289349
1468+756507116+758871173+761949950+762978818+762793195+765082131+771734138
1458+779617849+781133563+774497954+766686558+762198137+761094073+761494644
1448+761041629+758899980+756363522+754687372+753888741+754040460+756014509
1438+759760732+762348231+760749639+756998984+755046135+755596875+756449206
1428+756041396+755381262+755818618+757292968+759509959+762694733+765638632
1418+765120541+760501231+755214622+752045804+750978968+750511106+749876603
1408+749840114+751050543+752520979+752970596+753054876+754327722+756843794
1398+759313773+760845664+761206274+760414587+759502277+760085813+762335083
1388+764339785+764162066+762710392+762998023+766747201+773141123+780238464
1378+786931319+793218063+798820224+802792179+805101576+807026799+809345651
1368+811891564+814854150+818662420+822365358+823737036+821774363+817914461
1358+814222750+811740435+810378951+809435545+808301196+806994520+805965947
1348+805327899+804615099+803701977+803486734+804882492+807449752+809672209
1338+810521068+810246437+809670658+809440494+809944181+811270800+813079390
1328+814907924+816752930+819029457+821960872+825348184+828851243+832193645
1318+835285496+838316408+841403088+844174438+846153066+847520755+849026719
1308+851078843+853387353+855660408+858152252+861123407+864151069+866447391
1298+867577160+867547466+866554865+864930347+863174127+861755693+860623487
1288+858992912+856008165+851673015+846897923+842683099+839317799+836339479
1278+833480082+831374701+830758517+831350769+832181014+832638387+832724736
1268+832796681+833307237+834294077+835221602+835779802+836360235+837356012
1258+838612977+839794230+840781882+841728021+843054641+845164084+847855881
1248+850316111+851943509+852909888+853735037+854737831+856065116+857709429
1238+859322055+860626663+862024267+863990560+866129254+867844921+869530083
1228+871887270+874550481+876521132+877568910+878328910+879420121+881068128
1218+883224697+885617340+887953032+890396347+893494181+897212261+900487298
1208+902284513+902822030+903257096+904519158+906914090+910333977+914397303
1198+918686657+922782115+925871529+927105447+926986524+927416863+929498755
1188+932257104+934232408+935430798+937026804+939805245+943268859+946006674
1178+947111403+947284173+947950586+949624520+951758634+953686221+955174753
1168+956480912+958331901+961539056+965944895+969714681+970787795+969734477
1158+969778870+972986763+977773600+981090149+982062511+982239049+982968985
1148+983894442+984087305+983793838+984103777+985260580+986631297+988141398
1138+990332758+993064442+995293842+996333348+996725720+997590313+999479564
1128+1002217157+1005357833+1008376114+1010575894+1011505341+1011915367
1120+1013247378+1015636623+1017969509+1020042758+1022732782+1026001097
1111+1028603665+1030078901+1031244569+1032451157+1033303267+1033875279
1103+1034533492+1034734553+1033327273+1030320071+1027444276+1026643947
1094+1028241134+1030863572+1033153173+1035047225+1037183851+1039699774
1085+1042502886+1045637357+1048240294+1048534130+1046237882+1044021851
1077+1045291668+1050922415+1058555648+1064769709+1067365037+1065618642
1068+1059776419+1052256347+1047418691+1047600843+1050738343+1053189930
1060+1053688372+1053658383+1054832028+1057536012+1060587681+1062515342
1051+1062835769+1062115805+1061280610+1061090186+1061715603+1062505961
1043+1062826536+1063119559+1064313443+1066362538+1068196834+1069312051
1034+1070532822+1072412101+1073741823+1072637907+1069074057+1065344602
1025+1063754357+1064675900+1066743905+1068364360+1068956685+1068634411
1017+1067339923+1065069232+1062415476+1060059692+1058065404+1056039650
1008+1053861439+1052143481+1051796019+1053081865+1055366886+1057717130
1000+1059285289+1059037914+1056238717+1051719347+1047214011+1043344654
991+1039448854+1035304497+1031784819+1029549879+1028312267+1027682344
983+1027822466+1028656774+1029284555+1028729014+1026544007+1022738322
974+1018036874+1013713837+1010486665+1008074005+1005948164+1003820993
965+1001374945+998114682+993660017+988176410+982466627+977366824+973005673
955+968807912+964472466+960768863+958803604+958376220+957968484+956708639
945+955188418+953993870+952692143+950642530+948047127+945834864+944710339
935+944743653+945816619+947718723+949710351+950877422+950974998+950096518
925+947994388+944995016+942561674+941858403+942734371+944284432+945608024
915+946223099+946113631+945115342+942776252+939387685+936353596+934890030
905+934872303+935195389+934888996+933868031+932854674+932517701+932722529
895+932984307+933261524+933769125+934256784+933956817+932468876+930587676
885+929496539+929198049+928774211+928067099+927778655+928143402+928740897
875+929161412+929118570+928513466+927545758+926298248+924581177+922487541
865+920453070+918690646+917337435+917165994+919154667+922889294+926405279
855+928491085+929866530+931051624+930822198+928287143+924773965+922024479
845+920355421+919552358+919727714+920907785+923126918+926365170+929397486
835+930133922+928029871+924834904+922726864+922844974+924739692+926298617
825+925412456+922426823+919898269+919741379+921790770+925065216+928848371
815+932250013+934146577+934256414+933785597+934615621+937571782+941199673
805+943036405+942781718+942522673+942900641+941815118+938350617+935061398
795+934796517+937468149+940709577+942449620+942224109+940651814+938817445
785+938169056+939589928+942143892+943989932+944684043+945269795+946173536
776+946329909+944544069+941149370+937999092+937021929+938853934+942136875
766+944110554+943054576+940371791+939062234+940272295+942361277+943321821
756+942814514+941634813+940910786+942021719+945396104+948782899+948832019
746+945312489+941437519+939922543+941196718+944923810+950158934+954529467
736+956225191+955800096+954606360+952676114+949330610+945277477+942885499
726+944143571+948595798+953176846+954256461+951162763+947319776+946257151
716+947439438+947838089+946412785+944797574+944093417+943662857+942967046
706+942437654+942696478+944056189+946205815+947544031+945556613+939465243
696+932313685+928256489+927765950+927436216+924701946+920628500+917565457
686+916317504+916028174+915001225+911285656+904998174+899205736+897060837
676+898614962+900533316+898353257+888532505+871108287+855078719+854455961
666+867716322+881059559+886435028+884419984+879944047+876717244+875320009
656+874847863+873953059+871133402+865683772+858713184+853321170+852590199
646+856985033+864379091+870904124+872745363+869134387+862463544+855881856
636+852025869+852057410+854124380+854535293+852370820+850317736+849482172
626+847022312+841077638+834957756+832514885+832002777+828793850+823034651
616+819682351+821932951+828051578+833913671+837135746+838812487+841269466
606+844506610+847232163+847600603+844258201+839369283
##END=
