##TITLE=<SNM>
##JCAMP-DX=4.24
##DATA TYPE=INFRARED SPECTRUM
##DATE=2/5/2025
##SAMPLING PROCEDURE=Instrument type and / or accessory
##ORIGIN=Admin
##XUNITS=1/CM
##YUNITS=ABSORBANCE
##RESOLUTION=4
##FIRSTX=4497.3318
##LASTX=599.83466
##DELTAX=-1.4281778
##MAXY=1.7244065
##MINY=0.2264964
##XFACTOR=1
##YFACTOR=1.6059787e-09
##NPOINTS=2730
##FIRSTY=0.25080383
##XYDATA=(X++(Y..Y))
4497+156168840+156174574+155944188+155563832+155578009+156086317+156149336
4487+154896258+152923461+151771733+152250339+153871358+155587436+156565702
4477+156532225+155905570+155516038+155868437+156700761+157279669+157033805
4467+156085166+155264895+155234898+155539847+155071428+153568395+152076496
4457+151812104+152939124+154447325+155063681+154373662+153126291+152416667
4447+152588515+152996187+152837384+152097911+151541903+151782412+152554713
4437+153106277+153155546+153047284+152985915+152654068+151835560+150963571
4427+150641763+150914840+151320814+151360285+150748893+149592163+148453889
4417+147970411+148286541+148973877+149493133+149629834+149492122+149191849
4407+148631248+147669146+146459241+145496340+145232347+145612480+146067240
4397+146102926+145786963+145396048+144885254+144225967+143906283+144465057
4387+145790554+147201265+147929882+147504739+146074459+144386606+143145145
4377+142589035+142735432+143462750+144307609+144767528+144786911+144551885
4367+144152286+143757168+143565046+143385061+142814355+141885711+141121817
4357+141033253+141816614+143174734+144261114+144447103+144257041+144671439
4347+145555315+145853509+145288473+144716691+144846387+145592095+146485944
4337+146969710+146650407+145818213+145224293+145020740+144568141+143573053
4327+142697752+142649976+143210011+143535642+143170244+142425825+141858451
4317+141730008+142009738+142504090+142923898+143174892+143575030+144423619
4307+145411386+145906230+145820013+145740487+146138648+146807669+147188377
4297+146975128+146316100+145665284+145507493+145985171+146653979+146781949
4287+146069309+145003575+144339796+144295649+144487910+144622374+144831328
4277+145225842+145607673+145810642+145893128+145871259+145667464+145401346
4267+145396902+145860199+146687994+147449068+147572630+146881517+145897109
4257+145284891+145141519+145181825+145417129+146198170+147649030+149326490
4247+150420571+150310815+149169070+147932610+147393239+147503041+147840984
4237+148272818+148711155+148780169+148277559+147614940+147385844+147733632
4227+148350702+148856179+148995831+148663565+147996799+147391457+147154576
4217+147181465+147280337+147615775+148365965+149160840+149418728+149127883
4207+148843690+148973710+149401730+149767890+149857391+149701260+149434001
4197+149140697+148839914+148547927+148313012+148199480+148260718+148491124
4187+148769267+148940883+149020215+149135658+149272035+149349000+149523057
4177+150046766+150889918+151807557+152610533+153165706+153386257+153323682
4167+153075305+152695803+152303580+152045274+151950855+152000477+152165125
4157+152300945+152253197+152064276+151911217+151917443+152064703+152197164
4147+152235902+152397015+152899059+153503473+153714569+153404684+152924371
4137+152648909+152660878+152810588+152910406+152901360+152960891+153351592
4127+154007549+154474548+154496297+154342375+154266458+154095501+153728914
4117+153518968+153736142+154113742+154248606+154083364+153777608+153459057
4107+153270099+153358895+153746952+154407408+155336544+156281370+156714512
4097+156419212+155788865+155314610+155152523+155290170+155633291+155822657
4087+155492007+154884196+154758444+155467084+156433409+156801934+156445712
4077+156063733+156351182+157288279+158210957+158480147+158058139+157427606
4067+157076264+157147449+157416323+157513878+157291304+156928494+156636052
4057+156465754+156414759+156465531+156599550+156883493+157349462+157832893
4047+158231537+158711869+159331343+159821232+159982307+159860035+159453430
4037+158739872+158031974+157902093+158636453+159861983+160780838+160882197
4027+160422612+160081569+160220284+160649454+160990385+161046966+160942341
4017+161020670+161395246+161598316+161058917+159925077+159003995+158918577
4007+159623580+160654799+161569812+162140629+162326813+162212093+162019266
3997+162067069+162493418+163068392+163492979+163797668+164220120+164762897
3987+165112829+165060201+164769058+164426345+163908880+163201112+162841828
3977+163326150+164279039+164842340+164715577+164316859+164117871+164194567
3967+164348498+164546317+165076828+166033094+166952729+167465443+167877541
3957+168523922+169083827+169156738+169135416+169894755+171552758+172963952
3947+173096877+172607600+172798385+173442243+173094687+171378228+169485589
3937+168645861+169336427+171434549+174143869+176023166+176159560+175454761
3927+175710794+177322052+178578999+177969324+176573328+176632191+178435813
3917+179727759+178345811+174897454+171746012+170302083+170518199+172384135
3907+176678046+183731140+191917961+198206910+200654834+199105000+194056649
3897+187329493+182392355+181867894+184941063+187346510+186150504+184405171
3887+186229539+190635442+193403216+193725757+193654053+192248073+188105960
3878+184600317+185648646+190717390+196881802+202334104+205320202+203992998
3868+200688812+199584645+200388187+199141186+194513395+189871687+188926258
3858+193438772+203880987+217914467+225628101+218296187+204056185+192888349
3848+187801771+188576030+193471952+200092776+207042098+214025342+219341138
3838+219671417+214959656+209248891+205019522+201636412+198470068+196566406
3828+196718314+198500613+202375449+209719332+218351543+221776888+218861938
3818+214985562+211314334+205297507+198223240+194106921+195073987+200682651
3808+207633198+211829480+214094932+218004896+222177592+221819440+217812793
3798+214324947+211234650+206876884+202532368+200510571+201163447+203554456
3788+206970078+210704325+213814775+216592255+220633826+225787507+229118081
3778+229146974+228452066+230110534+235256847+243498635+252791200+260222190
3768+264949633+268050284+270352387+273635603+280758750+292022526+303572619
3758+312132661+320132594+332635855+352263747+376423285+395965034+404457807
3748+408393770+415835802+426593395+434221555+437222722+441625136+451973843
3738+468556995+487164617+500092131+502861148+499519087+497183267+499174741
3728+504457431+510044754+513828400+516112075+517972240+519600849+521175531
3718+523920127+529926878+541168664+556909287+570525788+574243520+570624141
3708+568121455+570934119+578951124+589164809+596012939+596007372+592382315
3698+590683115+593519458+600285120+608962127+617880860+624971606+626414903
3688+620750123+612204760+605642372+603144251+604654540+609050979+615809367
3678+624810678+632217860+631558415+625518372+622053463+620799708+615492894
3668+605954094+598899461+598192732+602374873+607833001+613025281+619244362
3658+626547624+631799508+633868997+637225310+646202423+658909516+666417128
3648+662752173+653456398+645735378+641862509+641103746+641641086+641798970
3638+641710267+643491749+648800567+657160694+667228742+677174462+681829327
3628+676525780+666787306+661246301+663408650+672458136+683650596+689974191
3618+689844959+689277335+692328495+697106356+700496518+701953770+701892606
3608+699854145+696016089+692303851+691313421+694345355+699518038+702875316
3598+702789063+701276659+700678452+701688404+705043752+712433193+722680503
3588+728368109+724180808+716855352+714408783+715203472+713355778+708780263
3578+706621477+708821311+711890657+712424805+711935046+714420956+720630017
3568+726293053+726934906+723867341+721180866+719668536+717519103+714366398
3558+712161443+712418199+714602222+717463877+720647238+724193947+727282740
3548+728366179+726499630+722528335+718459354+715851041+715414504+717383487
3538+721068410+724256892+724932891+724081416+724131892+725211990+725492870
3528+724055065+721537533+718819659+716560962+714992738+713706879+712852138
3518+713569704+716238217+719665641+722688817+725067170+726112009+724243012
3508+719364051+714351330+712453383+713626638+714762110+713982934+712709842
3498+712912931+714864768+717809484+721047997+723867193+725188014+724141838
3488+721360202+719241648+719986530+723055802+725327044+724445358+721179901
3478+718040112+716783350+717374580+718303623+717894402+715682097+712467858
3468+709299268+706858489+705992540+707948162+712519521+716332338+715807024
3458+712197518+710679620+714025690+719760282+723788511+724904684+724779461
3448+725150380+726344493+727591382+728158191+728226184+728228633+727957700
3438+727114464+726343528+726519598+727034001+726382572+724385679+722365774
3428+720597356+717616936+713429635+710928879+712390808+716284906+719143073
3418+719555708+718719154+717851943+717034465+716503955+717080784+718483107
3408+719001445+717739264+715756920+714587747+715109796+718048797+723450697
3398+729036833+731355877+729486286+725545943+721654666+718587844+716732207
3388+716517687+718030091+720732823+723218511+723891688+723065600+722919370
3378+724145624+724766248+723572803+722421817+722917737+723517057+722635075
3368+721974813+723678282+726077419+725609038+722431541+720475399+722022691
3358+725445735+728229153+729743784+730355278+729903524+728261145+726354662
3348+725659364+726813394+728934917+730329372+729620194+726596276+722894875
3338+721192445+722802460+726178444+728246819+727476031+725404687+724575926
3328+725344859+725847088+725134940+724434447+725153498+727232562+729341243
3318+730140016+729514493+728660643+728647356+729245340+729465650+728670961
3308+727024648+725130561+723651337+722991817+722796151+722368224+722202249
3298+723998206+728208295+732698225+735170254+736055057+737426799+739684308
3288+740830618+739276126+735967765+733169427+732356031+733508651+735332072
3278+736207968+735946906+735996194+736864296+736903934+735159417+733294130
3268+732956317+733419948+733422026+733364425+733983564+734541539+734309872
3258+734114429+734258358+733588149+732581463+733590525+736459602+737800687
3248+736162466+734219833+734008876+734146792+732932786+731186043+730654716
3238+731492087+732573075+733123553+733142036+733007534+733223762+733804228
3228+733588520+731244535+727378421+724887389+726247773+730376285+733376969
3218+733082282+731279645+730898408+732841634+735391752+735503837+731692949
3208+726270561+723272029+724361703+727666353+730059626+730315417+730040104
3198+731032835+732524530+732640029+731723086+731684932+732796503+733682716
3188+733786191+733488832+732571813+730680399+728416209+726496142+724904164
3178+723560258+722782419+722615998+722685996+722641681+722001090+720155400
3168+717281349+714550188+712810867+712019889+711816503+711600869+710723415
3158+709347368+708388337+708470805+709649626+711746431+714130723+715832484
3148+716684998+717467885+718103281+717137865+714144381+711143548+710019878
3138+709991820+709252282+707621705+706137137+705162369+704074328+702308879
3128+700188989+698752446+698588624+699076825+699133906+698397709+697562787
3118+697729653+699170204+700666427+700728927+699502228+698477430+698383383
3108+698607330+698674358+698893703+699395265+699555895+698596195+696754811
3098+695516680+695748199+696116446+694937401+692744916+691218111+690842144
3088+691072624+691408953+691428846+690780461+689596443+688308728+687091604
3078+686056711+685341001+684743462+684079785+683564343+683162247+682328142
3068+681204918+681239286+683412991+686451829+688063106+687394605+685117128
3058+682031823+678640177+675584637+673687804+673268562+673654624+673734865
3048+673192032+672772419+672968382+673116096+672381754+671068134+670281758
3038+670651415+671686754+672150087+671240344+669497534+668199576+667945863
3028+668275734+668404743+667743739+665956689+663160133+660038456+657535102
3018+656336832+656381740+656848043+656813898+656064043+655051641+654061805
3008+652962630+652013397+652205648+653908968+655610804+655218432+652700084
2998+650056141+648571721+647797444+647122856+646590416+645996217+644568210
2988+642034348+639339856+637736225+637317799+637019995+636249874+635823135
2978+636793004+638876299+640514001+640545845+639451867+638513396+638176845
2968+637913779+637230581+635939971+633949535+631657287+629956268+629229794
2958+628841208+627894350+626166015+624262501+623104983+623121759+623782169
2948+624060526+623394697+622098297+620958631+620556387+620772800+620853004
2938+620147574+618782401+617359145+616131741+614933954+613862540+613330100
2928+613259768+612840266+611371582+609089206+607135625+606676671+607595730
2918+608332930+607586600+605605369+603356433+601449356+600234162+599848916
2908+599889965+599718237+599095349+598212959+597346416+596615897+595735065
2898+594172519+592000335+590101201+589082490+588490407+587549895+586254386
2888+585093639+583996469+582464876+580745745+579894123+580375568+581319346
2878+581459934+580436213+578888513+577509423+576455416+575661060+575105312
2868+574625240+574070716+573609126+573315701+572806643+571774830+570359183
2858+568782385+567287833+566222506+565472465+564340555+562625507+561128691
2848+560580959+560701580+560656524+559978818+558799737+557454383+556130593
2838+554915956+553933543+553223770+552624858+551971351+551352694+550963997
2828+550674135+550035845+548846148+547364066+545861497+544298432+542563194
2818+540790581+539320970+538393708+537853696+537296983+536558336+535680621
2808+534480756+532803713+531049212+529745984+528921343+528414511+528200844
2798+527991483+527265084+526010140+524765812+523795646+522836132+521698730
2788+520632847+519939108+519395570+518342343+516576448+514876914+514040619
2778+513699836+512868923+511424364+510158286+509487261+508944800+507932955
2768+506506173+505320411+504839336+504746328+504403541+503674655+502806776
2758+501791442+500490069+499142341+498124892+497333468+496266286+494700177
2748+492977335+491550664+490495915+489670606+489098491+488800538+488411247
2738+487478678+486125308+484954020+484247143+483634127+482695175+481547417
2728+480519316+479575947+478539199+477561981+476829458+476129595+475282537
2718+474559663+474108429+473468765+472226515+470651759+469192242+467830893
2708+466407043+465140891+464368767+464040826+463847164+463627596+463337103
2698+462785920+461814641+460677943+459874977+459515563+459135477+458283965
2688+457037707+455724791+454438635+453160570+452083181+451391483+450916458
2678+450368653+449724276+449101499+448479762+447787359+447083191+446477115
2668+445965236+445401286+444589783+443474686+442298648+441487443+441244493
2658+441263199+440982689+440195942+439233533+438465454+437905549+437404248
2648+436879490+436235038+435360293+434258149+432961342+431503272+430173730
2638+429397486+429114490+428778829+428191422+427745940+427634486+427453072
2628+426838163+425975666+425238763+424648684+423919241+422938387+421982993
2618+421333011+420895991+420456002+420028484+419677717+419269387+418630651
2608+417688358+416429629+415051541+413997460+413482797+413195199+412756880
2598+412213454+411825350+411640633+411481450+411169468+410610454+409803739
2588+408941724+408392990+408356433+408563753+408543637+408140911+407547974
2578+406929577+406311180+405722548+405144940+404407183+403399643+402320956
2568+401494496+401003846+400684478+400391499+400099261+399778632+399344470
2558+398773690+398179306+397675258+397232819+396788005+396387357+396056038
2548+395682855+395239785+394872429+394563639+394073471+393425420+393011745
2538+392991703+393025254+392804721+392443674+392149099+391897427+391635067
2528+391445265+391302227+390981931+390418389+389823448+389304665+388709984
2518+387982248+387374354+387177835+387368231+387602273+387572656+387287953
2508+386881478+386315634+385584930+385017973+384952986+385231825+385368071
2498+385102482+384521422+383791162+383069365+382563201+382377556+382334281
2488+382140470+381686266+381071135+380510822+380290809+380540810+380985364
2478+381176688+380962316+380504438+379973297+379447054+378963233+378512221
2468+378095317+377817258+377789348+377948456+378088266+378053749+377821489
2458+377429859+376942475+376455834+376053182+375782804+375712176+375881640
2448+376171502+376370248+376401202+376342264+376242204+376050584+375712733
2438+375251886+374768213+374384638+374154604+373986588+373727493+373378657
2428+373115443+373014937+372932544+372728193+372408491+372025992+371677564
2418+371548555+371728744+372066261+372321347+372372676+372282340+372241143
2408+372360354+372520613+372548560+372419328+372165022+371821678+371553082
2398+371529886+371646907+371660528+371573978+371575945+371653180+371568633
2388+371194745+370579799+369704869+368471081+366931620+365254651+363434718
2378+361311488+358939036+356664417+354708460+352958302+351388148+350335886
2368+350011062+350061871+350006423+349775349+349597127+349771007+350643896
2358+352367407+354762350+357839935+362150566+367930735+374142319+379124791
2348+381934672+382827826+382881715+382932710+382659513+381209089+378413609
2338+374913664+371427414+368230135+365266268+362506158+360073172+358126828
2328+356656326+355349348+353843884+352205366+350945301+350535300+351050260
2318+352148433+353270655+354043559+354523037+354950148+355461396+356121398
2308+356936130+357748040+358364805+358807095+359256325+359786131+360257778
2298+360502250+360560036+360666183+360984215+361449293+361881080+362148970
2288+362242684+362277200+362405726+362670277+362978213+363251114+363514774
2278+363783666+363940362+363838001+363492394+363097981+362885650+362972683
2268+363268632+363530176+363570259+363371364+363003080+362596828+362400048
2258+362619950+363142666+363580614+363682901+363578387+363535038+363631127
2248+363789976+363988351+364245070+364493142+364640930+364736091+364944376
2238+365351593+365862656+366327957+366692382+366990446+367316866+367825516
2228+368596564+369502485+370347984+371065661+371692669+372323759+373107500
2218+374108248+375256933+376552962+378079544+379743968+381330267+382849723
2208+384507838+386333523+388149671+389893705+391711003+393728309+395933116
2198+398294954+400836907+403531399+406228155+408761794+411095128+413265531
2188+415217961+416861936+418283596+419652257+420965247+422186453+423491463
2178+425022016+426576211+427795154+428468628+428597637+428347970+427881852
2168+427166030+426109463+424844722+423657141+422649898+421589508+420133072
2158+418171028+415825261+413197166+410320777+407211719+403860231+400387676
2148+396991465+393581262+390227881+388068724+388524524+391490989+395454491
2138+399304386+402980921+406648437+410246994+413669556+416909813+420097590
2128+423316173+426422039+429292156+432047924+434853350+437799885+440979535
2118+444392113+447890870+451284112+454414771+457313280+460190782+463024676
2108+465492363+467528078+469481473+471730855+474597483+478398870+483116235
2098+488114519+492456697+495628144+497918722+499880914+501502471+502125025
2088+500951696+497558343+492191256+485443520+477634836+468965994+460000720
2078+451440994+443778837+437303557+431952317+427316788+423178701+419678422
2068+416889215+414686040+412887151+411265297+409695328+408255594+406986473
2058+405833148+404798107+403799772+402667491+401469518+400428947+399607535
2048+399019943+398693560+398468648+398158670+397801297+397512289+397414901
2038+397685724+398343722+399286943+400732504+403227693+407186556+412625273
2028+419136146+426023915+432649693+438558351+443378969+446987547+449534251
2018+450988571+451070965+449773229+447467323+444502379+441012418+437016144
2008+432587898+427930435+423206166+418441071+413765571+409495394+405790207
1998+402550953+399804018+397788827+396434418+395139688+393411056+391386513
1988+389416045+387604388+386008106+384760289+383827980+383040824+382357403
1978+381841478+381506040+381292299+381068686+380766947+380622610+380938972
1968+381474493+381495462+380667667+379498791+378676118+378348548+378228780
1958+378096876+377945747+377749747+377347020+376648457+375909253+375637020
1948+376200451+377677151+379844882+381828933+382215144+380528154+378032594
1938+376183749+375262352+374872467+374748023+374753701+374742678+374679250
1928+374810226+375662183+377426742+379282824+380249798+380671489+381351830
1918+381641766+380320278+377970539+376398492+376362157+377145305+377635361
1908+377324158+376528132+375817395+375328044+374819134+374297902+374255480
1898+375136312+376606555+377701610+378168135+378979898+380566271+381512498
1888+380447505+378232232+376563985+375849573+375531133+375267362+375123582
1878+375213509+375510423+376010908+377285374+380459641+385743741+390780549
1868+391830696+388181069+383072297+379522211+378055939+377776024+377855708
1858+377921845+377854483+377692628+377592902+377855411+378893681+381051131
1848+384604446+389464739+393841359+394315122+390205761+385258510+382663521
1838+382394777+382810753+383179260+384676819+388659026+393957007+397065991
1828+396618170+394832865+393133294+390794170+387868605+385854898+385492033
1818+386063592+386721924+387643878+389591521+392427270+394538438+394459941
1808+392800973+391591532+392376126+395400045+399591019+402941505+403936092
1798+403258646+403434048+406559177+412047702+415720005+413628582+407947286
1788+403875262+403478845+405403217+407822285+410225542+412310470+413360877
1778+413910130+416250367+422265321+430886286+437247551+437124406+432360054
1768+426996493+423140771+422223938+424928229+429214958+431719611+432289240
1758+432991627+433962720+434942758+438054414+445239393+454301275+459858536
1748+459870078+457537412+456273822+457196704+459854045+462791895+464544354
1738+466356011+471878310+481941533+490122212+489420234+483458577+478149611
1728+475090582+474655678+476915266+480941639+486601929+495969706+510636948
1718+527028295+535947584+533691485+526960227+522237517+521808180+526056496
1708+534499016+545035780+554529968+562784505+573166094+586721023+598223833
1698+603301058+603662514+600468019+595622943+594037238+598220567+606601032
1688+617447292+632039860+650135343+662401444+661153812+654664317+652118875
1678+655887453+664484814+674025246+681584299+688809770+697433630+703886308
1668+704211280+702419257+704753147+711635311+718040335+720053484+720425963
1658+724544824+735568267+753552036+771698885+776054833+770300644+769522656
1648+775313439+778858812+772860857+762634108+755956666+754868552+759128967
1638+768002680+777113330+777108505+766321332+755070676+749712125+749174414
1628+750026185+750733360+751722454+751412476+746970943+740577054+737771293
1618+739674362+740463929+734499378+725272337+718655837+715925864+714968985
1608+713235825+710246794+707446155+705927441+705200448+704120795+702477526
1598+701153514+700731080+700585146+699773904+698309451+696886640+695847294
1588+695018236+694265857+693754942+693653992+694116064+696019726+700946936
1578+708922113+715396244+714483828+709352713+707709963+710849752+713780513
1568+712335360+708750200+706857004+708673448+716563560+732962997+752995768
1558+758808152+747470871+734725997+726645192+722815896+722242852+723509486
1548+726195145+732147969+743175123+758657171+775889526+788459295+785984890
1538+771858402+761674854+761073084+765244648+766549436+764463765+764848194
1528+770312298+778550022+787304746+796975598+806118315+809851412+807834996
1518+804996055+802719840+799473459+796426679+797042181+803788730+817048527
1508+832693061+837546413+824176609+807783556+800307416+801736091+808113947
1498+814258799+815332885+811428098+808314363+810604756+817277150+822187436
1488+820152834+813388916+807426517+804884119+805092181+806610227+809504913
1478+814943111+823064816+832224383+839041745+838966477+831616823+823622865
1468+821115429+824582119+829163053+829681168+828407630+832082977+843223181
1458+855965977+858118750+848056343+836929278+830683549+829265489+830855684
1448+832534657+831928656+829629950+827850843+827688208+829483720+834058938
1438+841134245+846582315+845965774+841983566+839951414+840498552+840737716
1428+839652051+839690427+842433391+846432077+850261893+854442810+857945130
1418+856706332+850299230+843638489+839983258+838661324+837641203+836409456
1408+836290171+837856762+839196734+838590807+837858692+839774157+843918108
1398+847574081+849320825+849141712+846845158+843500350+841728518+842693710
1388+844515944+844418333+842679606+842404442+845316869+850337383+855654441
1378+860669685+865651898+870073612+872310263+871887309+870722962+870746938
1368+872278938+875354668+880128967+884842695+885942167+882452466+877521842
1358+874114608+872539406+871664698+870424786+868519639+866394924+864572616
1348+863209634+862485684+862940556+865103721+868874228+873049281+875500750
1338+874752304+871536654+867907700+865381855+864434551+864867155+866161847
1328+867800291+869382099+870522694+871108504+871659576+872773671+874241687
1318+875478184+876605269+878043371+879307629+879415335+878501360+877892687
1308+878401077+879557779+880634685+881466341+882084961+882453431+882715308
1298+883020907+883186733+882858347+881701125+879436341+876183874+872623358
1288+869250715+865755150+861646680+857080666+852653979+848887925+846122173
1278+844339280+843031895+841845650+841161635+841371182+842048368+842492996
1268+842666394+843093356+844080742+845250434+845881227+845830752+845786141
1258+846315241+847271526+848364095+849510033+850648697+851926169+853716039
1248+856011925+858281385+860106440+861462742+862482343+863379394+864393132
1238+865663329+867282177+869241882+871279378+873202043+875202129+877409831
1228+879533210+881342231+883122748+885396662+888361717+891552130+894065430
1218+895469313+896423074+898022029+900657955+903730122+906140245+907230067
1208+907595568+908621998+911074135+914387173+917398546+919563567+921333841
1198+923480973+926176727+928777914+930737100+932549981+935107967+938391833
1188+941670355+944660128+947365606+949145455+949335851+948578795+948502563
1178+950087785+952831937+955554710+957680538+959614783+961972130+964751168
1168+967496507+969809242+971239773+971387190+970922223+971898030+975527282
1158+979999322+982429636+982414641+981689949+981425102+981533476+981654023
1148+981799510+982678152+985367523+989839861+994351317+997117736+998049229
1138+998342283+998940415+999716474+999885195+999136304+998206445+998104158
1128+999004623+1000306961+1001697779+1003543172+1006119567+1008977585
1120+1011451693+1013401971+1015154282+1017067891+1019306472+1021559825
1111+1023070670+1023758842+1024865069+1027100235+1028451490+1026214319
1103+1021294755+1017935844+1019198692+1024467353+1030636256+1034735892
1094+1036460219+1038360021+1042726509+1048222754+1050762035+1048607257
1085+1044503390+1041999961+1041704458+1041592447+1040840662+1041675583
1077+1045841654+1051172963+1054140616+1054445769+1053824477+1052777634
1068+1051395871+1050949165+1052136077+1053450440+1053230947+1052172375
1060+1052216986+1054118496+1057148872+1060422272+1063649947+1066197393
1051+1066410577+1062991764+1057642417+1054345041+1055198297+1058794517
1043+1062283402+1063708217+1062936241+1061649862+1062199524+1065493559
1034+1070136474+1073581861+1073741823+1070309574+1065136743+1060584164
1025+1057565591+1055865834+1055426921+1056113460+1057118661+1057657263
1017+1057986911+1058969844+1060356951+1060373356+1057999233+1054938720
1008+1054200444+1056495736+1058985432+1058596549+1055714185+1053532611
1000+1054361965+1057049035+1058011332+1055334061+1050812510+1046802393
991+1043199716+1038969437+1034518106+1031010664+1028974207+1028457948
983+1029320037+1030740250+1031175748+1029474135+1025879326+1021751037
974+1018199800+1015024530+1011463644+1007526048+1003871930+1000766880+997600221
964+993626624+989316030+986293523+985430766+985735325+985317419+982464003
954+976649096+969969724+966058405+966118456+967323926+966294748+962971615
944+959754332+958493265+959379998+961242167+962337259+961810460+960364564
934+958866709+957221658+955212665+953523968+953044378+953423834+953486038
924+953020477+952989004+953958279+955184458+955395713+954151867+952537992
914+952294152+953737004+954915306+954020260+951967843+950911201+951149920
904+951167067+950337416+949625491+949448233+948673734+946280312+943128647
894+941059677+940269961+939009265+936599513+934891740+935364352+936821976
884+937587716+938089872+939307515+940448406+940148672+938601454+936936436
874+935819892+935645529+936726147+938641834+940354656+941483893+942669470
864+944268276+945334196+944456222+941432972+937447722+933698146+930726633
854+928922289+928727142+930070454+931988443+933426767+934431969+935748113
844+937185250+937542882+936339120+934591263+933546275+933264281+932786324
834+931340948+929436024+928806789+930835155+935163341+940022706+943325575
824+943928681+942746593+941881683+942368251+943356454+943509884+942494884
814+941074597+940485372+941572893+943974925+946384454+947258346+945294113
804+940801066+936797703+936605377+940432744+945655531+949878313+952564566
794+953641695+952561522+949914239+947992094+948598169+950942526+952189192
784+950507176+946998992+944309027+944122343+946083458+948914902+951678724
774+952944541+950651922+945196577+940200483+938590097+939902011+942001710
764+943986282+946375992+949392710+952211238+953754076+953696178+952809297
754+952313896+952492045+952226826+950688442+949193630+949527806+950733796
744+950042209+947236968+945596297+947798877+952827854+957395427+959389648
734+959024964+957047221+953939128+951153706+950583928+952058105+953038589
724+951785390+949716198+949574644+952115261+955156103+955908780+954031394
714+951500575+949878164+949052818+948824937+949694004+951251613+951690452
704+950442894+949443631+949796736+949692074+947219079+942982120+938167812
694+933430553+929690108+927080013+924259184+920415041+916980492+915484789
684+914697596+912432961+909393158+907850171+907068620+904700139+901722242
674+900160328+897716430+889724032+876324017+866367460+868789311+877997794
664+884433845+886459985+887094267+889258620+892824702+894932419+892980953
654+887712070+882489877+879684339+879706904+882238168+884962574+883909644
644+878121385+870212419+862377681+855545473+851092361+849894314+851281272
634+854972652+861114833+867172838+868474360+863973519+857545707+853043233
624+850854310+848881912+846825487+847210362+850864628+854558903+854536635
614+850215055+843749535+838201776+836488361+839638245+844666628+845926433
604+840486750+831485587+824830414+823093988
##END=
