##TITLE=<SNM>
##JCAMP-DX=4.24
##DATA TYPE=INFRARED SPECTRUM
##DATE=3/5/2025
##SAMPLING PROCEDURE=Instrument type and / or accessory
##ORIGIN=Admin
##XUNITS=1/CM
##YUNITS=ABSORBANCE
##RESOLUTION=4
##FIRSTX=4497.3318
##LASTX=599.83466
##DELTAX=-1.4281778
##MAXY=1.7163967
##MINY=0.17664394
##XFACTOR=1
##YFACTOR=1.598519e-09
##NPOINTS=2730
##FIRSTY=0.20126885
##XYDATA=(X++(Y..Y))
4497+125909579+126137917+126786243+126983251+126475872+125716653+125089544
4487+124623862+124382454+124570037+125075329+125384264+125181486+124722534
4477+124491258+124691660+125203439+125877614+126558473+126837821+126242714
4467+124900301+123648358+123194607+123476099+123992726+124377131+124572265
4457+124848556+125576882+126590810+127001102+126168241+124656367+123678989
4447+123705743+124081432+123980533+123318877+122624893+122335691+122419411
4437+122466114+122003889+120953568+119818921+119200668+119124117+119074459
4427+118695601+118169755+117849111+117812057+117915967+118045271+118051768
4417+117685419+116977387+116484606+116741209+117633105+118547225+118932497
4407+118614575+117807862+116943884+116368819+116125276+115962144+115571810
4397+114931408+114290866+113742582+113137547+112568197+112410126+112703410
4387+113072527+113347504+113649560+113880816+113779842+113444898+113187820
4377+112965792+112503699+111911248+111707137+112197662+113133819+113969215
4367+114282588+113986106+113250072+112305218+111346306+110624385+110504748
4357+111217693+112502254+113692692+114316398+114502416+114670377+114930634
4347+115017076+114767921+114368470+114070059+113867989+113576271+113135114
4337+112642706+112171934+111768661+111548274+111617200+111957680+112484123
4327+113163481+114003277+114814148+115025064+114130614+112489809+111168884
4317+110770029+110979557+111342140+111810423+112382990+112844086+113147690
4307+113605076+114391980+115177831+115566012+115672961+115897730+116260238
4297+116323347+115785942+114930932+114362057+114403921+114945120+115729657
4287+116421292+116491616+115610496+114226209+113312947+113439809+114275606
4277+115009534+115207036+115158731+115268383+115456471+115576452+115948152
4267+116835723+117825499+118338546+118346283+118155688+117961085+117866105
4257+117958288+118321598+119116081+120300367+121259344+121352199+120799207
4247+120325881+120120288+119888341+119654913+119729860+120100339+120466026
4237+120657459+120635441+120344898+119873641+119558031+119659089+120006300
4227+120208547+120146799+119913044+119457019+118848870+118612291+119124993
4217+120008789+120741393+121353513+121971664+122330984+122257248+122055579
4207+122115547+122556666+123286316+124009347+124230563+123623879+122422758
4197+121301730+120903985+121486918+122759957+123915522+124194851+123689989
4187+123226693+123311736+123653792+123803529+123773317+123866750+124281964
4177+125030090+125973172+126798026+127149600+126961438+126541339+126237950
4167+126192488+126390996+126624583+126476795+125827248+125257720+125414047
4157+126025673+126111182+125279030+124343684+124354581+125367951+126583996
4147+127388192+127675175+127437496+126786327+126200066+126106027+126356086
4137+126539792+126604411+126796861+127152722+127433487+127540773+127651162
4127+127926791+128300233+128488078+128182573+127489428+127096437+127563509
4117+128570278+129327651+129504906+129362393+129280939+129471366+129874704
4107+130195422+130196550+129968174+129838843+130067349+130613517+131189831
4097+131531132+131539335+131220910+130707686+130299594+130242554+130446973
4087+130544199+130283905+129861439+129675803+129767036+129860861+129968435
4077+130389913+131072534+131544873+131543428+131252120+130949476+130760951
4067+130710035+130773163+130861674+130835041+130603953+130299445+130268235
4057+130725211+131429477+131897602+131975319+131975524+132162762+132391828
4047+132417007+132252914+132033067+131772372+131446900+131114725+130874044
4037+130844708+131179204+131924803+132869508+133664578+134093701+134100011
4027+133708316+133177894+133027234+133539227+134368024+134942344+135099519
4017+135066856+134994210+134802618+134417635+133915840+133472809+133343207
4007+133783078+134744562+135798015+136578590+137082063+137342628+137216018
3997+136724719+136193197+135821534+135501096+135183724+135094010+135490702
3987+136379913+137446893+138208898+138302667+137697259+136711762+135905571
3977+135789989+136429701+137353385+137965244+138034561+137762186+137475063
3967+137413427+137761645+138571379+139523280+140103127+140199124+140154798
3957+140164540+140092873+139936602+140071722+140881120+142171954+143118393
3947+143194776+142982135+143263721+143714218+143406326+142291461+141205959
3937+140834613+141479005+143131033+145071405+145966592+145210431+143817858
3927+143292208+144050504+145261338+146071640+146670019+147674831+148814018
3917+148840595+146971703+144031459+141630252+140670306+141102607+142806521
3907+146138739+151219504+156834737+160788844+161836490+160194147+156432779
3897+151758717+148418436+148167324+150429971+152211769+151467456+150347976
3887+151688272+154600317+156128551+156292345+157035381+157388381+155424397
3878+153004145+153318301+156608831+161006845+164854701+166391428+164426381
3868+161252793+160134767+160854750+160671538+158403643+155666625+154668413
3858+157147896+164350818+175044420+181572981+176913079+166812384+158798498
3848+155161716+155612437+158970206+163739789+168713893+173142632+175884189
3838+175385358+172009747+168248863+165570023+163564203+161872827+161224492
3828+162032398+163791786+166770305+171984615+177834675+179793961+177410736
3818+174745058+172664961+169073922+164433652+161625891+162427701+166543859
3808+171498573+174488241+176346329+179674269+183371148+183838882+181678971
3798+179925567+178354163+175550317+172529608+171226804+171907411+173665961
3788+175915585+178434723+180843341+183301533+186849766+191619200+195636415
3778+197265037+197892584+200191521+205567956+213532903+221845965+228236003
3768+232924150+237453788+242344909+248208896+256742233+268446027+280812306
3758+290952059+299651438+310188004+324702187+342053141+357294970+367252239
3748+375766001+387169239+399969301+408325374+412055495+417361830+427897614
3738+443237844+460171328+474194044+482469725+485627970+486264354+486722952
3728+488124288+490034410+491182341+491342527+491475606+492257561+494016855
3718+497506026+503821955+513590475+525527371+535385605+539554338+540448788
3708+542830224+548472519+556530404+564337271+568614100+569566309+571283245
3698+575905095+581875669+587602494+593966263+602425808+611095655+614716412
3688+611938723+607870629+606182665+606489466+607317433+608339183+611094163
3678+616923156+622533608+621954646+617894754+617513192+620222645+619914875
3668+614755191+608968109+606098880+606737241+609647598+613271003+616651219
3658+619128931+620796499+623885015+631490679+644271314+657689266+662395013
3648+654958708+644170116+638374086+638822355+642827471+647340591+651038086
3638+654078725+656254595+656995124+657574645+661064598+668384416+674495749
3628+673060556+667104712+663854219+665946938+672097721+678916098+682465935
3618+682166890+682132660+685707404+691375763+695212638+696047951+695428831
3608+693837106+691013180+688803379+690384738+696571690+704148568+709167156
3598+711132949+711729547+711982654+712621015+714297383+716555807+718488936
3588+719747461+719928976+718398178+715376257+712295720+710612789+710738821
3578+712559864+715716616+718529132+719150638+718395121+718547179+719537309
3568+719303069+717699636+716413891+715355674+713300839+711378971+712375664
3558+717014368+722516574+725192319+723946173+720640271+717566594+715912375
3548+716332232+718660309+720636467+719817859+717111464+715293702+715069158
3538+715100628+714932238+715217860+715333003+713794003+711357941+710908404
3528+713323361+715290645+713301585+708771462+706247551+707825928+711452054
3518+714029361+714570625+713924136+713249532+713623972+715519291+717927760
3508+719211119+719170624+718841675+718470068+717482399+716150120+715227405
3498+714263824+712286771+710052658+709672699+711773919+714664291+716438575
3488+716644998+716022373+715832356+716975216+719082477+720889798+721435537
3478+720352114+717512229+713113955+708288664+705182921+704968444+706215037
3468+706832889+707072573+708633126+711787865+715470445+718626601+720131447
3458+719073379+715954510+712342254+709809991+709488052+711297759+713909370
3448+716305459+718526671+720541757+721720114+721653370+720493880+718726830
3438+716983344+715572463+714557127+714389557+715366264+716531719+716246620
3428+713754702+709896871+706948107+707408681+711502467+715949290+717049269
3418+715000623+713171750+713708987+715662848+717096400+717292010+716372726
3408+714125040+710465877+706699549+704735248+705023480+706756599+709658530
3398+713785128+717671297+719026173+718071690+717403126+717929997+718016430
3388+716706821+715185867+714716866+714959458+715258652+716306727+718697820
3378+720702317+719774233+716430074+714052852+714153304+714308494+711991827
3368+708831346+708536104+711609034+714500301+714032717+710982606+708392547
3358+708060764+709697756+712268649+714938204+716723749+716239386+713147140
3348+709531827+708270990+709994191+712594168+714272102+715603635+717237645
3338+717975563+716895048+715376182+715411232+717191632+719340655+720704256
3328+721084140+720581133+719246094+717663020+717041811+717938424+719159065
3318+718970615+717343765+715736080+714932238+714745503+715467760+717659887
3308+720387760+721098011+718512352+714671823+712949965+714661159+717902479
3298+719523662+718423757+716743214+717317589+720277613+722884600+722727993
3288+719940460+716190763+713274141+712566724+714160538+716688028+718838766
3278+720589933+722392630+724013589+724647773+723653616+721322705+718799838
3268+716742319+714955804+713691760+713821968+715228599+716612111+717330863
3258+717978844+718882989+719356539+718982025+718553368+718774185+719043325
3248+718406083+716752759+714955729+714246075+715385430+718019935+720508049
3238+721247459+719963951+717467857+714697999+712070951+710052285+709924687
3228+712292438+714986007+714890178+712388714+711217367+713335815+716171970
3218+715632421+711055465+705857749+703382461+703789639+705002375+705251455
3208+704469613+703887854+704653290+706680682+708795923+709816106+709280211
3198+707680805+706455615+706857424+708140932+708038168+705913680+704030292
3188+704632335+706970032+708509182+708184707+706712674+704671114+702287926
3178+700258819+698652179+696189569+692577387+689974129+690469903+693113804
3168+694734763+693487499+690804893+689614082+690940992+692866141+693296885
3158+692675155+692410787+692106522+690399355+687536054+685328490+685099321
3148+686553978+688255328+688822619+687693556+685023404+681607877+678949731
3138+678329940+679441030+680539592+680097214+678092344+675920129+675234562
3128+676433427+677928354+677441306+674580168+671478675+670268848+670809739
3118+671517976+671444967+670525534+668872210+667112244+666294158+666535333
3108+666863313+666787396+666776657+667058475+667159226+666580973+665171210
3098+662982215+660291555+657831406+656703760+657605220+659831204+661575659
3088+661771567+661032754+660329514+659502031+657878761+655724294+654125484
3078+653925996+655066991+656468625+656710248+655277889+652823407+650167052
3068+647875367+646719457+647244688+648639162+649412578+649360226+649366714
3058+649411534+648427444+646196389+643821703+642102753+640777334+639570266
3048+638851439+638877764+639156525+638906475+637852136+636494128+635554187
3038+635074074+634405437+633244754+632123596+631720892+632135901+632739882
3028+632484165+630867681+628702923+627278618+626936245+626983824+626595289
3018+625377929+623632058+622304514+622018817+622202943+621877274+621095096
3008+620787475+621212887+621388623+620337341+618335156+616456094+615248429
2998+614310464+613091949+611670254+610477355+609617507+608781747+607647464
2988+606131022+604359720+602583422+601142152+600434064+600674642+601558056
2978+602287547+602156519+601100278+599726945+598888276+598969078+599446656
2968+599398331+598427031+596854322+595216473+593804771+592521338+591124029
2958+589712179+588770336+588661419+589280987+590102951+590399870+589609675
2948+587604246+584670249+581576101+579500535+579125796+579877510+580655028
2938+580915667+580590520+579638684+578157032+576356273+574294465+572149507
2928+570453339+569516083+569113491+569011062+569001927+568478299+567100753
2918+565667611+565108449+565117025+564909819+564527586+564237862+563597675
2908+562137350+560197994+558484563+557391259+556873523+556447775+555434042
2898+553597264+551388059+549398813+547864883+546776426+546099622+545631329
2888+544925068+543786646+542688755+542201334+542137834+541772641+540840866
2878+539878664+539499451+539590320+539477824+538863029+538178954+537858879
2868+537680943+537117120+536028179+534711075+533387446+531962992+530384653
2858+528947634+527989049+527469598+527106903+526707443+526110136+525115233
2848+523746896+522389523+521532919+521349987+521410467+520938967+519620522
2838+518030959+517015362+516785559+516846823+516614559+515794199+514300577
2828+512211586+509863337+507777889+506381661+505738118+505525319+505336831
2818+505021118+504618600+504016148+502950809+501475681+500174052+499653855
2808+499893278+500245010+500016103+498900463+497018791+494892178+493318872
2798+492830705+493086124+493067257+492110723+490524702+488964821+487555431
2788+486037087+484509944+483425365+482882534+482436204+481640565+480479062
2778+479238472+478143117+477156567+476103645+474916264+473673959+472504029
2768+471557003+470949367+470606733+470248700+469592628+468544254+467208768
2758+465778423+464474072+463520297+462964752+462504066+461757422+460727991
2748+459680029+458638255+457448451+456243061+455312292+454539063+453488789
2738+452100093+450796488+449835032+449001919+448038114+446960768+445918063
2728+445023389+444266864+443429464+442305807+441046387+439940592+438983275
2718+438031961+437124348+436248615+435136369+433662211+432181714+431173649
2708+430681231+430289303+429618689+428682215+427688058+426718138+425803403
2698+425085620+424620683+424168275+423424168+422387876+421334916+420462503
2688+419690467+418854930+418009960+417375962+416963451+416431882+415444213
2678+414037843+412512900+411115069+410002226+409327659+409083949+408983907
2668+408687546+408035650+407034893+405842330+404741531+403895516+403171022
2658+402367963+401499725+400710202+400073854+399607128+399335713+399180187
2648+398849932+398070551+396938989+395850831+395038487+394374696+393672686
2638+392956395+392306102+391619939+390765051+389900318+389377549+389305957
2628+389436202+389446679+389108744+388291478+387119460+385998041+385185585
2618+384523845+383848981+383335868+383092493+382775140+382050534+381166747
2608+380618585+380427599+380134893+379413195+378417583+377559488+377102904
2598+376952635+376734206+376111133+375116976+374142469+373524244+373233924
2588+373034474+372759031+372330450+371732248+371088704+370589314+370274086
2578+370029592+369768021+369503840+369294024+369145470+368975365+368689706
2568+368301283+367941050+367767402+367818710+367923487+367855214+367560904
2558+367113903+366587628+366128322+365910862+365886886+365824056+365617782
2548+365329141+365015442+364724227+364503523+364314289+364079266+363821126
2538+363623092+363498888+363384266+363221357+363039917+362954230+363025897
2528+363146484+363149989+363047673+363025002+363143800+363205249+363031042
2518+362702503+362360466+361962683+361428839+360868484+360512874+360497362
2508+360746293+361018193+361069314+360796296+360257753+359622600+359048560
2498+358539437+358020956+357592039+357503183+357822251+358297964+358587053
2488+358481940+357952757+357140302+356324378+355755410+355462592+355299757
2478+355175441+355122493+355151465+355183570+355129130+354920321+354509935
2468+353945292+353397279+353044204+352927532+352900983+352731065+352323998
2458+351855444+351613784+351715952+351991357+352128388+351975994+351685376
2448+351472689+351336888+351178193+351026023+350898351+350626078+350089587
2438+349474158+349093304+349080813+349322137+349544482+349475165+349060566
2428+348525268+348137478+347966926+347922218+347931764+348000335+348137963
2418+348320336+348508265+348667892+348790903+348877373+348842956+348546745
2408+348038891+347616387+347453515+347388710+347255706+347189185+347420814
2398+347938028+348447598+348604056+348296025+347752560+347330541+347196195
2388+347206151+347025605+346347272+345011078+342922162+339995995+336316211
2378+332214707+328053767+323986306+319960123+315933305+312134202+308992942
2368+306651628+304821338+303320035+302346852+302162745+302981129+305085202
2358+308604762+313326728+319113922+326265574+334764048+343250291+349615291
2348+352531577+352220003+350210472+348013647+345705146+342567857+338561622
2338+334220957+329851170+325543802+321627579+318597230+316669993+315672704
2328+315289725+315208997+315171859+315124877+315257732+315827857+316985817
2318+318632765+320370732+321794999+322897514+323990445+325268695+326696915
2308+328230286+329806798+331159473+331982817+332334922+332590825+332951544
2298+333281649+333486954+333752254+334258430+334878296+335327498+335512108
2288+335584222+335710514+335930734+336211471+336473564+336565888+336376281
2278+335997180+335659356+335498013+335470048+335455804+335340847+335054741
2268+334653938+334331626+334228302+334260258+334235722+334094925+333934254
2258+333838425+333784060+333706763+333618504+333622755+333788870+334054878
2248+334299372+334461647+334566686+334678883+334813864+334895113+334899849
2238+334993403+335308183+335661593+335777408+335729792+335866003+336312072
2228+336830889+337190005+337441135+337762441+338195833+338624526+338894524
2218+338936249+338890609+339082117+339715444+340635809+341500355+342108140
2208+342491753+342806235+343222922+343847934+344658823+345545332+346429416
2198+347288146+348060704+348683217+349266131+350040069+351036016+352019248
2188+352824470+353562164+354415822+355378098+356263003+356940777+357496956
2178+358099819+358770918+359405922+359952892+360442401+360910992+361398487
2168+361982408+362764512+363814824+365104857+366538894+368111117+369984922
2158+372348609+375243567+378565614+382127048+385637658+388762157+391376975
2148+393667578+395862092+398104482+400653972+403775898+407316674+410829895
2138+414155336+417481523+420953578+424564976+428289281+432132010+436143390
2128+440350753+444659613+448967950+453237770+457235950+460460454+462524984
2118+463390649+463210476+462205617+460654759+458858848+457177894+456076349
2108+456056736+457622956+461251246+467086503+474445398+481670432+486662733
2098+487830537+484858245+478758919+471090463+462908000+454413218+445502905
2088+436310065+427127591+418179730+409656721+401787435+394802458+388871372
2078+384028221+380139255+376982428+374358028+372142260+370278635+368723824
2068+367427788+366356745+365448348+364566128+363604262+362594817+361676913
2058+361027030+360754124+360770567+360848349+360806587+360597032+360377036
2048+360550087+361477388+363147230+365354757+368131849+371879123+377210180
2038+384639996+394229947+405550369+417966334+430733098+442868549+453212824
2028+460653379+464412659+464428768+461433581+456547401+450803200+444756113
2018+438326121+431289650+423960323+417035602+410863565+405206579+399653215
2008+394080089+388712677+383808897+379397422+375393686+371809768+368682957
1998+365966830+363692708+362031255+360918039+359806837+358152767+356036259
1988+353994884+352423070+351344868+350533419+349722678+348845455+348073344
1978+347573357+347327708+347177365+346928993+346542509+346291043+346466256
1968+346852218+346820226+346075857+345002949+344154362+343717018+343566116
1958+343565146+343598518+343467677+343031563+342432839+341988224+341877518
1948+342119849+342800157+343956589+345063914+345111306+343770413+341988261
1938+340834439+340434681+340337063+340289409+340327144+340447172+340516974
1928+340544791+340910580+341931883+343192011+343984891+344412838+344974014
1918+345257324+344403293+342726067+341502182+341459563+342238684+342900237
1908+342788636+342067199+341337186+340898387+340685700+340692673+341071215
1898+341847762+342684343+343111768+343246413+343810833+344888104+345360945
1888+344437299+342892183+341856413+341546443+341645776+341893327+342065222
1878+342019396+341843176+341799326+342411660+344432787+347946865+351277489
1868+351861559+349300659+345882895+343613098+342706790+342491902+342476615
1858+342485303+342448239+342373589+342352037+342569833+343282806+344716731
1848+347095221+350398998+353422075+353869002+351281665+348133190+346538445
1838+346452162+346751654+346988168+348040158+350845142+354542972+356741587
1828+356568686+355478662+354297099+352502269+350322260+349018841+349146252
1818+350033320+350841711+351540179+352651978+354209212+355361580+355370641
1808+354658116+354353776+355290436+357603039+360606615+362972688+363781377
1798+363642034+364260558+366912551+371111039+374128710+373429086+370338481
1788+368163879+368293528+369968180+372133423+374486035+376741812+378286555
1778+379316807+381308738+385645227+391834267+396880970+398004254+396040549
1768+393354065+391426791+391484064+394075577+397621498+399616562+400050401
1758+400688016+401868572+403247200+405872272+410917558+417100706+421052576
1748+421294609+419672382+418513750+418923203+420856258+423238327+424786277
1738+426183809+429926646+436600012+441973241+441576242+437826694+434633399
1728+433077283+433333485+435303081+438205571+441888598+447854361+457297586
1718+467857569+473579435+472166839+467844407+464708610+464318471+467119875
1708+472816162+479694087+485505965+490600470+497691605+507131847+514632136
1698+517360121+517225998+515264158+512397800+511573226+514463187+520246018
1688+528153523+539225015+552879779+562086714+561624947+557655850+556801819
1678+560719273+568269005+576576940+583286214+589282441+595892456+601022571
1668+602214016+602219833+605325837+611754002+617839718+620849782+622799094
1658+627379518+636751188+651412899+667627109+675182360+673947699+674537809
1648+679740150+684680136+684552837+681792151+680854372+683121969+688592108
1638+696664163+704128656+705060618+699004620+692800664+690598992+691759674
1628+693966120+696058168+698272593+699602262+698143056+695347022+695090410
1618+698216886+700455100+697256735+690531129+684366101+679940458+676437902
1608+672946382+669547112+667104190+666150154+666265969+666691194+667335745
1598+668659001+670502490+671734541+671425951+669838924+667868955+666022631
1588+664224408+662396579+660986369+660581129+661172582+662590772+665451164
1578+670216496+674695684+675176767+673098217+673404272+677258449+681386091
1568+683092363+684403687+688164123+695012554+705667881+722108202+742480704
1558+755052381+755721615+755068862+758244855+764595275+772949521+782321490
1548+791890261+802128118+814070980+827364988+840183433+848514933+846507603
1538+837192087+830477816+829326008+830217401+829196024+827308908+828145787
1528+832289985+837664146+843275678+849983759+856668797+859783862+859182565
1518+858279091+858292664+858514375+859121339+861209211+866076412+874655352
1508+884896267+888815323+881745853+872412588+868207761+869664953+874607400
1498+879290551+880185971+877856701+876191743+877397916+880426102+882564386
1488+882351624+880811057+879373478+878609086+878493570+878837956+880030110
1478+883220123+889149270+896824735+902920109+903020189+896979627+890576483
1468+888318655+889731997+891343261+891216931+891898098+896832491+906225341
1458+915228238+915656820+907640771+899624722+895219736+893408835+892639148
1448+891719044+890002406+888048545+887014043+887333745+888936731+892074393
1438+896371320+899180032+898050746+894956710+893003073+892325710+891471754
1428+890439787+890612651+892336076+894770199+897733877+901635632+905031696
1418+904680598+900230717+894879152+890971133+888807568+887903199+887998431
1408+889043000+890267817+890177656+888642683+887797228+889312588+892218099
1398+894159431+893962106+891848133+888176665+883807623+880453993+879137672
1388+878763158+877128626+874124305+872265378+873469538+877236089+881617137
1378+885110669+887792380+890620407+893850393+896984400+899974851+902955682
1368+905434773+907218081+909003775+910889251+911668558+910664109+909066493
1358+908560726+909713504+911754095+913455669+914270325+914469290+914581749
1348+915150457+916468343+918193408+919820408+921601851+924159694+927119718
1338+929157475+929835361+930335086+931889748+934344677+936467077+937244370
1328+936804006+936192641+936326802+937327074+938889417+940730296+942402041
1318+943490982+944231958+945043183+945604582+945232454+943881232+942297710
1308+941452852+941787917+942783118+943647142+944334722+945108809+945528814
1298+944910067+943356449+941617140+940306488+939546868+939048485+938366647
1288+937125498+935049782+932136069+928928158+926150021+923959087+922012087
1278+920183885+918635414+917295304+915804329+913877614+911468921+908715842
1268+905958437+903681518+902213587+901400871+900530806+898698577+895658534
1258+892185882+889089237+886024136+882107988+877701510+874379947+872938565
1248+872515427+871907791+870866428+869875403+869422510+869723793+870647402
1238+871804356+872986889+874305820+875587687+875975923+874847904+873059749
1228+872383430+873570139+875738104+877788390+879643886+881756070+884080791
1218+886065451+887391466+888383461+889645043+891450127+893674470+896233133
1208+899204195+902399502+905230736+907277293+908830016+910616680+913055874
1198+916037748+919294133+922458716+924849063+926150021+927133589+928811150
1188+931197022+933614515+935821706+937968567+939987382+941864803+943835145
1178+945716892+946744011+946844240+947590436+950731677+955831104+960250409
1168+962092482+962298979+962860453+964119575+965150199+965847772+967095111
1158+969265760+971759916+973970463+975866827+977633430+979332617+980996979
1148+982839723+985026854+987280654+989177838+990607736+991738440+992898004
1138+994241320+995179099+994801004+993306301+992125185+992258674+993574994
1128+995811642+999068027+1003120498+1007380511+1011848886+1016968076+1022077421
1118+1024988301+1023817551+1019122990+1013771276+1010708488+1011312096
1110+1015540490+1021917309+1027025909+1027982630+1026838353+1028908924
1101+1035259120+1040464369+1039765826+1034916672+1030497293+1028792662
1093+1029775036+1032843567+1037095376+1041046053+1043588905+1045123208
1084+1046406641+1047178267+1047085794+1047111373+1048651866+1051524488
1075+1053961743+1054547230+1053167521+1050352694+1047057381+1044613937
1067+1043919943+1044953923+1047470004+1051475045+1056349778+1060625004
1058+1063450869+1065099569+1065314195+1063027284+1058870333+1055952667
1050+1056793946+1060660800+1064907241+1068023798+1070187512+1071279064
1041+1070342553+1067526682+1064253890+1061559725+1060430886+1062498101
1033+1067745335+1072731856+1073741823+1070524888+1064923945+1058485229
1024+1053755991+1054119916+1059649938+1065767238+1067722664+1065266990
1015+1061933569+1061077152+1062760529+1064038891+1061976300+1056495498
1007+1050575001+1047795821+1049442881+1053820871+1057921741+1059380947
998+1057465642+1053223228+1048994835+1047019348+1047866667+1050036347
990+1051086212+1049510073+1045758809+1041406547+1037477199+1033869493
981+1030344788+1027433535+1025794977+1024881137+1023002000+1019121051
973+1013873667+1008410315+1003398812+999380570+996576333+994209551+991294570
963+988018348+985209636+982865824+980334083+977518734+974856860+972165454
953+968528812+963710010+959011199+956083391+954976327+954171143+952478816
943+950216961+948686164+949032638+951220739+953611831+954268985+953085781
933+951595850+950706694+950016131+949144128+948266158+947580666+947332481
923+947848763+948613975+948594511+948306354+949539449+952229811+953679247
913+952242190+949805010+948966490+949478447+948896390+945984317+942176750
903+939577146+938767860+938966751+939026560+938227267+937145633+937028029
893+937631712+937312457+935881515+935128086+935731023+935889644+933959125
883+930869042+929003777+929579271+931667291+933472524+933996040+933303911
873+932011976+930875157+930067661+928912721+927206001+925906534+925386822
863+924411011+922116194+919806164+919471919+921205933+923132724+923911434
853+924323758+925772225+928041836+929634083+930008150+929861835+929057918
843+926329448+921985688+918997176+919806238+923377776+926734241+928569154
833+929662049+930573204+930808860+930063410+929131971+929149421+930287881
823+931705101+932760708+933829962+935631093+938137553+940722093+942684008
813+943432888+942992822+942185848+941883149+942283243+943003039+943338700
803+942557902+940813820+939554475+940000955+941549277+942855530+944024565
793+946114152+948733742+949996667+949218702+948114846+948496221+949607088
783+949218628+946982352+944885905+944201158+943941041+943191863+942969704
773+944138814+945389359+944967564+943395154+942665588+943085295+942891699
763+941231589+939788267+940381137+942480419+944125689+944059392+942296517
753+939753366+938110706+938813649+941058799+941944375+940134444+938193783
743+939474382+943787268+947507061+947779781+945665883+944467167+945949938
733+948681242+950270431+950744876+951730159+953150884+953389300+951724268
723+948186960+942861794+937346389+934360487+934365111+934812336+933686480
713+931984906+932081182+934943811+939190774+942382054+942789382+939948678
703+935079538+930954580+929791809+930742340+930466264+926995103+921710283
693+916995438+913913335+912228988+910828994+908228868+904110995+900213043
683+898610206+899357670+901223457+903448696+905049594+904809761+902186740
673+896581398+887161776+875410870+868207910+871866924+880441241+885496445
663+886649521+886860717+886553021+883884659+878984496+874598824+872418853
653+870902224+867862703+864764715+866352190+874494420+882964778+881841607
643+870005760+857071053+851175391+851996907+854449375+855214438+854231393
633+852336223+850608100+850159085+851170021+852739076+853141556+850353203
623+844283184+837938283+834026012+831950968+830535388+830805573+833286678
613+836017235+836265346+833337314+829986070+830029100+834454445+839835318
603+842187333+841069382+838454266
##END=
