##TITLE=<SNM>
##JCAMP-DX=4.24
##DATA TYPE=INFRARED SPECTRUM
##DATE=2/5/2025
##SAMPLING PROCEDURE=Instrument type and / or accessory
##ORIGIN=Admin
##XUNITS=1/CM
##YUNITS=ABSORBANCE
##RESOLUTION=4
##FIRSTX=4497.3318
##LASTX=599.83466
##DELTAX=-1.4281778
##MAXY=1.8236611
##MINY=0.30508828
##XFACTOR=1
##YFACTOR=1.6984167e-09
##NPOINTS=2730
##FIRSTY=0.32441357
##XYDATA=(X++(Y..Y))
4497+191009403+191454082+192304872+192625756+191871195+190628788+189896179
4487+190139557+191125231+192427017+193814696+194911584+194922077+193504375
4477+191703216+191039075+191819167+193102880+194046476+194487786+194499701
4467+194133176+193549208+193065715+193030059+193582530+194428494+194938150
4457+194595613+193383388+191790285+190458546+189817216+189958769+190638966
4447+191300229+191408495+191017053+190755005+191142901+192081199+192995035
4437+193333150+192891928+191816342+190508345+189491454+189085256+189129299
4427+189197663+189065515+188877638+188874375+188920050+188587216+187939780
4417+187667133+188026147+188423379+188538488+188866636+189582015+189956663
4407+189504176+188737612+188304953+188194757+188082105+187780522+187199449
4397+186346168+185448071+184817849+184665558+185118519+186118512+187201380
4387+187801579+187840411+187568097+187005782+186131497+185371022+185184742
4377+185296078+184916025+183753493+182404751+181606972+181418445+181468016
4367+181808202+182900756+184629288+185875098+185501239+183686235+181922574
4357+181535853+182413402+183431100+183869936+183868848+183733051+183538752
4347+183391549+183526942+184068025+184884861+185656373+186036567+185840688
4337+185130925+184167254+183220693+182437231+181938402+181911660+182397768
4327+183074227+183441470+183191038+182333405+181147623+180111536+179630990
4317+179725973+180165265+180822177+181622413+182277640+182509718+182504910
4307+182709194+183201057+183615468+183613081+183180246+182612720+182318332
4297+182418368+182585382+182518509+182407787+182631197+183180597+183648983
4287+183632330+182954748+181694040+180324260+179696897+180416400+182097115
4277+183548701+183912909+183395830+182813213+182719406+183069349+183528083
4267+183884325+184116526+184222036+184114736+183733139+183265438+183118814
4257+183459930+183957180+184269080+184530304+185020448+185654110+186077504
4247+186013211+185410117+184549676+183952829+183874130+183980149+183846370
4237+183559054+183396673+183247926+182914530+182695858+183080877+184035388
4227+185052893+185718841+185866324+185465917+184741133+184156375+183982255
4217+184066499+184260570+184728657+185487868+185982785+185573884+184315545
4207+183014163+182568361+183182633+184150181+184649888+184693843+184835045
4197+185173968+185294218+184998970+184556713+184318282+184381750+184565890
4187+184634008+184506142+184219597+183834965+183483040+183366070+183616538
4177+184203015+184919903+185444632+185603855+185589940+185704558+185936934
4167+186032127+185900962+185725175+185633299+185499537+185240401+185077108
4157+185228259+185589343+185970870+186316092+186494406+186292702+185733001
4147+185040680+184366923+183881464+183837684+184188644+184550080+184777578
4137+185091391+185569357+186077662+186578404+186995271+187106327+186969091
4127+186930768+186952632+186561190+185655426+184802285+184574172+184947399
4117+185437631+185608610+185422031+185184303+185171985+185318731+185250842
4107+184729903+184116105+184139126+185076072+186368874+187204678+187267199
4097+186805201+186217565+185701890+185201622+184620040+184074764+183899222
4087+184300507+184995654+185395149+185273565+184987740+184864700+184724446
4077+184299191+183790272+183615626+183821839+184071324+184095750+183932562
4067+183771777+183699413+183598938+183364895+183176158+183308691+183680813
4057+183935913+183973797+184010980+184160604+184335373+184494298+184702652
4047+184983090+185159860+184888792+184070219+183212796+183002319+183503482
4037+184096153+184176940+183758389+183459965+183927719+185106569+186209757
4027+186597706+186441344+186294509+186329112+186319760+186157186+186010193
4017+185987119+185890224+185500239+184999041+184847153+185212519+185740003
4007+186006035+186047165+186293123+187092587+188357682+189528145+189943661
3997+189488173+188765179+188389811+188337082+188232238+187896860+187379693
3987+186889515+186846700+187529598+188588234+189294049+189347234+189171640
3977+189315141+189775068+190096514+189984686+189523092+188906995+188313534
3967+187974172+188102775+188784147+189967648+191355941+192327314+192366392
3957+191689617+191092208+191079890+191585861+192533318+193828786+194743728
3947+194635778+194321352+195009286+196110614+195901768+194210752+192543583
3937+192079128+193150116+195641562+198547031+199896598+198690602+196497791
3927+195722314+196942681+198617290+199315315+199631093+200971886+203176962
3917+204228964+202528350+198974988+195881589+194550640+194852661+196712849
3907+200913822+207747636+215224271+219852516+220089894+217102427+212276372
3897+206907006+203165679+202898577+205476635+207451423+206416950+204936236
3887+206464152+210097511+212404220+213197701+214359127+214535388+211765365
3878+208667649+208878442+212340472+216936589+221262884+223592703+222244154
3868+219491748+219092375+220604955+220310198+216987616+213551258+212923948
3858+216245373+223812217+233920481+238994073+232512044+220911696+211827657
3848+207569059+208093174+212386919+218929784+226371482+233478487+238087817
3838+237829295+233607739+229104393+226036192+223466890+220699920+218624516
3828+217983169+218645994+221348075+227309165+234446807+237406813+235711060
3818+233700511+231316401+225620816+218379541+214215557+215324394+220889990
3808+227415395+231320314+233915954+238417598+242846877+242388370+238507123
3798+235810148+234390639+232317166+230079627+229440859+230882004+233976421
3788+238401419+243664257+248884191+254114690+260926675+269962160+278890679
3778+285318856+290833442+298870584+310906084+325866548+340728327+352172699
3768+359468791+363715826+365458044+366183618+368459479+372279768+374414902
3758+373513471+373254827+378349492+390524842+406627308+419005854+424580293
3748+429707667+439181392+449796171+454549861+454644054+457620958+467430044
3738+483583256+501977446+516407601+523713063+526674561+530039783+536557239
3728+546448130+557494182+566209696+571432386+574669970+576515857+576496555
3718+575496755+575803338+579271842+585529181+590129649+586860235+576066580
3708+564296885+556821882+555248116+557720224+559964115+559283672+557498148
3698+557693763+560979917+567053923+575280715+584222517+590580049+590703581
3688+585596667+580579559+579053521+580947277+584574687+588395713+592371680
3678+596838264+599245448+596376073+592034214+591799153+593531685+590080658
3668+580452904+570766332+564784835+561749499+559854235+559511118+562434539
3658+567632031+571009921+571599645+574014234+581313134+589811415+591013533
3648+581938899+569004672+558274502+551663309+548598705+547467758+547135205
3638+547682008+549479184+552628892+558026527+567372509+579571723+586771973
3628+582087488+571969995+565444010+564941601+569813348+578041754+584979043
3618+586547861+584768794+584273123+586591729+590511405+594368261+596366106
3608+595141528+591484568+587885092+586837564+589925822+596444367+603237839
3598+607754328+609787407+609416812+606784674+604449503+605779013+610482975
3588+613669111+611431572+606570318+604129233+605152371+607075324+607578225
3578+606752668+605543882+604162502+603269845+604818203+610043455+617169691
3568+621707868+620654760+616223410+612020173+609080960+607012997+605447934
3558+604128321+603036749+602448079+602214772+601697623+601157804+601899696
3548+603976363+605146054+603449458+599798534+596388988+594023987+592515847
3538+592362485+594299336+597495509+599689320+599334307+596826473+593618649
3528+590836518+588922197+587954368+587691793+587612515+587340394+586497746
3518+584452875+581240489+578220033+576801980+576963870+577389282+576498625
3508+573639463+569976993+567684110+568023998+570372470+572718906+573158321
3498+571442739+569007269+567192931+565956246+564714717+563447885+562195442
3488+560829082+559736915+559437385+559583798+559354107+558485243+557181527
3478+555523886+553736291+552523188+552198216+551953854+551197854+550931208
3468+552096548+553280697+552269352+549425735+546944678+545507323+544061546
3458+542166948+540618380+540068664+540222447+540254488+539616088+538495003
3448+537553845+537167563+537086601+536779105+535851424+534257549+532265459
3438+530377284+529357831+529719302+530747072+530975711+530175738+529455814
3428+528998115+527626492+525166140+523344153+523458419+524342864+523673898
3418+520769815+517042631+514213649+513104882+513579356+514795968+515709611
3408+515853673+515661286+515727650+515968396+515846970+515163053+514210245
3398+513284529+512371693+511258223+509653398+507372027+504891812+503488955
3388+504019229+505548460+506116109+505200852+504319670+504721885+505731757
3378+505877223+504725886+503162473+502449182+503175598+504642327+505432825
3368+504944032+503759636+502528917+501612816+501562351+502573381+503803504
3358+504360450+504390631+504377400+504315248+504188242+504199016+504103806
3348+503262000+501595480+499782722+498549370+498260474+498935793+500148334
3338+501007195+500662078+499097823+497281942+496262243+496224728+496521274
3328+496410306+495714001+494899359+494503285+494506268+494500126+494213196
3318+493540299+492442200+491151855+490156863+489717659+489597531+489332921
3308+488727826+488091988+487927677+488411135+489248379+489915766+490063442
3298+489969004+490361673+491422888+492446306+492757066+492331197+491471564
3288+490578661+490012661+489704814+489357873+489088068+489283929+490003712
3278+490918338+491524696+491300971+490088745+488302414+486524539+485142458
3268+484402285+484483142+485347865+486553036+487419478+487533429+486996732
3258+486165736+485313191+484508516+483653444+482756752+482205070+482346289
3248+482731484+482386823+481136731+480026700+480040106+480974245+481958182
3238+482508284+482444588+481454334+479648560+477888408+476739528+475716566
3228+474259699+472824029+472190753+472179383+471847953+470787650+469535734
3218+468731409+468342284+467797586+466705102+465308457+464172737+463522160
3208+463109943+462658736+462141412+461622193+461061738+460416460+459854215
3198+459693063+459915279+459869095+458903583+457220358+455575666+454299850
3188+453267237+452638068+452748930+453197014+452858600+451167163+448840590
3178+447051837+446214979+445769107+444927898+443377294+441326492+439247615
3168+437682517+436881526+436417580+435645261+434659324+434146948+434276445
3158+434424438+434038015+433236147+432467407+431852556+431038826+429763010
3148+428317689+427152280+426295770+425521731+424720038+423830855+422786451
3138+421727658+421039565+420912418+420826332+419871172+417913861+415979607
3128+415084213+415219852+415778728+416361608+416779370+416739713+416005823
3118+414762188+413590111+412955572+412768168+412583994+412110081+411324883
3108+410373759+409558870+409139775+409041651+408953214+408718363+408478459
3098+408363174+408141554+407353759+405849900+404044583+402574204+401860001
3088+401984165+402688366+403341575+403188739+401970022+400233032+398785676
3078+397945028+397532074+397352111+397303295+397217279+396978884+396645559
3068+396218427+395506014+394419777+393232819+392337320+391804378+391333028
3058+390604366+389617481+388700117+388171282+388006339+387922780+387746817
3048+387507861+387184678+386612958+385662360+384370050+382969860+381860952
3038+381415466+381677163+382206735+382299209+381562089+380272762+378936619
3028+377712918+376630296+375956135+375818145+375779190+375267727+374240027
3018+373101114+372176345+371539245+371164157+370928149+370571591+369974673
3008+369367262+368968942+368612034+368024276+367234304+366440052+365788492
2998+365410281+365288118+365068218+364406726+363461884+362655769+362062571
2988+361388692+360427496+359299918+358404769+358112996+358249407+358136158
2978+357501619+356828792+356408925+355821938+354837089+354003285+353811284
2968+353948432+353835078+353416333+352982533+352495180+351633932+350477121
2958+349551124+349093706+348785613+348308261+347680531+346977839+346155019
2948+345209510+344300183+343663539+343402894+343351305+343251918+343038265
2938+342769232+342391583+341784839+340964616+340089471+339335928+338838783
2928+338632744+338547079+338299700+337833017+337346891+336875997+336155056
2918+335065731+333887161+332967727+332427205+332254507+332425381+332781868
2908+332980115+332785833+332321642+331795720+331173323+330397144+329630967
2898+328979898+328318933+327624138+327087476+326778226+326535128+326233072
2888+325901607+325591690+325297740+325007581+324715597+324341949+323762543
2878+323046655+322487323+322204008+321962243+321589858+321254744+321123386
2868+321070464+320916681+320675267+320416939+320096879+319612123+318916835
2858+318058395+317187532+316504422+316097224+315882377+315756950+315685814
2848+315583514+315296759+314758554+314002378+313085752+312170845+311553748
2838+311409651+311576945+311717217+311636851+311381225+311066289+310700993
2828+310210551+309603280+309015417+308535608+308095878+307639933+307268355
2818+307066914+306916079+306629781+306182890+305672620+305166667+304708476
2808+304360131+304097029+303723486+303076348+302306065+301732344+301388210
2798+300994734+300456563+300013113+299750748+299357552+298592392+297689102
2788+297049930+296743277+296500951+296086383+295510030+294926273+294410949
2778+293887290+293275703+292627600+292020663+291443643+290909526+290523876
2768+290310029+290147069+289961543+289745784+289363502+288639403+287670363
2758+286775670+286125497+285615367+285082391+284503862+283990767+283640334
2748+283391322+283047241+282485733+281789411+281116321+280516665+279945068
2738+279387456+278902576+278554055+278322521+278104884+277831939+277525496
2728+277176343+276687586+276045765+275403031+274876828+274416637+273957183
2718+273563426+273329769+273203324+272992285+272583683+272102435+271760670
2708+271580900+271380740+271007916+270495277+269996728+269616307+269312864
2698+268973240+268536492+268027468+267545869+267226442+267094821+266996802
2688+266807188+266617627+266544964+266481847+266230643+265780436+265283958
2678+264830382+264367051+263826459+263256634+262811148+262624218+262690090
2668+262837749+262827923+262511197+261931879+261287549+260773453+260444813
2658+260228650+260054407+259898905+259711414+259433994+259113724+258851447
2648+258661499+258511735+258392432+258223225+257881196+257425042+257062851
2638+256846495+256626577+256300482+255918498+255596316+255435619+255454711
2628+255551553+255586209+255465151+255154462+254735682+254410552+254292986
2618+254246240+254057977+253707772+253375201+253234122+253270919+253296467
2608+253176357+252996359+252899639+252859684+252779582+252699409+252716728
2598+252803832+252844717+252753893+252494494+252110791+251785608+251712910
2588+251857112+251956692+251832318+251597257+251457985+251394570+251239173
2578+251029871+250995163+251167651+251314415+251274179+251095462+250868472
2568+250664364+250571452+250610074+250700862+250812708+251025010+251400010
2558+251887048+252348853+252617113+252552627+252126531+251477270+250860366
2548+250472855+250300455+250184468+250017051+249786026+249493357+249166086
2538+248887052+248682856+248452989+248121874+247761334+247464910+247228533
2528+247045815+246978013+247037111+247122899+247134305+247049272+246893067
2518+246710472+246550179+246427717+246337631+246300185+246327594+246360038
2508+246307414+246142191+245913955+245707917+245606214+245627130+245680158
2498+245645730+245517794+245404457+245381049+245402597+245370574+245247270
2488+245091680+244970271+244838282+244589569+244250488+244002021+243947502
2478+243975157+243907126+243679926+243347689+243002169+242712062+242492232
2468+242334150+242261768+242290651+242333659+242245853+241988893+241669869
2458+241397625+241173408+240940593+240692599+240502494+240428462+240382945
2448+240182908+239805522+239476286+239375056+239378776+239247436+238941098
2438+238605966+238363921+238248917+238237933+238233388+238113208+237878375
2428+237660527+237536118+237440732+237316726+237245046+237363384+237695498
2418+238091274+238327142+238294259+238115068+238036720+238166077+238351445
2408+238384907+238276484+238226141+238343233+238522091+238631269+238717460
2398+238947292+239410431+240089347+241039822+242544470+245094593+249298777
2388+255802530+265169393+277765856+293768391+313222163+335982743+361590168
2378+389271908+418088420+447000178+474871883+500746375+524134054+544652603
2368+561562973+574222343+582816782+587965739+589470229+586168949+577404724
2358+563819603+546219034+524499525+498891258+472852245+452601219+442853232
2348+444955868+457457174+475778262+493001076+504628780+510781924+513022937
2338+512630688+511084892+510095480+510561918+511629344+511463875+509076589
2328+504721991+498911718+491971551+484181929+475724673+466613822+456884927
2318+446772416+436654396+426847346+417395098+407979594+398126957+387641535
2308+376776884+365923078+355304439+345101104+335613973+327050347+319269568
2298+311954770+304981615+298449173+292390398+286673037+281234536+276218955
2288+271792097+267966140+264664773+261815998+259340345+257179680+255358517
2278+253902001+252691934+251508311+250241444+249003617+247982199+247209687
2268+246553530+245911130+245305737+244802451+244427767+244136186+243794421
2258+243292977+242705289+242205670+241822388+241406925+240843171+240193401
2248+239630788+239245225+238945801+238608738+238255322+237982236+237806554
2238+237685479+237595726+237524010+237452892+237378054+237304514+237248117
2228+237237606+237275877+237322885+237337713+237306637+237254452+237253557
2218+237369140+237570668+237749140+237846211+237936964+238163428+238585822
2208+239114253+239590552+239919894+240130425+240323741+240562014+240820307
2198+241056860+241277182+241524491+241858676+242312602+242825241+243283712
2188+243639533+243906231+244088967+244196426+244265842+244337540+244448560
2178+244619732+244808171+244917191+244875236+244692606+244455965+244259086
2168+244124851+244008566+243855889+243630707+243336143+243025384+242764511
2158+242600708+242550541+242560683+242527484+242415182+242319849+242398162
2148+242735733+243303488+244144679+245561872+247874653+251018623+254647543
2138+258544285+262705672+267209123+272194435+277796283+283988574+290601118
2128+297483134+304616529+312096480+319965732+328087101+336240230+344218695
2118+351756621+358507630+364129622+368351986+371043363+372197332+371857023
2108+370202189+367573911+364225991+360259184+355809129+350997463+345776949
2098+340004297+333530533+326264481+318324936+310036589+301813763+294158972
2088+287493418+281843947+276938334+272551800+268575675+265000765+261972114
2078+259605868+257764999+256195304+254745877+253381395+252154097+251183496
2068+250560573+250232337+249945547+249415097+248663712+247984165+247512428
2058+247146588+246823247+246529157+246204676+245902515+245815990+246015799
2048+246357792+246679571+246975889+247350924+247790883+248119330+248304505
2038+248568168+249043484+249612327+250140355+250618566+251115202+251729545
2028+252484948+253272217+253995861+254666055+255333600+256070035+256893469
2018+257594231+257835662+257514602+256857182+256180582+255681367+255358289
2008+255058216+254648684+254140923+253629933+253183815+252807798+252445028
1998+252058150+251845198+252226602+253276464+254276404+254350786+253509788
1988+252494915+251831564+251555547+251518119+251549862+251544019+251548423
1978+251646389+251795645+251876256+251822966+251782677+252173943+253267392
1968+254599955+255251339+254927209+254281054+253998844+254134132+254440347
1958+254824032+255260867+255632866+255862857+256041890+256354281+256940583
1948+257858034+259202863+261052330+262910552+263577307+262433446+260450762
1938+259052028+258681942+258926443+259295951+259562667+259721977+259878796
1928+260241670+261219080+263038734+265110627+266565635+267518917+268554302
1918+269176944+268430823+266833281+265945572+266467388+267783545+268832249
1908+269061748+268747812+268486518+268514014+268695644+268972766+269521815
1898+270495891+271668302+272512231+273013938+273950867+275552638+276557070
1888+275790454+273963009+272525549+271920805+271790886+271827402+271917120
1878+272009453+272083748+272240987+273094672+275743779+280468762+285189972
1868+286447259+283427154+278992944+275968803+274953632+275111100+275504067
1858+275696191+275727512+275797736+276012969+276532258+277677875+279721465
1848+282911654+287307962+291499057+292432880+289271204+285186042+283030378
1838+282825463+283152699+283426153+284742854+288307920+293076631+296004087
1828+295955762+294834045+293702887+291762071+289110789+287249653+286908221
1818+287416860+288007127+288843107+290556250+293029622+295050015+295533298
1808+294810602+294210719+294943995+297485660+301148130+304171464+305180318
1798+304816391+305243804+308160661+313055290+316449289+314949572+310262596
1788+306828905+306538886+308306408+310535664+312674448+314369885+315088475
1778+315516274+317725632+323199842+330853545+336542918+336753237+332922210
1768+328308931+324757780+323702497+325866302+329501609+331669486+332168596
1758+332715224+333440341+334191919+336828725+342993555+350762718+355483279
1748+355353044+353119261+351816948+352501567+354754091+357174856+358355497
1738+359371229+363462867+371310255+377252482+375374168+368967679+363051948
1728+358900861+356878240+357136147+358907880+362063800+368300748+378785889
1718+390287886+395196096+390802087+382776841+376443138+373772817+375224456
1708+380284273+386733296+391764968+395821335+402166900+411099086+417474516
1698+418064205+414793843+408423186+400772431+396316269+396899325+400908491
1688+407127752+416839170+429379185+436383995+431841291+423221058+418228025
1678+418728118+423322621+428651295+432388831+436084781+441059565+443921080
1668+441219981+436753432+436149074+439873977+443859594+444902034+444974854
1658+448262483+457620502+473864187+491794747+497730621+492755136+491447314
1648+496826734+501612536+498974782+492990337+490492575+493477445+501744490
1638+514639202+528717116+535946950+533523026+529725759+531290541+538625939
1628+548881880+559636475+570767490+581921001+590921024+597673507+605782172
1618+617598473+629727042+636209790+638036445+640372178+645013110+650361753
1608+654325437+656521705+658107684+660109950+662550685+665108914+668068833
1598+672237677+678015383+684640263+690675840+695557238+699998695+704661877
1588+709418902+713947813+718019728+721193932+723287794+725613981+730846953
1578+740462705+751208280+756484980+757024800+760278948+769409557+780879618
1568+789513924+795644537+802822151+812974775+827748256+850106867+878060131
1558+894371162+891036437+883225863+878692880+876411263+874524948+872538895
1548+871611915+873494651+878043637+883292191+888188960+890967231+886003572
1538+874079953+864067987+859069444+855200024+848397988+840980469+837809424
1528+839429725+842753781+846051727+850536561+855551457+857192534+854712775
1518+851172258+847317928+842689138+839207789+839594036+844927659+854508527
1508+864575590+865926508+854365483+840562497+832785543+831746754+835507102
1498+840010394+840296483+836149537+832883175+834418759+839785089+843869357
1488+841931804+835220311+828561951+824776757+823599345+823802049+825336089
1478+829044146+834965106+841725520+846454399+845306607+838080422+830460199
1468+827514950+829456082+832216595+831791815+830184077+832806740+841705446
1458+851857508+852378236+841875723+831082771+825627020+824721589+825792244
1448+825982665+823573726+819599514+816397235+815032911+815529705+818088777
1438+822029580+824080978+821585427+817102138+814289615+813518946+813164143
1428+812452572+812129705+812680474+813739127+815480995+818609436+821686077
1418+820844237+815500718+809558420+805660433+803450268+801646284+800164815
1408+800126773+801717665+803020223+802420673+801335279+802182173+805197821
1398+808751604+811234311+811333768+808457795+804564510+802828258+803931340
1388+805184415+803650235+800470206+799719891+803255214+809249100+815003011
1378+819766352+824263328+828482498+831245117+831923488+831381563+830841112
1368+831142150+833054505+836873882+841407075+844373802+844679122+843312833
1358+841422376+839266607+837071111+835529632+835221926+835971398+836818784
1348+836820749+836210952+836323394+838072069+841022302+844037248+846267557
1338+847487152+848018760+848468176+849313597+850693994+852560726+854845151
1328+857390466+859939290+862387535+864983175+868098069+871719304+875247749
1318+878040408+880192106+882594447+886126682+890848893+896004588+900619551
1308+904021095+906183672+907896061+910107068+912942963+915934115+918952501
1298+921905330+923785399+923462111+921345998+919051958+917665876+917076222
1288+916575498+915664522+914231904+912169907+909444208+906666569+904899855
1278+904556422+905012858+905541307+906091445+906829617+907339115+906975539
1268+906100990+906103657+907714272+910083765+912053254+913478852+914859179
1258+916635930+919046624+921823841+924171365+925735937+927112684+928756568
1248+930163215+930749079+930850431+931087949+931085562+929719765+926750371
1238+923274567+920258217+917618007+915171097+913369920+912397458+911637457
1228+910697213+909832631+908953590+907623799+906392343+906399432+907395897
1218+907954106+907800394+908075322+909114322+909772409+909449823+909391496
1208+911050822+914064084+916773710+918240579+918860203+919456805+920705599
1198+922867614+925203136+926578900+927257342+928964115+932682350+937240390
1188+940563113+941917540+942330459+943132994+945048718+948172948+951710377
1178+954348341+955740249+956697268+957736198+958785446+959985809+961186453
1168+961441869+960626911+960159736+961037163+962653322+963908293+965046258
1158+967744304+972778291+978184629+981056672+980724470+978843910+977415925
1148+977756480+980136220+983574192+986797528+989753235+993384998+997848423
1138+1001858712+1003770647+1003102944+1001184201+1000052973+1000711482
1130+1002463807+1004138855+1005880442+1008605861+1012371332+1016120169
1121+1018154231+1016925442+1012952282+1009727262+1010465434+1014624593
1113+1019510483+1024003950+1028315628+1031582691+1032697565+1032279312
1104+1031636526+1031548580+1032258887+1033066055+1032864473+1031812208
1095+1031634280+1033302239+1035624425+1036967622+1037418162+1038426349
1087+1040267393+1041377774+1041404306+1042393191+1045293660+1047909304
1078+1048297025+1047593456+1047175764+1046249136+1044072521+1041956689
1070+1042062042+1045645515+1052188696+1059015297+1062735848+1062612527
1061+1060969695+1060126100+1060973345+1063758003+1068027989+1071684599
1053+1072046069+1068851160+1065224732+1064775315+1067556042+1069401297
1044+1067078901+1062776838+1060468269+1060443914+1060317925+1059645028
1035+1059662786+1059856225+1059103454+1058593043+1060147718+1063071700
1027+1064950716+1064967701+1064999006+1067282237+1071341517+1073741823
1018+1071689161+1066560629+1062274008+1060470164+1059685246+1058949320
1010+1059330935+1061322884+1063022358+1062239545+1059361256+1056152309
1001+1053322871+1050685890+1047864032+1044573737+1041707029+1041555562
993+1045284535+1050677959+1053843249+1052962804+1049198105+1044865931
984+1041731033+1039702656+1037048830+1032837240+1028560586+1026584570
975+1027832030+1031177844+1033925162+1033544108+1030163410+1026225485
967+1023296520+1020793880+1018081025+1016046191+1015683807+1016246508
958+1015751750+1012930594+1007911276+1001625265+995760948+991970559+990119128
948+988531043+986170745+983477262+981166096+979492381+978488686+977795294
938+976846205+975437452+973583704+971649520+970652563+971210351+972562883
928+973376999+973007527+971557082+969566958+968065275+967973679+969065181
918+970029991+969803563+968448996+966825957+965980186+966867509+969812267
908+973332008+974210979+970774410+965664268+963062100+963793254+964833377
898+963276947+959541937+956175136+954626919+954252955+953992275+953846704
888+954269238+955021659+955104201+953462983+950279795+947750203+948282301
878+951448012+953941458+953017497+948937300+944328865+942273185+944081380
868+948158419+951602217+952614615+950927214+947500753+944262888+942703861
858+942941660+944650749+947442075+950081162+951472227+952138527+952801878
848+952575801+950388587+947244284+945545793+946456629+948547403+949025738
838+946479159+942333336+939186366+938162105+938555792+939558786+941038499
828+942755520+944080749+944340587+943506888+942687016+943935880+948702169
818+955117115+958636857+957669519+955859569+956731029+959679437+962584257
808+964983650+966674982+966177135+962899473+958841667+956582721+956742189
798+957738585+957328473+954929080+952241353+950954798+951380281+953267649
788+955923511+957805123+957918408+957524019+958583303+961040461+963527029
778+965388006+966254202+965605310+964295031+964291311+965531963+965554353
768+963505200+961195859+959445007+957540583+955843777+955580149+956761912
758+958334976+959701757+960892855+961782424+961654751+959443463+955205553
748+951655209+952050791+956147131+960521277+962949307+964120893+964814636
738+964738833+964232072+963870742+963468491+963502533+965370389+968688690
728+970466143+968343713+963384546+959007943+957974278+960095093+962481501
718+962919056+962151264+961406705+959834623+956718606+954195891+955246402
708+959950434+965012708+967121872+966058025+963927103+962241176+961251448
698+960835792+960250771+958439487+955456827+952759414+951679634+951305530
688+949045110+943926755+937782736+933028871+930860257+931493217+934316338
678+937902969+941147993+943720612+944810779+942974719+937056988+926652318
668+914587620+907880268+907633907+908803176+909666354+911573165+914079104
658+914572038+912198614+908495330+904604291+900968177+898188573+895794444
648+892411640+888400859+886187746+887301778+890668298+893997478+895400195
638+893552202+888991004+885456733+886616387+891092307+893893108+893547710
628+892577846+891622089+888950646+884957623+882443823+882381074+882962796
618+882473793+880263909+875253223+867291744+859583014+855592237+855452983
608+857926144+862194797+865699238+865822418+863316198+860200251+857847954
##END=
