##TITLE=<SNM>
##JCAMP-DX=4.24
##DATA TYPE=INFRARED SPECTRUM
##DATE=2/5/2025
##SAMPLING PROCEDURE=Instrument type and / or accessory
##ORIGIN=Admin
##XUNITS=1/CM
##YUNITS=ABSORBANCE
##RESOLUTION=4
##FIRSTX=4497.3318
##LASTX=599.83466
##DELTAX=-1.4281778
##MAXY=1.791103
##MINY=0.23257276
##XFACTOR=1
##YFACTOR=1.6680947e-09
##NPOINTS=2730
##FIRSTY=0.25263223
##XYDATA=(X++(Y..Y))
4497+151449577+151462726+151977091+152092202+151674832+151139975+150501477
4487+149589654+148823512+148930065+149928583+150875664+150768200+149527114
4477+147987227+147167129+147709428+149591227+151902875+153198327+152659825
4467+150880238+149240212+148719719+149423509+150877612+152428459+153453044
4457+153640763+153242242+152620824+151619215+150109709+148871089+148856850
4447+149797830+150524113+150464584+149961850+149404258+148893056+148584312
4437+148743106+149400810+150146531+150324442+149535770+148028954+146563068
4427+145824868+145917531+146473630+147177617+147851070+148167996+147811255
4417+146975158+146342565+146354839+146787600+147235557+147650103+148079345
4407+148225552+147816240+147168577+146797391+146730527+146733993+146779203
4397+146766465+146372919+145740701+145648566+146440650+147445385+147937310
4387+148027060+148099685+147984565+147256594+145978177+144679205+143797184
4377+143441675+143521751+143796433+143896421+143593483+143074679+142765578
4367+142839383+143015382+142889077+142373802+141730265+141243593+140988045
4357+140907568+141072659+141696114+142712846+143520572+143567515+143112886
4347+142856552+142944453+142925944+142552945+142110929+142041215+142487055
4337+143070409+143152066+142573973+141978773+142052248+142684716+143257208
4327+143457799+143327708+142783328+141689102+140338077+139424200+139456225
4317+140338801+141483963+142235000+142301524+141897778+141526538+141656773
4307+142379456+143192944+143354131+142679508+141831012+141614529+142087489
4297+142492280+142185457+141516301+141405576+142117093+142996354+143404737
4287+143310217+142924327+142295494+141453904+140701715+140506697+141042296
4277+141953287+142686780+142974504+142936690+142886424+143093742+143564201
4267+144067140+144511756+145076047+145760014+146125108+145825815+145107581
4257+144439425+144019214+143910821+144218341+144839018+145393188+145546515
4247+145223987+144645233+144238512+144208809+144228167+143952574+143605168
4237+143581067+143857071+144197625+144519384+144742782+144723058+144554259
4227+144583997+144987440+145485895+145630181+145389802+145247374+145512944
4217+145844047+145830844+145665208+145738995+145936504+145783544+145084176
4207+144219422+143938442+144723085+146216439+147515170+148072994+148032732
4197+147779775+147505406+147173007+146766491+146516589+146719539+147346049
4187+148087269+148675492+148898889+148557432+147725471+146870847+146520047
4177+146868087+147644877+148325959+148673955+148994142+149557844+150012750
4167+149841647+149160395+148511329+148072556+147643734+147292710+147374912
4157+147816874+147975963+147499501+146861539+146727472+147162055+147746160
4147+148165308+148411100+148628933+148933147+149190365+149042193+148410162
4137+147804109+147787279+148315838+148890885+149194001+149324191+149510275
4127+149799402+150012250+149921187+149521960+149145584+149138241+149426484
4117+149695583+149988863+150586198+151204650+151066135+150024685+148862076
4107+148211920+147945582+147864711+148229447+149163834+150129630+150492633
4097+150275739+149961153+149773782+149507855+148943483+148192044+147673168
4087+147797900+148575057+149511053+149963654+149585411+148481243+147125484
4077+146178617+146160554+147101159+148521459+149756810+150292569+150005354
4067+149314606+148913897+149099391+149530009+149776150+149764617+149555119
4057+149145915+148674500+148429127+148555315+148993785+149652266+150400498
4047+150988667+151184122+150959921+150457187+149846810+149321413+149097355
4037+149265189+149685881+150125432+150455722+150698093+150904393+151038549
4027+151042373+150965245+150892923+150805754+150679995+150656233+150898444
4017+151349419+151751924+151833733+151455294+150734415+150059202+149834036
4007+150105547+150504461+150741311+151064062+151855494+152856960+153327981
3997+152997351+152336771+151895085+151789264+151791462+151629327+151319226
3987+151276115+151831321+152680157+153179032+153183873+153187482+153573890
3977+154141353+154493475+154540016+154421654+154275956+154294161+154680765
3967+155373702+156078590+156593705+156798093+156507912+155765344+155039838
3957+154823480+155254678+156216713+157479291+158695096+159502965+159665993
3947+159167636+158355516+157783640+157653092+157619272+157387692+157209120
3937+157544199+158558135+160028085+161420049+162006075+161441435+160408025
3927+160082291+160771439+161518295+161487440+161230008+161751948+162952191
3917+163673249+163059906+161453977+159936110+159299702+159586578+160565747
3907+162389999+165265814+168521193+170733979+171085870+169827597+167641717
3897+165511276+164590637+165402275+167154420+168041507+167333063+166832527
3887+168211199+170382196+171155512+170860346+171267872+171886824+171100663
3878+169683346+169587280+171074114+173130715+175041922+176114244+175584586
3868+174293886+173946177+174643454+174976764+174137058+172865118+172366279
3858+173628589+177397547+183092219+186622933+184148837+178823529+174965794
3848+173779504+174734357+176871945+179394279+181941161+184503693+186671796
3838+187267577+185823443+183597597+181856386+180628253+179651711+179244936
3828+179598792+180424080+182011517+185091845+188663007+189986884+188903414
3818+187892497+187361070+185833359+183476554+181992704+182508695+185007785
3808+188100476+190167528+191886818+194899594+198249485+199387411+198742982
3798+198382801+198230886+197517922+197045025+198082329+200809748+204785506
3788+209723746+215209563+220462335+225384192+231263546+239287830+248811419
3778+258323090+267800763+278429119+290910581+304794566+318100727+328126852
3768+334150868+337487002+339183101+339986753+340762534+341633685+342232127
3758+343124431+345809704+351486581+360571378+372183905+383483133+392341138
3748+400553713+410611891+421610753+429736571+434845235+441244545+451999822
3738+467121319+483435521+496392150+504953364+512346243+521186025+531483786
3728+542195255+551924875+559389147+564798284+568780205+570208134+568239756
3718+564729749+562304571+561811038+561965473+560490520+556535147+551540219
3708+546801632+543176568+542019917+543630402+545894214+546715339+546917476
3698+548423516+551562158+555419589+559621835+564458435+568863390+570059488
3688+567725570+565185049+564574028+565546158+567365676+569989596+573676049
3678+577486813+577951510+573189877+568404624+568542086+571738293+572885725
3668+570412880+566583963+562610260+558229102+554059301+551822110+552237925
3658+553828078+554597749+554824255+556443280+560054373+563522824+562915305
3648+557126622+549927483+545507270+545423943+548282374+550836581+551012955
3638+550052760+550397933+552601571+555765333+559579671+563754047+566283134
3628+565625626+563998955+563990844+565880504+568930924+572302433+575280280
3618+577834523+580319303+582427465+583619419+584288146+585476813+587286826
3608+588596875+588673020+588336744+588838531+590027269+590537953+590259135
3598+590887593+593347681+596935584+601069725+605776510+610328788+613090028
3588+613233028+612194151+612339509+614158277+616017993+615965967+613603642
3578+610447276+608240957+607214086+606598635+606625577+608539321+612605571
3568+617107539+619733496+619884286+618644451+617101893+615626869+614177286
3558+612806743+611628939+610531390+609414331+608470644+607975539+607845545
3548+607527315+606377239+604143335+601309917+599027631+598312631+599078657
3538+600226017+600772290+600547964+599732913+598440802+597007334+595919576
3528+595196893+594237305+592414464+589754883+587077686+585510437+585727331
3518+587502291+589880767+591641970+591870049+590593410+588425432+585715111
3508+582524978+578989851+575543698+572893478+571519398+571126487+570979913
3498+570810150+570941108+571479521+571959761+572026402+571779778+571136206
3488+569590361+567126985+564725175+563266695+562516892+561770304+561086926
3478+561098324+561873319+562743648+562836909+561628911+559442281+557378391
3468+556368028+556161174+555644058+554265726+552613613+551452818+550804386
3458+550430020+550585955+551325039+551714306+551062908+550179645+550002377
3448+550014312+549321822+547948707+545824679+542447739+538292873+534632648
3438+532074761+530581478+530283614+531266285+533036742+534750743+535711510
3428+535689463+534931905+533674919+531829316+529533024+527492038+526239483
3418+525417679+524357612+523301226+523255310+524367188+525383197+525267854
3408+524281824+522996895+521555317+520237407+519592120+519529553+519087224
3398+517557458+515480311+513964517+513150360+512347886+511795860+512583933
3388+514342420+515084649+514002250+512329734+511016756+509791928+508747013
3378+508672940+509600011+510591829+511105729+511476021+511994674+512340776
3368+512063101+511247514+510565566+510726825+511756769+512611911+511916599
3358+509540410+507010250+505866285+506132561+506897194+507655859+508394872
3348+509006821+509339881+509410595+509151501+508416633+507468944+506933962
3338+507096436+507569387+507717211+507150856+505818297+504019110+502387579
3328+501389008+500881504+500509496+500170827+499773306+499172220+498697375
3318+498962901+499824046+500241719+499475086+497960006+496728318+496315862
3308+496497810+496798496+496907122+496694730+496284346+495966580+495688047
3298+495057875+494170931+493786595+494373461+495500596+496289527+496245076
3288+495702304+495465722+496034471+497254653+498485662+498963973+498404335
3278+497405335+496894437+497158998+497776343+498315648+498603364+498449715
3268+497665144+496438709+495359204+494823543+494575633+494126551+493485766
3258+492962862+492466042+491637877+490505918+489475116+488898792+488973579
3248+489683613+490528965+490670822+489698335+488136982+486931343+486388321
3238+485911368+484944348+483725702+482672032+481541109+479898965+478187394
3228+477551255+478387316+479598708+479711943+478428980+476563081+474856120
3218+473570012+472859513+472793516+473082232+473188249+472769861+471987898
3208+471312525+470988041+470829854+470413217+469195429+466937013+464429258
3198+462939691+462518873+462043706+461224225+461036595+461864438+462641899
3188+462203572+460666088+459199426+458697782+458825596+458527947+457306585
3178+455471845+453384836+451196241+449166439+447614770+446567638+445780602
3168+445114840+444661934+444394193+443890727+442708278+440996135+439447753
3158+438571350+438205024+437826584+437150961+436219566+435112690+433958077
3148+433013747+432319506+431526467+430343303+428841015+427325721+426282770
3138+426145738+426690760+427093748+426891218+426313965+425545294+424398542
3128+422869240+421316642+419961463+418753180+417781122+417304741+417298631
3118+417397966+417344010+417123364+416727738+416136585+415411650+414575732
3108+413599315+412651733+412085057+411917580+411572121+410511805+409029634
3098+407965280+407680852+407770861+407811132+407862336+408060614+408209331
3088+408009195+407410324+406605278+405838787+405299696+405035278+404854652
3078+404468994+403880021+403404033+403093199+402484930+401239128+399675631
3068+398415571+397787257+397676487+397668090+397336567+396544599+395424539
3058+394179058+393052101+392285825+391856610+391447012+390847212+390200352
3048+389806655+389802189+389929038+389572681+388299293+386455871+384970449
3038+384440612+384602800+384754626+384462980+383734651+382757269+381709531
3028+380698882+379729718+378786782+377928388+377181335+376460403+375748011
3018+375200451+374940071+374872751+374762232+374412235+373839734+373273629
3008+372861423+372471335+371910590+371174614+370386791+369675864+369094287
2998+368505779+367709308+366763656+365934277+365345875+364969187+364768086
2988+364519426+363758438+362359488+360937919+360163746+359861237+359330757
2978+358426555+357646914+357251216+357046007+356962643+357062801+357030141
2968+356397789+355269439+354248821+353701761+353476934+353251572+352845547
2958+352247319+351590883+351108963+350871380+350555436+349746746+348501837
2948+347332823+346608711+346197791+345701935+344908360+344005372+343383846
2938+343216048+343259784+343129541+342725160+342267824+341886454+341393100
2928+340625573+339765178+339055430+338438693+337745131+337036205+336508905
2918+336185207+335868120+335390524+334841678+334499542+334480032+334474637
2908+334018158+333096018+332247951+331931400+332013869+332001042+331545599
2898+330685490+329774499+329165730+328859862+328586047+328177056+327605020
2888+326817661+325881800+325083579+324630638+324456944+324373509+324184165
2878+323709248+322913386+321998642+321304437+321067533+321192203+321325734
2868+321247087+321000142+320639497+320176373+319732936+319402807+319037481
2858+318425818+317554560+316588255+315758161+315263128+315124844+315174476
2848+315226038+315179050+314972482+314546412+313870609+313018433+312191018
2838+311547446+311050090+310636312+310393333+310321618+310154142+309699164
2828+309074994+308410090+307722174+307191337+307014141+306958292+306610975
2818+305989414+305426239+305084568+304967081+305034794+305038152+304639953
2808+303860634+303034471+302336622+301686332+301018176+300388468+299898973
2798+299629481+299554122+299516621+299363526+299031092+298459234+297569628
2788+296435185+295361505+294653972+294304351+293997501+293449977+292668050
2778+291853856+291165601+290632995+290210159+289821607+289369434+288746069
2768+287906684+286986045+286276011+285948668+285818246+285524796+284973948
2758+284436894+284151197+283979111+283589916+282861998+281974072+281205098
2748+280750388+280603850+280510375+280133936+279369625+278444912+277666916
2738+277107386+276576209+275879110+275025058+274192981+273600434+273368764
2728+273379055+273314755+272988592+272544745+272235108+272099718+271926507
2718+271452019+270619710+269674040+268934330+268500721+268270677+268152260
2708+268108506+268024965+267699712+267069915+266382267+265947782+265736337
2698+265435132+264883946+264205892+263584849+263161602+263013117+263021907
2688+262917408+262575683+262126869+261747090+261487514+261263866+260917157
2678+260368900+259735619+259194955+258784536+258434789+258127064+257936897
2668+257951244+258128904+258235368+258044004+257608715+257159008+256753215
2658+256253090+255608553+254963927+254510664+254352692+254422888+254447954
2648+254138907+253493030+252782263+252220339+251783621+251364732+250951704
2638+250640852+250576427+250837915+251276492+251542714+251412756+251023705
2628+250684106+250539337+250494529+250386743+250168419+249926512+249722464
2618+249463799+249032172+248503550+248104636+247940483+247887170+247793463
2608+247664559+247550823+247384704+247096739+246800591+246655822+246622466
2598+246552413+246432674+246320958+246139921+245790210+245408322+245265679
2588+245418345+245638009+245695287+245581784+245424027+245261999+244999921
2578+244604295+244253798+244167040+244339234+244581230+244754942+244837108
2568+244828639+244747277+244683442+244757925+245011141+245368713+245715762
2558+245976303+246118088+246119232+245964154+245669953+245286511+244854831
2548+244399960+243993275+243732769+243574994+243323171+242912073+242535474
2538+242349702+242239986+242031257+241772109+241666735+241803786+242043245
2528+242156534+242036867+241766535+241513230+241366531+241258209+241070401
2518+240809485+240576904+240389775+240180634+239964454+239865923+239982231
2508+240272287+240560949+240670576+240590429+240465902+240411285+240403013
2498+240350219+240217099+240082335+240059377+240129751+240123463+239913357
2488+239557644+239205807+238925935+238667716+238369942+238058286+237796173
2478+237567237+237309697+237069023+236957771+236917679+236717704+236278431
2468+235800853+235476047+235272124+235092516+234931078+234776072+234540257
2458+234189903+233836387+233608255+233492215+233380927+233239034+233118438
2448+233037970+232968095+232908816+232871190+232821040+232728511+232615276
2438+232478600+232243554+231882320+231513117+231271710+231146058+231059247
2428+231031483+231103662+231191259+231188687+231133820+231129889+231188419
2418+231253666+231309068+231378675+231454891+231491231+231475223+231455856
2408+231471954+231505184+231524176+231525498+231528410+231577256+231728564
2398+231990088+232298010+232615830+233056515+233847160+235184330+237234374
2388+240284257+244729750+250863803+258784464+268487821+279917328+292935827
2378+307324440+322771708+338821706+354885782+370330156+384578002+397244985
2368+408112925+416800274+422663137+425195691+424331901+420489942+414510378
2358+407085590+398005902+386473415+372726248+359288915+349621576+345712584
2348+347834431+355361878+366432562+377501246+385303294+389102374+390070644
2338+389682772+388864290+387883978+386730973+385382083+383689736+381374756
2328+378283280+374390689+369619872+364029002+358063909+352247605+346710404
2318+341231340+335574652+329678629+323639713+317575392+311535476+305589321
2308+299885216+294504951+289366737+284381920+279612318+275181761+271100165
2298+267257545+263571271+260090832+256945990+254194970+251740099+249429406
2288+247233486+245260641+243601561+242241630+241123749+240207255+239443533
2278+238747345+238031523+237283773+236599449+236101914+235801585+235542348
2268+235127551+234533432+233955750+233596285+233447514+233338709+233126157
2258+232787558+232399793+232075202+231879300+231782895+231686561+231497323
2248+231214110+230929289+230712252+230532144+230339333+230163817+230073504
2238+230076183+230121617+230190562+230319698+230529696+230811373+231174019
2228+231584492+231887733+231949246+231855646+231865490+232192064+232839263
2218+233594212+234236319+234770212+235346196+236004151+236658032+237279914
2208+237966937+238831602+239858419+240904961+241875661+242795568+243665307
2198+244412502+245055056+245748957+246616356+247627147+248658896+249604458
2188+250414971+251093936+251691968+252261288+252772473+253147535+253388853
2178+253562725+253685037+253730417+253670351+253453135+253075142+252662239
2168+252336683+252043447+251625756+251023169+250302290+249528099+248732754
2158+248009964+247476036+247124628+246879898+246750065+246814044+247150855
2148+247765752+248540569+249559043+251480737+255021473+260079916+265955250
2138+272238717+278947414+286108052+293658956+301503776+309544051+317809581
2128+326386660+335214900+344203828+353353551+362559409+371559771+380093007
2118+387923677+394859470+400735125+405279400+408283904+409918258+410602243
2108+410800485+411055112+411801558+413100601+414698329+416160311+416999266
2098+416934806+415969537+414234775+411872057+408861336+404972032+400046888
2088+394091621+387069070+378929103+369687906+359389787+348297520+336951877
2078+325841780+315346920+305880931+297662014+290576789+284450508+279164201
2068+274637650+270910981+267926076+265322773+262883480+260804708+259214751
2058+257955120+256890856+255949867+255070659+254388442+254145517+254446829
2048+255352407+256930322+259161367+262102125+265960252+270868942+276961098
2038+284544323+293723060+304052623+314802826+325264027+334863367+343350151
2028+350761039+357187220+362764905+367596752+371533937+374322547+375807469
2018+375808970+374215065+371257978+367328868+362619832+357107823+350736741
2008+343639117+336184278+328692957+321270135+314006141+307062809+300515460
1998+294390555+288858464+284139477+280181693+276602365+273072098+269661873
1988+266657816+264194690+262213574+260574253+259101980+257699260+256438808
1978+255434930+254688968+254100638+253537552+252953474+252508430+252396320
1968+252487098+252375703+251893479+251335843+251059615+251070889+251141460
1958+251178014+251281887+251511645+251780351+251989295+252157254+252403735
1948+252863679+253637960+254699312+255684162+255972181+255356748+254416921
1938+253850905+253795288+253978130+254189718+254438021+254796950+255239404
1928+255731097+256465875+257660455+259067910+260205604+261073878+261940794
1918+262578113+262587314+262291738+262427931+263245876+264415551+265490946
1908+266248897+266745360+267165320+267609900+268042134+268413999+268797923
1898+269356274+270093000+270719474+271042278+271309412+271716223+271859831
1888+271294655+270326849+269600182+269317290+269268230+269227942+269110687
1878+268974154+268944532+269085817+269511226+270541957+272287277+273956023
1868+274226122+272840947+270962953+269716311+269349520+269519070+269767980
1858+269829207+269739466+269694479+269822346+270165107+270749310+271639470
1848+273057180+275167951+277316973+278000940+276749921+275005244+274155944
1838+274293531+274779739+275311719+276350793+278371608+280781064+282166740
1828+282115518+281592327+281172349+280583376+279850294+279501745+279720033
1818+280179834+280637403+281232290+282161737+283269720+284105049+284449007
1808+284611606+285070318+286104943+287782497+289864414+291669532+292539557
1798+292696886+293218450+295006828+297791793+299867743+299688492+298078847
1788+297047563+297419196+298707662+300279056+301973547+303618549+304834050
1778+305752367+307270305+310171793+314049306+317031513+317567960+316352923
1768+314861034+313911880+314163363+315957440+318454761+320263702+321305867
1758+322408276+323628172+324859360+326937614+330575149+334825455+337659517
1748+338412108+338271109+338518089+339675526+341609494+343644870+345112497
1738+346542463+349383564+353741781+356883497+356376171+353972540+351934376
1728+350718375+350398429+351016274+352250106+354172068+357682361+363208305
1718+369028647+371748116+370378752+367418591+365188404+364616010+365968223
1708+369053910+372892153+376243938+379334485+383564209+388761096+392336350
1698+393163800+392573361+390874404+388521941+387420639+388583114+391456624
1688+395607237+401579441+408768075+413110606+412088094+409272291+408189571
1678+409657556+413007733+416707227+419686469+422660171+426313071+429190833
1668+429693906+429408692+430894507+434422416+438172400+440681942+442722785
1658+446098118+452164761+461462773+471855618+477215801+477363732+478757823
1648+483350979+488159707+489777624+489371671+489958000+492805569+498185047
1638+505990240+514652504+520422321+521754524+522284575+525359971+531316060
1628+538775401+546634120+554940671+563566310+571464263+578478131+586168266
1618+595565756+604909504+611210801+614916799+618409619+622270266+625714704
1608+628298497+630271485+632009855+633864140+636240902+639473305+643707568
1598+648997859+655356899+662474104+669541570+675835221+681356770+686540865
1588+691618835+696482842+700845954+704447614+707368076+710284965+714318341
1578+720207217+726955095+732097169+735758215+741078521+749937241+761140135
1568+771883155+781475242+791331033+802206762+814303674+828789497+846025124
1558+860515735+867144338+869343082+870535679+871584704+872724703+873553904
1548+873416264+872480152+871449493+871091385+871931377+871918228+866647447
1538+857722336+850816880+846590050+842345711+837041270+832855461+831401447
1528+831677157+832000032+832221143+833013826+833414455+831904485+830110372
1518+830745833+833030620+833995245+832819300+831723537+833092579+837164832
1508+841224364+840526443+834656362+829234219+827009963+827258731+828820727
1498+830474555+830798931+829652429+828913916+830222143+833050630+834792144
1488+833310331+829618412+826164754+824021968+822659857+821306180+820328333
1478+821060843+824287743+829216282+833497425+834453475+831987455+829078141
1468+827981807+828425529+828709457+827990597+827655501+829475983+833521151
1458+837398377+837214214+832767488+827842666+824459830+822581318+821582103
1448+820572670+818986090+817145240+815608971+814638342+814716667+816470759
1438+819411874+821334765+820536366+818204556+816117582+814415516+812470185
1428+810396004+809067982+808941776+809648559+810719523+811863596+812147667
1418+810408296+807341332+804718591+803044253+801774546+800612679+799915687
1408+800072122+800776403+801119289+800682714+800179319+800394141+801180320
1398+801855372+801925121+801161024+799709226+798393139+798080625+798658343
1388+798963639+798073193+797001156+798004230+801999158+807684576+813092211
1378+817449678+821181474+824602544+827477269+829797716+831994387+834068496
1368+835488421+836303472+837447331+839363147+841028409+841196493+840216717
1358+839417888+839340278+839546739+839647646+839598908+839159759+838072143
1348+836770992+836107874+836490066+837868398+840223649+843409601+846635430
1338+848806088+849769498+850571400+852032274+853768429+855166986+856699181
1328+859246885+862516879+865269543+867082593+868998052+872227954+876773444
1318+881636092+886163073+890519182+894736578+898270419+901062245+904183950
1308+908457804+913086835+916496756+918082550+918480535+918670987+919488182
1298+921405856+924018736+926119787+926703937+925547715+922928619+919424364
1288+915845359+912828420+910552995+908898739+907595729+906374404+905246839
1278+904454085+904118703+904201673+904693348+905579792+906719576+907918891
1268+909053102+910137144+911307659+912673843+914256635+916002938+917682135
1258+919132075+920656981+922539424+924378058+925769040+927134367+928774402
1248+929835147+929414579+927826284+925751460+923140082+919840716+916661410
1238+914785542+914207896+913459593+911239839+907959340+905177376+903852141
1228+903666977+903721862+903292504+902056242+900474308+899897948+901269920
1218+903766027+905603518+906028588+905627601+905208249+905333097+906232404
1208+907526981+908692493+909833421+911362686+913287864+915519839+918295442
1198+921524273+924358406+926200042+927596169+929450383+931776333+933835578
1188+935214197+936163172+937144877+938681575+941419517+945566736+949980374
1178+952566025+952631844+952037117+952771557+954587251+956316617+958306184
1168+961702527+966131530+969588546+970487067+969516939+969120526+970802868
1158+973338065+974384018+973761635+973616848+975619922+979118745+982122320
1148+983861619+985498653+988068296+991060151+993390103+994683393+995439914
1138+995980399+995787731+994797664+994818460+997793735+1003097176+1008770373
1128+1014296782+1019194019+1020978126+1018255764+1013709488+1010897152
1120+1010461791+1011400832+1013880859+1018575138+1023964835+1026338452
1111+1023496601+1017353669+1011878071+1009790741+1011632520+1016707917
1103+1023708564+1030798256+1036157724+1038541561+1037447370+1033898093
1094+1031044665+1031589724+1034575504+1036893235+1037454588+1037275212
1085+1036900310+1036483888+1036856003+1038425074+1040140361+1041294438
1077+1043533345+1048887311+1055320745+1057026813+1051904392+1045495470
1068+1044489824+1049842503+1056861302+1060138085+1059416724+1058681070
1060+1059714301+1060595099+1060354050+1061252357+1064374348+1067064981
1051+1066724024+1064145877+1061796487+1061104569+1061725951+1062537000
1043+1063285160+1064000590+1064037537+1063294379+1062954638+1063664850
1034+1063966930+1062628760+1061344618+1062974862+1067546079+1071818146
1025+1073603254+1073741823+1073005383+1070332545+1065662493+1061968644
1017+1061920334+1064371418+1065757612+1064398718+1062340545+1062603462
1008+1065431163+1067517993+1065311961+1059251141+1053314598+1051086483
1000+1052687141+1055130436+1055837289+1054578016+1052196324+1049755459
991+1048487039+1048583944+1048245561+1045581299+1041450374+1038567716
983+1037920821+1037691278+1035818269+1032463518+1029310583+1027559206
974+1027139139+1027087041+1026375185+1024545698+1021720998+1018542478
965+1016306788+1015684691+1015342734+1013606651+1010325294+1005948246
957+1000594637+994856194+990197433+987890421+988133043+989823031+990740919
947+989115249+985404677+981536884+978520946+975925289+973312338+970906205
937+969020690+967879762+967907562+969113308+970409314+970654151+969850177
927+968215073+965538804+962620058+961599118+963753053+967829594+970908135
917+970771852+967867399+964667440+962912490+962370004+962152181+961755625
907+960607693+958111801+954799572+952521431+952801929+955022683+956887474
897+956962654+955862389+954961867+954889831+955270522+955291103+954497563
887+953221853+952039190+950833658+948837730+946084424+944104147+944294027
877+946235857+948445463+950190122+951348987+951489272+950385719+948354203
867+945748827+943304389+942326900+943534790+946270231+948954646+950041690
857+948872176+946289741+944031825+942985301+942963504+944023249+946310465
847+948919486+950382789+950059985+948461185+946573740+944931918+943442029
837+942170250+941876389+943083636+944707306+945037542+943965720+942847232
827+942617545+943216702+944325043+945766622+947656353+950232571+952900978
817+954091503+953382505+952966797+955028401+958210493+958904698+956360281
807+953908197+954753191+958646640+962062493+961091721+955612336+950039117
797+948432385+950308467+952678510+954367856+955989239+957248941+956772702
787+954275524+951499706+951004887+954152748+959736257+964853962+967355071
777+967019045+964781139+962047914+960776492+962132385+964539018+965188200
767+963581253+961593258+960081716+958197272+955806290+954223355+954421525
757+955717245+956322405+955052341+952800643+952141455+954925063+960169831
747+964836310+966447545+964870113+961942218+959668866+959453258+961781209
737+965138818+966694955+965580039+964326412+965380797+967871186+969289253
727+968548954+966292396+964044771+963569319+965301400+967565176+968112092
717+966403094+964432536+964505430+966534446+968691025+970153400+971155259
707+970392734+965686450+957815224+950482982+947118298+949405943+956292891
697+962539089+961364143+951778845+940300814+933646769+932678499+933626045
687+933267508+931441808+928639620+923803985+916923541+910396703+905684344
677+902455013+901431072+904844138+912282075+918414931+917242701+909645613
667+904810121+906187453+908398774+908081330+905904311+903423498+901458800
657+900767812+901647895+902731151+902105052+899589222+896500032+893600938
647+890693197+887737503+885406837+883701983+881221742+876807247+872142269
637+870977614+874307209+878543258+879947676+878478512+875667390+871891357
627+868038071+866757716+869126259+871865273+870849050+866494156+863021918
617+864834539+874120688+887194089+894239687+889674973+877731852+863163346
607+848495361+837869399+834763987+837925213+843163120+847787435
##END=
