##TITLE=<SNM>
##JCAMP-DX=4.24
##DATA TYPE=INFRARED SPECTRUM
##DATE=2/5/2025
##SAMPLING PROCEDURE=Instrument type and / or accessory
##ORIGIN=Admin
##XUNITS=1/CM
##YUNITS=ABSORBANCE
##RESOLUTION=4
##FIRSTX=4497.3318
##LASTX=599.83466
##DELTAX=-1.4281778
##MAXY=1.8371637
##MINY=0.34997642
##XFACTOR=1
##YFACTOR=1.710992e-09
##NPOINTS=2730
##FIRSTY=0.36400601
##XYDATA=(X++(Y..Y))
4497+212745594+212775901+213430389+214655442+215831377+216396195+216298532
4487+215802184+215260897+215067643+215371503+215925034+216415703+216628849
4477+216300465+215408081+214499950+214137496+214192764+214161759+213953020
4467+213933529+214302759+214854497+215381379+215811833+215909602+215471535
4457+214853661+214623515+214779076+214929482+214916035+214704056+214246203
4447+213868107+214088812+214795972+215212318+214817779+213940566+213415705
4437+213773544+214691132+215275929+214911611+213763824+212570838+212094573
4427+212611875+213679520+214456701+214424094+213796240+213154346+212706438
4417+212183876+211528605+211225668+211631564+212361959+212771094+212807899
4407+212937838+213337654+213713172+213899965+214069321+214233940+214061866
4397+213409504+212670609+212307214+212170551+211624962+210532130+209723544
4387+210054925+211246500+212113280+211869670+210801728+209650440+208777216
4377+208134939+207694068+207553068+207742281+208161693+208646231+209035353
4367+209332106+209704436+210129318+210216809+209613165+208440645+207292440
4357+206926624+207726431+209237369+210549983+211204366+211286824+210876469
4347+210101274+209416932+209084786+208694933+207816796+206798810+206400073
4337+206801283+207344695+207283069+206671901+206283894+206571033+207127821
4327+207385749+207292127+206934184+206178079+205223442+204710861+204774646
4317+204850624+204672976+204565437+204683270+204822772+204913573+204962152
4307+204811991+204545911+204664616+205404713+206298421+206757145+206821697
4297+206973758+207294583+207285490+206737794+206230473+206283372+206618096
4287+206748140+206673747+206565842+206389379+206147963+206023615+206093444
4277+206179403+206044133+205646547+205218844+205077757+205342391+205853579
4267+206283076+206342663+206144654+206312756+207337309+208862774+209962382
4257+210066316+209378508+208514898+207955096+207806798+208049590+208745759
4247+209695675+210220954+209833662+208940006+208456025+208802960+209448825
4237+209386695+208160979+206458128+205494103+205841996+207030593+208224660
4227+209102117+209899589+210614657+210661982+209732532+208482884+207859854
4217+208106373+208715103+209005220+208610611+207715022+206894662+206683310
4207+207268455+208416259+209555564+210070427+209686147+208676434+207667331
4197+207039529+206613097+206209658+206164197+206730043+207441905+207698771
4187+207534936+207345060+207292283+207197372+206758452+205994056+205504397
4177+205945564+207293294+208901320+210149610+210821776+210963612+210606523
4167+209791649+208786883+207949766+207340532+206830633+206558544+206817987
4157+207504332+208119384+208462522+208951450+209961076+211126089+211710485
4147+211502077+210891188+210215677+209514265+208796567+208167598+207726623
4137+207544376+207742961+208371425+209079630+209313120+209163429+209435796
4127+210398985+211207815+211060945+210145011+209049392+208066172+207331213
4117+207003647+207152869+207728817+208518034+209039551+208872040+208245962
4107+207910994+208284822+209082295+209826816+210277494+210276971+209736050
4097+208917728+208315095+208151033+208203706+208075491+207604556+207122387
4087+207152433+207734008+208335335+208544579+208482501+208498665+208824210
4077+209454695+210037959+209987812+209009400+207498758+206235890+205687688
4067+205774361+206207307+206703776+206926433+206708357+206369661+206311798
4057+206405490+206354194+206412283+207028085+207998363+208688732+208930914
4047+209093617+209380929+209485124+208923877+207660521+206448513+206309151
4037+207389616+208607371+208828843+208167337+207670223+207995315+208890451
4027+209758520+210250095+210352131+210256627+210222957+210357896+210428666
4017+210071698+209304777+208620365+208457750+208794895+209303401+209646608
4007+209637551+209405245+209363372+209769040+210379512+210729216+210679226
3997+210512151+210477141+210454062+210284339+210229785+210651305+211362122
3987+211796949+211689810+211172630+210459200+209794558+209468177+209646312
3977+210315587+211338869+212375354+212937403+212867678+212645231+212836255
3967+213343751+213669087+213816288+214266965+215056617+215577194+215391690
3957+214699231+214001478+213763319+214353812+215848133+217579149+218315031
3947+217725496+217213507+218104463+219623518+219864899+218333547+216187439
3937+214775227+215076805+217323294+220318432+222031125+221702235+220686339
3927+220629225+221623261+222395791+222119835+221578862+221975421+223206571
3917+223806278+222533482+219794930+217166443+215937767+216542002+219097577
3907+223796019+230223980+236610381+240698700+241528118+239290408+234540808
3897+229032961+225588922+226019237+229419226+232197073+231735945+230379019
3887+231672770+234958199+236777752+236656469+236631056+236024922+233193322
3878+230324030+230638950+234124723+238770528+243185055+245846200+245137734
3868+242842927+242230801+242849668+241490303+237554114+234029150+233482342
3858+236807189+244523117+255617384+262887913+258292847+246844295+236910356
3848+231863098+232179934+236556890+242544781+248391863+253852699+258144776
3838+258887277+255438830+250499059+246382314+243348332+241273691+240486930
3828+240783004+241678315+244209277+249901146+256716818+259378381+257457647
3818+255282311+253152593+248414977+242295388+238663668+239473682+244149359
3808+249729891+253030649+255167961+259108348+263262996+263217377+259907737
3798+257250144+255295078+252533134+249897959+249300394+250994693+254232798
3788+258707730+264123034+269509233+274581469+280717989+288687578+296650357
3778+302805410+308647111+316822251+328230271+342004164+355791469+366499384
3768+372942080+376132773+377209458+377805717+380027751+383996233+387200860
3758+388023485+388842347+393760154+404936198+420006455+431642792+436173533
3748+439509910+447026680+456819445+462186884+462627946+465017438+474150473
3738+490749382+511092427+527108036+533490431+533823466+535060503+540869318
3728+550967702+562579306+572522250+579570924+583697877+584830196+584158308
3718+583634370+584102257+585794395+588748723+591237290+590207598+585337343
3708+579606387+576109588+576119377+577877287+577742575+574652873+570890238
3698+568223833+567528151+570107327+576512157+585182112+593000704+596856944
3688+595978442+592439839+588457074+585200506+583442910+583942253+587572650
3678+594462505+601350061+603171860+601367758+600795049+600307201+594913426
3668+585262933+576979660+573227128+573536195+575320859+576052004+575219555
3658+573654256+572171483+572223215+575970835+584226030+594048092+598334769
3648+593232226+583774621+575939761+571339766+568739062+566538591+564576819
3638+564146974+566137486+569878905+574348230+579547583+585197580+588387540
3628+586265313+581191718+576816382+574918709+576882223+582964329+590193106
3618+594579624+596038499+596849628+597936521+599474822+601681772+603582441
3608+603102606+599960859+596804619+596643258+600089405+604669752+607796380
3598+610150966+613363222+616018585+615894986+615146493+618150149+624792388
3588+629091188+626498879+620076249+615013418+613003363+613160614+613859918
3578+613704758+612730177+612234665+612922055+614474919+616941747+620631957
3568+624414693+625976962+624805417+622654971+620708179+618184846+614158535
3558+610032871+608531008+610257426+612947277+614452554+614836589+614716543
3548+613708311+611531947+608813879+606129533+603822742+602610926+602588979
3538+602290502+600305808+597418157+595854773+596689520+598938622+600891545
3528+601557476+600591187+597883639+594273274+591618747+590959226+591405479
3518+591486160+590899517+590358161+590197217+590172344+590348964+590832562
3508+590705200+589006651+586523937+584874090+584268077+583814752+583430160
3498+583740830+584508796+584456960+582502399+578663299+574315065+571553173
3488+571301446+572255543+572555553+571848516+570797539+569743950+568996850
3478+569097666+569843268+570143731+569258332+567264893+564515577+561642801
3468+559490475+558490847+558611032+559617105+560868285+561661229+562184924
3458+563148740+564319971+564447716+562671099+559513467+556534509+555054559
3448+555033692+555404141+555546273+555517498+554969558+553254392+550647382
3438+548463947+547787147+548375951+548711982+547244363+544109478+541173091
3428+539887004+539662066+538965514+537634628+537082786+538208034+539965386
3418+540485631+539282176+537753803+537341341+537731299+537468319+535942489
3408+534014404+532960292+533374078+534736143+535649585+535096594+533552962
3398+532140002+531137029+529983704+528287872+526157075+523780124+521483436
3388+519985544+519838186+520697807+521678728+522304806+522585587+522329644
3378+521212444+519661671+518681969+518638459+519206430+520366618+522168283
3368+523739992+523872544+522505219+520667952+519247676+518507196+518377639
3358+518729347+519426874+520089426+519920992+518394326+516276696+515171933
3348+515684723+516689367+516778026+515862249+514834543+514360386+514577416
3338+515256898+515761224+515416240+514212959+512737223+511546518+511031150
3328+511407765+512196250+512166604+510666727+508726902+508042195+508999113
3318+510386086+510949807+510362397+508800999+506853057+505668170+505958635
3308+507093463+508031778+508612326+509114456+509422862+509422270+509276933
3298+508911953+508136531+507291298+506895627+506813727+506365279+505068080
3288+503213186+501971620+502441283+504132585+505217806+505020911+505112670
3278+506823620+508948426+509300447+507789318+506391476+506512497+507630395
3268+508176976+507100430+504793569+502746414+502119325+502652948+503228444
3258+503239243+502807795+501985937+500668916+499215893+498406298+498739542
3248+500030401+501455938+501915429+500823310+498712787+496725341+495521677
3238+494969417+494733088+494688706+494680136+494376573+493688765+492948842
3228+492415916+491984747+491531561+491065591+490403004+489326214+488281612
3218+488196124+489225432+490233909+489875269+487898936+485189228+482824052
3208+481367894+480914082+481395136+482538917+483692591+484133758+483610029
3198+482360694+480691443+478719011+476552646+474585579+473271658+472459484
3188+471425786+469867593+468287279+467191363+466621302+466485893+466627085
3178+466672267+466309691+465431921+463908877+461797762+459703577+458304203
3168+457637680+457266847+456954540+456866892+457160945+457512618+457211771
3158+455889803+454024946+452431916+451346765+450408902+449537263+449159045
3148+449259792+448987441+447756117+446106757+444968446+444546126+444195533
3138+443190680+441600542+440203501+439399375+438767653+437915522+437011067
3128+436304656+435847395+435656806+435588422+435268869+434515290+433488977
3118+432369094+431263912+430353500+429790302+429509486+429277860+428880168
3108+428270777+427559733+426875095+426343354+426098385+426097165+426009169
3098+425469763+424401682+423047734+421811150+421086938+421101325+421768023
3088+422684043+423336144+423394147+422827987+421776836+420423620+419020169
3078+417911260+417371820+417319182+417228190+416571665+415474948+414666223
3068+414582302+414794804+414576798+413738184+412575452+411373913+410336732
3058+409659479+409355428+409188283+408884929+408332669+407626258+407007078
3048+406676237+406558247+406283249+405484383+404214808+403070575+402679955
3038+402968295+403137077+402535524+401367741+400283844+399432341+398384430
3028+397022400+395868517+395288422+394938979+394305411+393373470+392510157
3018+391917905+391416924+390768725+390044130+389482603+389090346+388668339
3008+388171992+387802483+387757196+387905842+387756395+386958330+385771387
2998+384685226+383773594+382899865+382278733+382254104+382668273+382876350
2988+382344713+381045215+379347746+377709708+376504372+375980991+376141273
2978+376616370+376858692+376569655+375890207+375164497+374593739+374140415
2968+373674165+373104313+372408737+371650664+370950280+370353081+369758982
2958+369051387+368270880+367614076+367239307+367056068+366752296+366092078
2948+365123315+364072547+363158930+362508014+362112413+361851280+361593422
2938+361247532+360772156+360269189+359921488+359667914+359189159+358408094
2928+357683673+357308312+357142177+356888012+356401314+355629028+354563071
2918+353378149+352400120+351825983+351558475+351343813+351013147+350598072
2908+350257269+350100784+350085212+350050759+349817495+349295926+348600350
2898+348001409+347638972+347348333+346884069+346202671+345415893+344626189
2888+343960780+343617016+343675436+343920475+343979174+343629696+342964671
2878+342322499+342013918+341983890+341837298+341338024+340717067+340336899
2868+340253361+340207203+339878383+339160860+338277306+337543375+337068208
2858+336804567+336673547+336460384+335903177+335073969+334346203+333904549
2848+333599487+333276729+332929271+332521164+331975453+331416609+331148056
2838+331246643+331403789+331297922+330909880+330385141+329811387+329191022
2828+328509171+327840000+327342468+327029324+326696220+326219276+325692272
2818+325187703+324662755+324168149+323859499+323723951+323537507+323181480
2808+322798559+322503078+322148444+321604858+321046502+320675461+320368309
2798+319877674+319207807+318574727+318133595+317873123+317674173+317398514
2788+316970132+316402857+315755842+315092942+314483481+313979539+313556069
2778+313110269+312548289+311859192+311142296+310584253+310298526+310152701
2768+309889269+309400515+308747300+308019360+307314064+306683144+306057240
2758+305423951+304988636+304892976+304926732+304746837+304203182+303344920
2748+302357485+301537229+301089060+300911813+300690985+300185546+299416778
2738+298642715+298123341+297871857+297682766+297390489+297006245+296625066
2728+296324672+296134501+295963211+295587397+294872486+293999349+293302205
2718+292883368+292545908+292091556+291540080+291040126+290663110+290332218
2708+289963911+289614712+289364169+289119949+288739955+288272608+287851611
2698+287458153+287017317+286599734+286319040+286143465+285962769+285756817
2688+285607439+285575250+285561525+285315058+284692272+283900773+283324494
2678+283098406+282998356+282752412+282304713+281750833+281186973+280710186
2668+280441580+280437034+280606095+280758800+280709593+280352330+279711272
2658+278964869+278378487+278119496+278095198+278026902+277718443+277212568
2648+276689431+276289928+276036564+275830542+275527135+275096123+274674551
2638+274375517+274116456+273762519+273377543+273167742+273196882+273322572
2628+273409262+273443907+273421333+273270073+272965256+272611110+272341494
2618+272185758+272054722+271830393+271501347+271221890+271149187+271193185
2608+271063664+270640472+270171558+269991750+270123188+270270859+270202527
2598+270001348+269859007+269739292+269427019+268893431+268450906+268444078
2588+268806375+269042531+268790351+268309975+268156243+268436048+268736616
2578+268758754+268620349+268494503+268345230+268118062+267896695+267770413
2568+267715825+267659181+267582349+267561291+267707551+268034542+268392259
2558+268581542+268531830+268356151+268243630+268279772+268342530+268208149
2548+267805946+267330988+267045226+266990742+266964423+266748333+266286143
2538+265670393+265066820+264627934+264377392+264192150+263965313+263734122
2528+263586886+263528048+263516273+263561107+263688730+263866413+264039880
2518+264188892+264282794+264248497+264039915+263684619+263258885+262892668
2508+262738779+262813329+262921600+262874675+262722667+262645330+262665657
2498+262617583+262402295+262136302+261964472+261830979+261570108+261168863
2488+260785420+260533884+260402377+260370938+260446567+260557242+260564035
2478+260433033+260267265+260124523+259946178+259706539+259472109+259260356
2468+259011834+258763590+258668156+258756553+258841119+258748976+258525414
2458+258327318+258228661+258194156+258140369+257963923+257609655+257167983
2448+256828555+256681442+256629936+256545249+256425395+256326738+256221045
2438+256026031+255742708+255490110+255407687+255520922+255689652+255730410
2428+255598433+255395790+255218212+255080191+254978260+254946297+255028198
2418+255226625+255489099+255721684+255817484+255737325+255583506+255511795
2408+255559416+255654014+255758001+255872473+255951098+255952474+255943417
2398+256053918+256356471+256892724+257886865+259880216+263534806+269338517
2388+277645949+288942057+303853774+322834824+345843543+372254656+401085358
2378+431426075+462621467+493895100+524040037+551914588+576976072+598763953
2368+616226349+628404495+635743460+639639344+640346312+636563437+627472275
2358+613644909+595705952+573322927+546476501+518707748+496834867+486116013
2348+488006963+500818851+519600150+537116089+548511429+553656612+554785030
2338+554441683+554206852+554282238+554303627+553779515+552077657+549073373
2328+545437473+541577645+536873733+530448943+522256558+512941120+502923974
2318+492275456+481408409+471133266+461743139+452551509+442651623+431735457
2308+419962666+407643676+395362415+383875351+373575509+364274319+355550263
2298+347120712+338906833+330952729+323364057+316264522+309716550+303656217
2288+298000090+292833447+288353306+284622686+281525024+278922282+276712127
2278+274787404+273071054+271545537+270191014+268967406+267876089+266941274
2268+266111003+265275385+264414353+263630850+262975718+262327397+261543406
2258+260680807+259952815+259475261+259149141+258803774+258372971+257884810
2248+257349010+256758604+256191974+255799421+255636840+255574727+255432647
2238+255179248+254952376+254876398+254898746+254853145+254666440+254414521
2228+254165163+253892133+253600466+253407160+253396883+253476675+253478766
2218+253376643+253298732+253323779+253379343+253400941+253470004+253667822
2208+253891733+253973911+253929861+253947662+254150235+254464407+254713173
2198+254778282+254692236+254616798+254709828+254982440+255298092+255509217
2188+255568613+255530380+255490214+255506361+255554975+255585247+255608309
2178+255673993+255769114+255791095+255638425+255322529+254979078+254751319
2168+254676177+254700788+254766002+254827157+254836563+254766019+254651896
2158+254575604+254562436+254527060+254363643+254069833+253766601+253614279
2148+253668676+253826746+254024093+254434691+255294539+256614835+258249389
2138+260101583+262119233+264267396+266621007+269341165+272516233+276099339
2128+279982786+284119528+288568473+293380377+298492466+303801032+309221317
2118+314614257+319772852+324467811+328413789+331259637+332680227+332488940
2108+330755033+327797918+323959026+319463262+314532635+309425737+304320894
2098+299299275+294416305+289732476+285341655+281368888+277894018+274910707
2088+272360045+270171697+268301214+266731159+265418004+264308834+263405093
2078+262703159+262108834+261523566+260971620+260571664+260427912+260558583
2068+260867216+261159492+261244528+261086005+260825604+260589152+260376912
2058+260222047+260245492+260420875+260523817+260440053+260317412+260346988
2048+260561231+260882996+261260831+261662894+261950555+261938328+261682072
2038+261499355+261591062+261835630+262004064+262016204+261975237+262037872
2028+262262445+262611156+263063924+263602162+264151165+264686216+265261189
2018+265795020+266028249+265836841+265433054+265162393+265203030+265473133
2008+265769346+265963402+266045302+266031089+265948265+265877722+265873820
1998+265929802+266198878+267014152+268323283+269351616+269368355+268592951
1988+267786873+267334019+267180635+267226758+267403622+267631103+267869575
1978+268086152+268219540+268271115+268354339+268669695+269436860+270630457
1968+271735778+272089123+271589431+270782883+270230292+270114949+270393796
1958+270970773+271662935+272247384+272642654+272931708+273209092+273529830
1948+274058193+275153342+276994684+278931897+279672238+278712532+277029608
1938+275810877+275361541+275433495+275789940+276260927+276704446+277047339
1928+277395041+278170619+279685807+281424957+282588176+283371174+284355683
1918+284904407+283924932+281982460+280790901+281136634+282390219+283413204
1908+283565840+283085673+282610715+282460414+282551737+282820186+283415887
1898+284455994+285638670+286376520+286708110+287529219+289142227+290316193
1888+289866822+288392027+287199685+286709207+286664094+286855955+287191080
1878+287576265+287919472+288246516+289122666+291658610+296225284+300887880
1868+302277013+299525084+295377682+292549044+291529890+291484080+291659464
1858+291786076+291858309+291983232+292318776+293072598+294452743+296586746
1848+299688849+303852206+307761188+308542950+305420084+301415929+299284713
1838+299091337+299482096+299874875+301312639+304932759+309686974+312615245
1828+312625521+311557823+310444560+308530095+305945973+304184231+303945602
1818+304491487+304987905+305646764+307222724+309621378+311519225+311792028
1808+310928819+310416168+311405554+314160792+317838810+320680582+321401763
1798+320726914+320882667+323613868+328420338+331836596+330518947+326147513
1788+322998973+322786924+324364556+326269266+328231560+330100389+331199022
1778+331796151+333719986+338571499+345545031+350771940+350874847+347203866
1768+342880263+339665777+338893805+341199933+344863110+347060759+347639390
1758+348254425+348977940+349631853+352027859+357749444+364979685+369424763
1748+369422429+367337929+365858918+366140256+368063917+370366876+371569007
1738+372576682+376473193+383973520+389794806+388288867+382401253+376839810
1728+372889443+370969126+371227681+372925533+376004436+382174921+392546352
1718+403898146+408800590+404621522+396804533+390481883+387659863+388930413
1708+393837943+400120567+404925504+408708971+414829083+423783512+430445120
1698+431092692+427475185+420966369+413753303+409796839+410427655+414110619
1688+419997781+429443228+441603015+448307855+443982474+435835795+431087083
1678+431486064+435807124+440895908+444429981+447852684+452553147+455390738
1668+453035525+449059413+448815350+452635047+456450668+457175298+456881244
1658+459798924+468818184+484688770+502008546+507211000+501869061+500420115
1648+505560142+510012606+507171496+501123042+498563758+501484782+509708067
1638+522520582+536528122+544038168+542339306+539309767+541477560+549289637
1628+559919693+570914972+582152538+593385366+602691259+610185524+619453933
1618+632808640+646811931+655067299+658127599+661342155+666842181+672987166
1608+677333831+679540433+681333388+683897201+686631154+688752616+690794023
1598+693727728+697641448+701806129+705526298+708821952+712334288+716416755
1588+720536915+723870122+726265467+728304645+730706121+734290707+740278372
1578+749224614+758360018+762587613+762901210+765457707+772666036+781572774
1568+788305517+793520164+800170485+809726293+823407487+843576525+868552486
1558+884081327+883442987+879172264+877726767+877724607+876751629+874110828
1548+871615642+872172396+876802977+884258923+892702059+897444465+890665111
1538+876266429+866185567+862804773+860783641+855147196+847840628+843757465
1528+844118299+846910987+850371068+854555048+858751360+860256498+858537953
1518+855947386+853028939+848953230+844941760+843979511+848473116+858773446
1508+870604414+872346369+858967693+843812645+836156322+835583822+839113715
1498+842970164+843008832+838665720+834624918+835012715+839205404+842547251
1488+841243050+836649116+832103466+829079674+827483474+827085295+828086003
1478+830672808+834721344+839918852+844585106+844566642+838170418+830407913
1468+826581284+827269370+829204597+829372717+829515616+833726001+842991275
1458+852046625+851271656+840775616+830520852+825033925+823685132+824635885
1448+825321742+823702063+820500467+818092163+817747562+819507075+823067206
1438+826978836+828134356+825548039+822709367+822309795+823192617+822643109
1428+820092534+817615742+816853872+817746796+820097132+824085889+828024622
1418+828197061+823998032+818707303+814542483+811589897+809291606+807386130
1408+806231585+806182675+806685084+807122140+808217812+810827260+814175865
1398+816788380+818122262+817883981+815707548+812893123+811798148+812844770
1388+813675337+811793550+808197049+806412037+808350886+813204420+819235769
1378+825366263+831155221+835994193+838963919+839810859+839540599+839430935
1368+840091431+841653561+844017553+846416729+847448929+846689637+845687954
1358+846132744+847795690+848914562+848321300+846564435+844837669+843765965
1348+843403597+843720678+844938903+847466208+851301198+855561678+858907636
1338+860539717+860614545+859670411+858208471+857056504+857445138+860014873
1328+864008229+867957412+870911809+872782310+874082958+875625998+877995633
1318+881197229+885077715+889688301+894690794+899068882+902144719+904444891
1308+906975818+909941712+912721789+914834541+916328322+917577900+919193399
1298+921573973+924150676+925773490+926032881+925411471+924416686+923306592
1288+922153440+920772808+918994623+916966941+914867496+912653719+910463978
1278+908781315+907811472+907185045+906701796+906755444+907577720+908751634
1268+909834207+910779386+911554633+912148174+912952475+914389403+916391236
1258+918745195+921367951+923888776+925673858+926563090+927161508+928191827
1248+929704141+931065334+931594777+931022764+929655997+928365381+927918292
1238+928181446+928477763+928420214+927864853+926758313+925416627+924016695
1228+922078682+919657001+918152490+918650789+920399572+921908890+922670272
1218+923048734+923344145+923677041+924227594+924914566+925204056+924861197
1208+924547183+925124559+926756641+929012779+931284873+932956110+933902752
1198+934717225+935814429+936955457+938104359+939887838+942670702+945794613
1188+948300528+950084077+951594301+952744596+953335141+954286103+956859600
1178+960605130+963710857+965400069+966513089+967810184+969089583+970093983
1168+971387246+973640459+976305297+977918148+978065157+978036592+978848417
1158+979908764+980306038+979965408+979380367+979394511+980792980+983593749
1148+987266193+991651666+996757972+1001674490+1005059952+1006722410+1007148946
1138+1006112984+1003792258+1001989619+1002100886+1003401047+1004745101
1130+1006108664+1007591018+1008882122+1010221787+1012636570+1017042457
1121+1022775608+1026882739+1026485326+1022361334+1018511992+1018109145
1113+1020792725+1023972862+1026309124+1028576759+1030940263+1032013639
1104+1031774941+1032500999+1035035968+1036864734+1035929171+1033435100
1095+1031067973+1029186603+1028328724+1029025102+1030019400+1029456376
1087+1028306568+1029778890+1035356183+1043212537+1049852337+1053137122
1078+1054165838+1055597402+1058274920+1060404046+1059838374+1057104908
1070+1054990344+1055374171+1058306412+1062556442+1065818235+1065955072
1061+1063439821+1061239560+1061355843+1063023875+1064499332+1064873405
1053+1064082063+1062903760+1062398564+1062329170+1061941024+1062113812
1044+1064075166+1066608392+1067006432+1064540857+1061084538+1059091623
1035+1060312008+1064843864+1070366742+1073661699+1073741823+1071938278
1027+1069108315+1065277924+1061485086+1059119422+1058036152+1057706392
1018+1058927056+1061972446+1064966139+1066693184+1068614197+1071043612
1010+1070960074+1066894259+1061649513+1058054337+1056527183+1056731184
1001+1058087501+1059177181+1059036790+1058497803+1058865465+1060154548
993+1060872524+1058855084+1053625597+1048318913+1047221848+1051091465
984+1056163910+1058253113+1056319419+1051836404+1046923231+1043511711
975+1042450109+1042414646+1041436094+1039666201+1038880224+1039279727
967+1038853888+1036228554+1032191583+1028265740+1025267588+1023356677
958+1022507508+1022600660+1023020437+1022505766+1019724017+1014493833
950+1008374139+1003334509+999895678+997075400+993934489+990690671+987952120
940+985624985+983191181+980242775+976990318+974754663+975189838+978336602
930+981568157+981668416+978453443+974555399+971834335+970396571+970571171
920+973015983+976696787+979314527+980237759+980871292+981831171+981893180
910+980183066+977888607+977010662+977848475+978233417+975867822+971531608
900+968475140+968542374+970623147+972989159+975268290+977187840+977426120
890+975324306+972160473+969454806+967404411+965430586+962950798+959706005
880+956661869+955957827+958424029+961736822+962889068+962146846+962239301
870+963971850+965404598+965460475+965084592+964563998+962920142+960157205
860+957643835+956116611+955108030+954102794+953427597+954120003+956376490
850+958634440+959443548+959481938+960372075+962305978+963768406+962848658
840+959248047+955127678+952728850+952060550+951835508+951531735+951580994
830+952465209+954059876+955117994+954491706+953207640+953361895+955063301
820+956636230+957497592+958513279+959794907+960289931+959754985+959527573
810+960806136+963428404+966209526+967264021+964759639+959480893+955533730
800+955966258+959039865+960875808+960589872+960340305+961414726+962792154
790+963192144+963474248+966120205+971474685+976042979+976556118+974150392
780+972300027+972923179+975368270+977603158+978066342+976323272+973042319
770+969776067+968309249+969644873+973162644+977009548+979355634+979251891
760+976506163+971929926+967695434+965880950+967055003+970552359+975163920
750+979214128+980979493+980461059+979498184+979319543+979788788+980860423
740+982478290+983210550+981865868+979830174+979168005+979560192+978552517
730+974216860+967256844+960601925+957192356+958328368+963438088+970313103
720+975609058+976668848+973358075+968579370+966233841+967797156+971405500
710+974292037+975585927+976547130+978105707+978896212+976634012+970993317
700+964832307+961093047+959234600+956653857+952805838+949963126+949748882
690+950923075+951261057+950349321+949237137+947909038+945395459+941814356
680+938431402+936458831+936535122+938859749+942569259+944695040+942547521
670+936963261+932153969+932160936+934526043+934653056+930887669+924867537
660+920816702+921287480+924431456+926256461+924813471+921172589+917884181
650+916759387+916859367+915812466+913208243+911134995+910687279+909558025
640+905328409+899526701+895609707+895490148+899366315+905435287+909000853
630+905934004+896972991+885824327+876431483+872894135+877659811+888652966
620+899130125+901151606+892033829+877297374+864472318+856398794+851998969
610+850994290+854249603+860171985+865380918+870327117+878881660+889927347
600+896417212
##END=
