##TITLE=<SNM>
##JCAMP-DX=4.24
##DATA TYPE=INFRARED SPECTRUM
##DATE=2/5/2025
##SAMPLING PROCEDURE=Instrument type and / or accessory
##ORIGIN=Admin
##XUNITS=1/CM
##YUNITS=ABSORBANCE
##RESOLUTION=4
##FIRSTX=4497.3318
##LASTX=599.83466
##DELTAX=-1.4281778
##MAXY=1.8596804
##MINY=0.38671261
##XFACTOR=1
##YFACTOR=1.7319624e-09
##NPOINTS=2730
##FIRSTY=0.40874997
##XYDATA=(X++(Y..Y))
4497+236003957+235317026+234958994+235208534+236126214+237324510+238161815
4487+238220664+237699818+237410065+238035824+239292091+240110021+239606967
4477+237833449+235883953+234985889+235100541+235026946+234160887+233238716
4467+233148515+233938225+235012268+235617585+235290320+234235704+233052086
4457+232168356+231834810+232181106+232937847+233607571+234076881+234457919
4447+234465318+233810754+232919022+232409223+232282233+232240987+232311933
4437+232663976+233216983+233733889+234029011+234139361+234415985+235146330
4427+236098407+236659415+236368819+235302864+233983119+232883954+232101574
4417+231551269+231228925+231148189+231311262+231735180+232164123+232039370
4407+231262566+230623350+230930397+231921208+232593736+232493521+232080031
4397+231861447+231730276+231344506+230824348+230642984+230888325+231134526
4387+231130500+231042313+230801824+230066437+229141220+228773019+228684660
4377+227785271+226141462+225092249+225287655+226156794+227107563+228022921
4367+228819479+229335594+229509215+229325579+228744490+227765276+226570955
4357+225650487+225573674+226554711+228222903+229728315+230268864+229783395
4347+228955072+228409654+228154298+227914739+227694537+227775343+228188541
4337+228353765+227705137+226590520+225839423+225597919+225400552+225179008
4327+225365501+226086915+226840145+227012889+226549102+225987853+225700079
4317+225398848+224860106+224556949+224870809+225273700+225055684+224366516
4307+223892577+223922586+224211771+224527249+225025537+225938485+226913431
4297+227060416+225970559+224376255+223411462+223508218+224284403+225193927
4287+225959289+226472805+226592998+226299545+225872375+225529813+225129847
4277+224649971+224468280+224662481+224684506+224239303+223851744+224101903
4267+224798074+225271945+225194323+224873149+224864288+225422113+226263978
4257+226775033+226625623+226239423+226368357+227258144+228540154+229697393
4247+230235740+229830457+228804750+227909215+227315720+226505671+225376204
4237+224645205+224807762+225409293+225658850+225249455+224458988+223933375
4227+224412907+226123153+228251347+229442950+229155692+228230354+227741152
4217+227668899+227341548+226778767+226682957+227253326+227866231+227876384
4207+227162024+226073184+225204165+224974018+225271790+225688997+226008329
4197+226285676+226573003+226718714+226490804+225951356+225555985+225661070
4187+226130656+226615711+226932118+227007624+226820219+226559822+226530638
4177+226756484+226974723+227118421+227436222+227941754+228212527+227993135
4167+227501093+226992636+226539603+226249506+226224728+226339655+226410222
4157+226464804+226628651+226899459+227126801+227129193+226906531+226696740
4147+226637100+226554436+226347846+226235310+226296689+226215384+225797953
4137+225338571+225255770+225686175+226409465+226938709+226931172+226650108
4127+226627447+226868864+226906479+226606540+226366550+226436825+226529864
4117+226287379+225819394+225509577+225477503+225572332+225770697+226184291
4107+226729675+227100130+227109645+226974431+227160665+227787801+228312192
4097+228141926+227329348+226278466+225177460+224115411+223373847+223280033
4087+223874784+224743235+225285143+225297136+225053241+224759289+224421011
4077+224305792+224799984+225674904+226162713+225851468+225073407+224476195
4067+224470586+224915221+225259504+225211496+225098960+225285384+225550083
4057+225412821+224826191+224242417+224205043+224960579+226156828+226972297
4047+226923170+226402909+226085882+226119936+226282699+226501816+226701507
4037+226459194+225461569+224221235+223755555+224493781+225871394+227029735
4027+227596955+227697359+227534871+227246856+226998831+226972813+227290631
4017+227977339+228822869+229262721+228736953+227354815+225933874+225208433
4007+225189230+225384257+225464322+225538502+225833917+226342030+226901696
3997+227421596+227784411+227714050+227061448+226121880+225469673+225591157
3987+226638253+228214627+229378268+229284006+228066593+226858919+226800569
3977+228089117+229892076+231038372+230883249+229704552+228355640+227536558
3967+227409413+227824108+228619565+229483163+229892679+229667212+229310850
3957+229416605+230025794+230868812+231875815+233108904+234360457+235151457
3947+235287670+235132288+234930585+234251397+232780693+231264992+230803820
3937+231673234+233404525+235408534+237050330+237648643+237103879+236228528
3927+235901866+236169353+236457041+236552541+236985183+238192479+239610185
3917+239867554+238162899+235348412+233117095+232387610+232998537+234816294
3907+238446940+244208859+250519758+254349130+254171379+251128929+247025893
3897+243174427+240819494+240898699+242918641+244567699+244230041+243797210
3887+245762622+249071182+250488751+249837714+249331872+248555429+245946379
3878+243307147+243637440+247063491+251543590+255371568+257149904+256020540
3868+253877944+253375888+254002559+252967835+249550869+246217514+245649123
3858+249225394+257212297+267379309+272206013+266351932+256288130+248681352
3848+245122409+245436700+248896288+253998549+259111480+263448913+266264313
3838+266040825+262787397+258963153+256198015+254151711+252530392+252023225
3828+252850120+254442066+257228317+262237316+267558660+268648137+265906626
3818+263963083+263343673+261059221+257085118+254501449+255317537+259390943
3808+264448947+267694184+269463779+271859855+274060164+273479832+271144412
3798+269646279+268646726+266914386+265191492+265008992+266797600+270132522
3788+274431359+278967777+283129938+287302336+292712040+299629426+306526061
3778+312136487+317460653+324440846+334259617+347017250+361073962+373259557
3768+381736093+386893246+389353402+390178627+391167701+392777199+393581535
3758+393136176+393768956+398432192+408207772+420558729+429411657+432564336
3748+435257375+441409451+449310232+454649232+457992464+463608121+473467192
3738+487026476+501478818+512433646+517819174+520122812+523402791+530216280
3728+540859278+553124543+563667911+571277477+576539043+579486268+580426541
3718+580770618+581746476+583978601+587365884+589716671+587741415+581483755
3708+574749798+571350539+572341643+575186897+575885649+573484583+570564167
3698+569223240+569866447+572574250+577798580+585664293+594034660+598126546
3688+595894421+591096693+587299808+585577362+586313901+589228191+593515139
3678+598763490+603601414+605089979+603648562+601666492+596898636+586805754
3668+576072589+570524281+570235646+572073622+573774078+575194227+576656535
3658+577428693+576857446+576533640+579066893+585002158+591232493+591731090
3648+584520836+575019161+568081504+564473177+563026907+562631415+562952915
3638+564030778+565259720+565450618+564929616+566461751+572102840+578947199
3628+580850735+577364889+572970052+570777916+571863074+575228332+577588652
3618+576915779+575743999+577076633+580890724+585277818+588445192+589564215
3608+588885010+587867717+588116740+590037277+592826986+595355971+597151514
3598+598578409+599981557+601144837+602048768+603651934+606862877+610724117
3588+612539552+610763969+606439923+601116548+596075510+593111043+593700908
3578+597205201+600904279+602167636+600816729+599436500+600971869+605892044
3568+611485917+614244584+613591328+611423007+608739088+605327646+601708546
3558+599468987+599719800+602194548+605428480+607520745+607817949+607612288
3548+607819876+607170887+604349241+600553802+597928318+596899393+596279657
3538+595162424+593984897+593505365+593589956+593795617+594188700+594563887
3528+594149054+593145940+592642318+592361977+590819794+588131263+586190353
3518+585937888+586444264+586545718+586212585+585978429+585557952+583979358
3508+581373422+579371668+579013275+579317293+578630999+576821311+575222310
3498+574847398+575308346+575067100+572878612+569502135+567415514+568292568
3488+570899227+572185229+570842787+568314731+566073314+563998601+561702498
3478+559612471+558301105+558007722+558784801+560191529+561203591+561073986
3468+560055007+559056883+558602611+558224464+557126263+555237422+553093845
3458+551134489+549820543+549643136+550306235+550671614+549910365+548266177
3448+546896410+547019236+548466676+549357014+548236512+545868070+543800102
3438+542397022+541347758+540760612+540697427+540731635+540499957+539844257
3428+538534544+536556810+534617036+533733822+533964915+533808708+531689428
3418+528196113+525750859+525662173+526681255+527201293+527591450+528932033
3408+530628738+530987922+529611204+527685333+526150136+524830615+523389989
3398+522244880+522052331+522630667+522953957+522252830+520709511+518967311
3388+517379666+515869247+514239582+512776139+512522780+514151515+516534583
3378+517632785+516960394+515808402+515152462+514824870+514441939+513882979
3368+513142000+512532966+512656136+513679211+514954991+515757159+516143565
3358+516607335+517104246+517131537+516694542+516267457+515795910+514785568
3348+513415595+512470951+512113419+511752307+511298655+511563682+513020586
3338+514831959+515472826+514231701+511816146+509519563+508215872+508153823
3328+509035798+509966745+509932158+508771907+507276975+506189752+505628657
3318+505319512+504796514+503629931+501964165+500609576+500344033+501220605
3308+502486612+503054039+502225096+500217457+498047277+496872366+497335241
3298+499192007+501416321+502823634+502765886+501495818+500108982+499845298
3288+500979497+502578946+503660870+504229673+504801436+505362392+505507140
3278+505293839+505178206+505350003+505556318+505306056+504270970+502779445
3268+501548473+500806840+500290347+499965026+499904250+499856586+499802624
3258+500268631+501334896+502049754+501489658+499935774+498487577+497765595
3248+497382286+496695819+495746977+495117122+495123971+495487113+495582062
3238+494925124+493632824+492366198+491681452+491555220+491476514+490873331
3228+489579173+487954842+486534865+485647624+485303101+485195314+484908986
3218+484324386+483665658+483037627+482166080+480730306+478837370+477101020
3208+476144882+475997657+476267983+476752436+477323166+477558011+477109762
3198+476161057+475131099+474110330+472877017+471326609+469661910+468277414
3188+467509764+467390380+467630456+467944660+468310693+468639627+468407742
3178+467150855+465210599+463386492+461948619+460599191+459248938+458205834
3168+457542907+456734648+455190606+452923034+450464564+448423990+447338866
3158+447457252+448235880+448545576+447743305+446196201+444739503+444014492
3148+444099668+444392777+444154181+443240544+441981111+440652642+439558260
3138+439135650+439378651+439529077+438903937+437792279+436992899+436690292
3128+436307293+435352049+433955439+432592728+431664190+431275581+431106606
3118+430573353+429394656+427965765+426958246+426538836+426179548+425359244
3108+424246244+423429863+423212191+423441048+423785916+423959950+423882104
3098+423667151+423323488+422708982+421937306+421385400+421085615+420527756
3088+419367815+418087216+417511289+417683981+417755632+417210541+416532678
3078+416314215+416494237+416741024+416833599+416577073+415921545+415087062
3068+414232171+413260546+412178691+411239313+410547030+409858912+408923973
3058+407842497+406929445+406340854+406041413+405974511+405969384+405704392
3048+405079975+404332010+403587521+402737413+401835340+401145707+400745122
3038+400466984+400226805+400111551+400089216+399794800+398892314+397638799
3028+396647111+396091695+395642000+395060223+394306476+393300127+392152059
3018+391296273+390924011+390707441+390392961+390146656+390057488+389805677
3008+389113911+388197659+387481286+387030353+386497203+385578301+384365396
2998+383252706+382617586+382557086+382800190+382901540+382616210+382015401
2988+381223936+380289651+379400689+378864890+378625675+378152716+377124341
2978+375886623+374940362+374338383+373856821+373410189+373039751+372749086
2968+372512452+372257406+371798970+370984998+369952288+369083183+368614182
2958+368389731+368136853+367827363+367545749+367218089+366744992+366211636
2948+365728250+365264308+364786634+364298189+363716343+363015354+362390008
2938+361948882+361467251+360813720+360293819+360132966+359980406+359395841
2928+358500617+357750931+357361565+357199748+356975159+356451852+355631685
2918+354644023+353507484+352332125+351593624+351702580+352375831+352826145
2908+352562530+351786586+351017077+350490914+350041735+349512165+349022618
2898+348710960+348467375+348124812+347742605+347507210+347393814+347132195
2888+346592885+345984918+345521526+345127721+344677407+344268941+344044042
2878+343928685+343710635+343268890+342667255+342082656+341674534+341502703
2868+341478957+341352380+340893118+340207478+339718929+339699176+339897369
2858+339737582+338906747+337726776+336857844+336638417+336829969+336956063
2848+336738701+336242616+335715110+335266689+334726966+333931131+333065055
2838+332501655+332330546+332284981+332141782+331960900+331863920+331801973
2828+331643219+331292948+330671491+329758749+328709623+327815465+327313288
2818+327175527+327037284+326533937+325811921+325372550+325308195+325160867
2808+324668154+324141027+323916404+323880681+323697390+323193836+322456677
2798+321776991+321466813+321507835+321463268+320929981+319975356+318998673
2788+318308524+317930687+317680597+317355964+316907887+316385234+315789106
2778+315183135+314789089+314676313+314557823+314177956+313626739+313032090
2768+312298614+311404697+310634775+310278757+310290664+310341564+310082732
2758+309372761+308395079+307528762+306975342+306548258+305948792+305192188
2748+304607624+304415969+304439750+304284540+303729434+302877262+301997523
2738+301339002+301004665+300836412+300516013+299944216+299378751+299064615
2728+298924927+298719059+298328317+297856218+297547382+297496587+297405491
2718+296876368+295964900+295124119+294619258+294322261+294040027+293755350
2708+293524360+293286384+292864978+292216127+291607403+291331364+291267491
2698+291019431+290478538+289939021+289656203+289580938+289521023+289350017
2688+289074047+288798524+288594773+288408746+288167706+287894403+287630375
2678+287353287+287031133+286650009+286161960+285532053+284871295+284390748
2668+284150930+283977481+283733723+283540795+283546284+283602191+283419002
2658+282968310+282494319+282159448+281882205+281520766+281064344+280622788
2648+280311131+280145907+280001968+279700342+279204411+278694130+278381939
2638+278297348+278301547+278255121+278129887+277990044+277882911+277781526
2628+277673843+277614685+277573422+277354029+276840719+276213824+275755113
2618+275538921+275448308+275380511+275305970+275205221+275053333+274843765
2608+274601780+274391369+274272450+274221826+274164371+274088608+274031858
2598+273966350+273834611+273672863+273568604+273533829+273515107+273458805
2588+273311184+273057360+272798149+272680331+272726584+272809162+272782921
2578+272592678+272299277+272061025+272047397+272311941+272743327+273129062
2568+273267064+273079333+272677182+272297487+272142140+272258926+272522317
2558+272712974+272689967+272516312+272377501+272383076+272461335+272407596
2548+272077750+271596928+271256654+271127720+270977622+270669543+270379773
2538+270273242+270214136+269977278+269584866+269247759+269042889+268833115
2528+268541693+268336497+268398133+268604242+268621845+268297712+267814859
2518+267457774+267333744+267336325+267292997+267130681+266941625+266867083
2508+266907382+266928960+266865620+266790132+266763805+266745015+266677098
2498+266581374+266536704+266589496+266688248+266714197+266589616+266348439
2488+266093049+265883981+265691260+265477012+265274878+265123540+264995777
2478+264865896+264759177+264690210+264654832+264666825+264672005+264492636
2468+264039586+263525485+263264830+263284326+263331491+263255159+263141643
2458+263066791+262979172+262853886+262716314+262510894+262171068+261796225
2448+261572513+261530097+261518190+261428282+261324557+261282192+261217373
2438+261034511+260833117+260770844+260806842+260747201+260479198+260072333
2428+259713906+259558438+259592405+259679113+259744603+259836473+259981152
2418+260079388+260026716+259898023+259885686+260031035+260145274+260048638
2408+259788499+259576265+259564908+259716659+259892396+260050738+260288938
2398+260696870+261270681+262025752+263204535+265377055+269284582+275546252
2388+284579219+296786478+312643034+332453578+356039876+382750667+411803814
2378+442504659+473966512+504757385+533311521+558814501+581222480+600385240
2368+615692609+626723150+634046077+638857570+641007652+638416170+629941802
2358+616772330+600047633+579122369+553401683+526208813+504485614+493623223
2348+495041342+506992023+524695641+541221663+551687909+555781860+555873471
2338+554652238+553670839+553358975+553827872+554840347+555516455+554837009
2328+552371106+548396505+543433519+537652190+530799296+522731846+513689088
2318+504042424+494176023+484526640+475318245+466167150+456271291+445215766
2308+433373524+421363409+409457914+397754914+386596352+376428067+367320713
2298+358872844+350588857+342275446+334138444+326562260+319746775+313545280
2288+307705893+302218809+297322862+293215627+289856564+287035452+284560119
2278+282355422+280407457+278665119+277043025+275501599+274075410+272806409
2268+271679179+270653007+269733537+268943018+268226611+267491982+266748319
2258+266086407+265520391+264975386+264426973+263924436+263454557+262894977
2248+262180893+261454420+260937514+260672832+260508520+260320272+260101585
2238+259859892+259599082+259392027+259298987+259233376+259065760+258821503
2228+258620040+258473228+258308813+258140130+258040070+257986280+257881883
2218+257695425+257463248+257215980+257014724+256980756+257156804+257391132
2208+257482830+257406034+257287476+257212796+257163893+257112478+257070682
2198+257052081+257063145+257143503+257340405+257609802+257818698+257897439
2188+257907092+257905337+257858172+257731526+257553758+257365390+257211282
2178+257158266+257224377+257331698+257393937+257400803+257382494+257346204
2168+257281763+257194212+257094565+256976403+256838711+256691227+256505612
2158+256253302+256031071+256000132+256151160+256288577+256278012+256164375
2148+256049001+255988844+256011127+256129135+256346686+256693791+257239760
2138+258021262+258969761+259967661+260979878+262073761+263314283+264703546
2128+266225975+267903511+269792196+271943620+274368742+277012310+279740744
2118+282381370+284817092+287008126+288874546+290207042+290792054+290626383
2108+289903953+288745629+287091048+284957538+282606338+280285234+278000093
2098+275685183+273404017+271286389+269450477+268008974+266977416+266176590
2088+265370688+264512046+263757577+263244525+262939767+262733676+262575868
2078+262449464+262313630+262152639+262004794+261901808+261865260+261975180
2068+262317880+262794383+263101808+263054024+262828488+262714111+262753895
2058+262821794+262873519+262934106+263009319+263132747+263363290+263698160
2048+264073192+264424823+264728513+264993316+265178862+265178139+264998874
2038+264849601+264914558+265163995+265453696+265689728+265871626+266048517
2028+266247914+266466137+266728565+267082466+267557387+268183197+268906040
2018+269438604+269462660+269077063+268754788+268787929+269027695+269184883
2008+269185451+269179601+269312355+269563202+269812604+269998615+270125880
1998+270220571+270452301+271128460+272242820+273183971+273307157+272681519
1988+271887662+271364475+271245900+271461249+271778396+271994674+272137580
1978+272324055+272522833+272598339+272518445+272484582+272842837+273706589
1968+274661128+275097469+274905574+274547990+274432787+274559347+274782748
1958+275083617+275464380+275835712+276132882+276392367+276676700+277042492
1948+277609419+278594535+280107293+281697089+282359448+281587169+280138267
1938+279126463+278880829+279055896+279317257+279595567+279937423+280351430
1928+280861057+281664464+282888399+284132914+284895196+285422873+286154991
1918+286573471+285878281+284535168+283801434+284184949+285160377+285894318
1908+285976345+285641371+285363973+285328612+285414683+285536596+285810691
1898+286406870+287229773+287903661+288387409+289205373+290460952+291220377
1888+290735890+289620068+288879295+288716033+288816420+289013374+289317633
1878+289710853+290116497+290571423+291530314+293750360+297339622+300780454
1868+301738141+299798849+297005767+295234624+294762078+294986323+295383811
1858+295720866+295945180+296135733+296431698+297025073+298140413+299919472
1848+302491131+305850676+308948223+309614729+307316803+304393565+302958618
1838+303057697+303617346+304093058+305186785+307810823+311360474+313747362
1828+314048282+313412818+312522411+310908130+308845805+307544696+307482406
1818+308020029+308521552+309201239+310668226+312838818+314646544+315153608
1808+314675900+314336160+315063614+317200893+320239006+322754294+323507800
1798+322980845+323099954+325409856+329506353+332536207+331761846+328494566
1788+326177885+326219182+327682418+329313563+330807876+332104580+332913803
1778+333615722+335525762+339681142+345384075+349709188+350107983+347572872
1768+344450925+342096009+341608080+343576831+346660096+348517035+348905024
1758+349214995+349784934+350644402+353045503+357912335+363659869+367072102
1748+367097535+365653020+364801536+365398800+367307050+369533222+370947831
1738+372242126+375773159+382048783+386916510+386005076+381607589+377396250
1728+374408073+373027844+373407333+374911488+377396319+382186957+390233243
1718+399115561+403082797+400022418+394192117+389703260+388035980+389427186
1708+393446148+398486429+402533817+405959713+411160228+418202023+423122576
1698+423668872+421509912+417252595+412047159+409050446+409652046+412759230
1688+417602212+425173543+434943102+440843470+438433525+432786069+429476390
1678+430168156+434136184+438834351+442123449+445014406+448751616+451035398
1668+449319215+446336474+446226520+449281221+452446875+453397163+453659264
1658+456501834+464300541+477753898+492612606+497958316+494489677+493578553
1648+497625080+501140385+499290364+495314730+494285186+497643836+505143000
1638+516120611+527852966+534391896+533800173+532398642+535462635+543333097
1628+553536278+563942883+574620434+585704764+595641680+603978115+613181864
1618+625252962+637855626+646065690+650052681+653933606+659649444+666348092
1608+672330642+676819809+680240474+683178510+685710042+687868383+690072839
1598+692684694+695597676+698541563+701589243+705111776+709084037+712756272
1588+715483622+717565976+719758043+722365630+725242546+728489625+732871762
1578+738953220+745126840+748280862+749413719+752940518+760528230+769592532
1568+776637114+782184046+789063576+798561983+811101393+827971113+848083093
1558+861746757+863863869+862603403+862557357+862919673+862513237+861547291
1548+861376044+863557167+868534814+875408769+882159314+883740867+874702033
1538+861057297+852666969+850258573+849075195+845084832+839488688+836025073
1528+836143803+838842521+842614008+846555846+849298132+849313894+847708251
1518+846375239+844321862+840312365+836257509+835134494+838237514+845062807
1508+852571572+853679100+845439577+836148002+831921005+832517339+835301267
1498+836733530+834467885+830431889+828899892+831670054+836784120+839619119
1488+836852880+830462449+824842765+822115208+821485147+821424096+821919183
1478+824180217+828659059+834144871+838025864+837490443+832839735+828067267
1468+826271105+827422408+829094816+828910905+827839856+828967551+833443572
1458+838167446+837218225+830577668+824379890+821380183+820715983+820771390
1448+820335083+819294526+818511733+818393829+818404841+818548763+819988873
1438+822930832+824811310+823403825+820868026+820012275+820538679+820688313
1428+820124604+819775985+819713213+819422823+819501632+820914073+822497553
1418+821339987+817023649+812101892+808477768+806520752+805839551+805920701
1408+806592472+807578723+807796085+806578775+805312321+805919118+808459735
1398+811384762+813442475+814079281+812839326+810310685+808418988+808398959
1388+809286716+809076856+807854177+808104371+811254813+816058047+820609642
1378+824630083+828897414+833103625+835597439+835838960+835624626+836569442
1368+838222853+839748380+841784480+844910970+847664269+848275608+847395560
1358+846827170+847033382+847236083+846842657+845969767+844970301+844026723
1348+843268365+843052035+843821131+845728934+848512862+851489855+853685019
1338+854539257+854527418+854532511+854910383+855505685+856169266+857049314
1328+858593631+861205210+864634617+867979845+870649448+872896716+875066138
1318+877130665+879422190+882686269+886770171+890338337+892531229+893849994
1308+895099929+896845640+899873910+904621530+910006025+914058472+915946177
1298+916440783+916505964+916542374+916765312+917229150+917492077+916867247
1288+915043898+912355986+909662018+907983140+907832749+908707910+909516169
1278+909469434+908494746+907240544+906858474+908034418+909924601+910804373
1268+910108925+909196596+909796166+912327766+915945351+919599278+922540067
1258+924319229+925097754+925647423+926539722+927703483+928945710+930192754
1248+931109213+931215622+930553487+929810547+929580864+929778335+929808619
1238+929153161+927817189+926124752+924217775+922260897+920925269+920770886
1228+921212218+921120400+920330174+919474835+918934321+918927369+919634037
1218+920587938+921033882+921107597+921500680+922113603+922165775+921542390
1208+921315186+922653291+925543560+928836409+931488048+933346087+934605521
1198+935410545+936355981+938245131+940894911+943028542+943939082+944749268
1188+947089386+950839880+954184352+955800320+956069510+956197326+957023893
1178+958653627+960732264+963091585+966026455+969667304+973343601+975969359
1168+977021617+976918236+976504643+976111009+975347076+974056119+973123761
1158+973639841+975487005+977589388+979553356+982126047+985718578+989471826
1148+992285074+993911849+994525872+994359926+994148001+994565174+995537040
1138+997088033+999595475+1002193013+1002663116+1000820563+999571729+1000821044
1128+1003419478+1005949014+1008465541+1010769730+1011632915+1010577284
1120+1009067657+1009287910+1012404420+1017427975+1021839641+1024118983
1111+1024708228+1024530030+1023847177+1022771655+1022207807+1023375285
1103+1026077169+1028228351+1028259049+1027560985+1028635544+1031270319
1094+1033299468+1033944052+1033825115+1033237590+1032394641+1032262765
1085+1033201042+1033882243+1033476496+1033595020+1036109000+1040153738
1077+1042539903+1041638793+1039970446+1041165662+1045798063+1051387462
1068+1055048684+1055835056+1054610175+1052718684+1052343290+1055846137
1060+1063151926+1070627585+1073741823+1071213595+1065625710+1060721022
1051+1058551807+1058664136+1059327510+1059221582+1058788165+1059026245
1043+1059612531+1059507773+1058562337+1058363422+1060560857+1063641713
1034+1064148364+1061987752+1060831286+1062924997+1066792362+1070424952
1025+1072938382+1072938864+1069353215+1063902025+1059878349+1058590007
1017+1058530676+1057875906+1056875338+1057397131+1060632990+1065736318
1008+1069941084+1070486072+1067490702+1063309545+1059049509+1054649407
1000+1051788047+1052657839+1056063087+1058241388+1057727785+1056288915
991+1055274512+1054415113+1053648151+1053562390+1053861383+1053143153
983+1051004222+1048575727+1046445950+1043916690+1040959932+1039270317
974+1040116914+1042222394+1042939318+1040970601+1037315779+1033929391
965+1031576402+1029285978+1026078408+1022293568+1019156823+1017093810
957+1014837595+1011687565+1009205797+1009167046+1010814882+1011138998
948+1007852687+1001771298+996050022+992874113+991462774+989914947+987964745
938+986458422+985428602+984307102+983208659+982679364+982588854+982380852
928+981952185+981562131+981251299+980726340+979835486+978974985+978421325
918+977723398+976776861+976304832+976488605+976444348+976089879+977201881
908+981003996+985639563+987788061+986234796+982285180+977747351+973776329
898+970642061+968124433+966412104+966338870+968202967+970541502+970919993
888+968386740+964467478+961545754+960731094+961348490+962288075+963246244
878+964094975+963878301+961999750+959667892+958341694+957752173+956975438
868+956119480+955471248+954670491+953835595+953796913+954633461+955291811
858+955091036+954467308+953698488+952426871+950976781+950629401+952080799
848+954427593+956406153+957932643+959296834+959674775+957909103+954260064
838+950231638+947072799+945799324+947631140+952525985+957767866+959697970
828+957559521+954220005+952671834+953656089+956581942+960986174+966098932
818+970045726+970886335+968371185+963981269+959929167+958410729+960179085
808+963241426+964509808+963325811+961715900+961433632+962578396+964235799
798+965131058+964427970+962888264+962488505+964076735+966307140+967498708
788+967567537+967376399+967172321+966858323+966858667+967602571+968911837
778+970408180+971568018+971853039+971968534+973030979+974021911+972680433
768+969146888+966168312+965601918+966474463+966589614+965540660+965239464
758+966727066+968189063+967718135+966177535+965971254+967747594+970047791
748+971705676+972398784+972182661+971686817+971391678+971073963+970777792
738+970846208+970970031+971025714+972014719+973779977+973489312+969654984
728+965348558+964082999+965531712+967751724+970772974+975077610+978561736
718+978262261+974543772+970453401+968065102+967939145+970373146+974715226
708+978325033+978812687+976917823+975120491+974297984+972692203+968947972
698+965095680+963906108+964500584+963296145+959081262+954012623+949588087
688+945812195+943129102+942328207+943155325+943295393+939499472+931684555
678+925264733+926450726+935109762+943986849+946098524+940573824+931214590
668+925199965+928308422+935153744+937312360+933642603+927908250+923616416
658+921605438+920962093+920326801+918510816+914469795+908170837+902359671
648+900611964+901950138+902059645+901155576+902810776+905444037+902905072
638+894825232+887347784+883126293+880590563+879265810+879769295+880989565
628+881293651+881025906+880995277+880589943+879413862+878382321+877622999
618+875226028+870772239+866895513+865413142+864718932+861998809+858517437
608+859405056+865902792+870977694+868326262+862635340+860947652+864812196
##END=
