##TITLE=<SNM>
##JCAMP-DX=4.24
##DATA TYPE=INFRARED SPECTRUM
##DATE=2/5/2025
##SAMPLING PROCEDURE=Instrument type and / or accessory
##ORIGIN=Admin
##XUNITS=1/CM
##YUNITS=ABSORBANCE
##RESOLUTION=4
##FIRSTX=4497.3318
##LASTX=599.83466
##DELTAX=-1.4281778
##MAXY=1.8515354
##MINY=0.39385396
##XFACTOR=1
##YFACTOR=1.7243768e-09
##NPOINTS=2730
##FIRSTY=0.41988567
##XYDATA=(X++(Y..Y))
4497+243499957+244963183+245874082+245578664+244175547+242210890+240404632
4487+239384644+239327299+239925185+240849599+241926430+242669062+242386312
4477+241307027+240729620+241291576+241913105+241312937+239863848+239049994
4467+239559426+240596213+240980275+240580814+240392067+241196640+242566245
4457+243428233+243358306+242827218+242278398+241814385+241731980+242232823
4447+242618993+242008438+240705476+239631755+238936912+238360491+238230402
4437+239015169+240478810+241892487+242527843+241966665+240586708+239403499
4427+238874434+238498443+237971157+237772438+238173696+238618611+238603420
4417+238441306+238682524+239371664+240237506+241072583+241612416+241528024
4407+240842098+240011583+239390157+239001273+238979013+239613453+240644761
4397+241152586+240606030+239586232+238991059+238836619+238512356+237898673
4387+237374256+236963613+236330711+235442903+234599547+233994350+233705085
4377+233851748+234321032+234640957+234488383+234138542+234132700+234548078
4367+234887118+234782591+234476942+234357620+234374540+234216903+233824130
4357+233484347+233443715+233551872+233525947+233491260+233771884+234184480
4347+234158728+233529283+232627700+231723888+230915807+230439661+230621789
4337+231406331+232163359+232269321+231851488+231547429+231573544+231623284
4327+231591207+231655033+231701628+231434226+231019020+230933090+231122908
4317+230972236+230327132+229875563+230152851+230862230+231523181+232006586
4307+232133408+231638614+230754315+230107898+230122035+230890332+232099015
4297+232769939+232022037+230516156+230114984+231706623+234077464+235202636
4287+234309677+232448977+231143890+230779444+230529446+229762671+229015166
4277+229250750+230488417+231588753+231540931+230711453+230383198+231105625
4267+232048877+232229795+231857538+231830645+232252038+232325854+231652752
4257+230842441+230759949+231671037+233050130+233957503+233878813+233224930
4247+232695726+232430346+232149222+231698915+231093579+230420909+229954684
4237+230034411+230670112+231375378+231490949+230857373+230198080+230447957
4227+231607246+232730033+233070697+232704229+232142914+231950485+232507878
4217+233589030+234467142+234787102+234830171+234746781+234279622+233414887
4207+232649771+232497024+233026055+233706347+233649711+232529896+231254535
4197+231077783+232073730+233075052+233059757+232096181+230953795+230289593
4187+230269649+230600185+230845759+230886771+231012591+231500886+232259228
4177+232935009+233215908+233052049+232845276+233228767+234258537+235010864
4167+234534200+233141367+232144193+232362390+233391745+234257742+234337486
4157+233658473+232741059+232221033+232334011+232702190+232820595+232690178
4147+232692736+232944687+233154364+233105177+232909776+232692805+232321930
4137+231630802+230815116+230461490+231032553+232315052+233571885+234210957
4127+234026220+233034282+231629437+230639210+230645017+231406798+232211665
4117+232482524+232047685+231286336+230919782+231216098+231581339+231302046
4107+230459692+229739754+229603149+230069046+230984714+231986935+232531521
4097+232410333+231917164+231309063+230654056+230208381+230204717+230384511
4087+230379067+230244416+230157223+230052938+229891049+229846130+230109263
4077+230768055+231685987+232307758+232002351+230843529+229624805+228919418
4067+228598215+228403660+228441838+228855091+229511895+230288954+231157440
4057+231788406+231674667+230907476+230233251+230082924+230121413+229970965
4047+229796960+229886244+230076806+229931940+229340673+228721425+228624312
4037+229165579+229863707+230152505+230040045+230025233+230360056+230759949
4027+230987324+231244027+231680128+232014190+232069288+232195488+232674883
4017+233172822+233194115+232739556+232240649+232054442+232135517+232135586
4007+231825374+231375689+231164439+231392730+231924785+232417367+232608776
3997+232531400+232411750+232443533+232706614+233127281+233439204+233415198
3987+233202739+233140330+233218864+233064060+232508621+231920828+231921346
3977+232818954+234208970+235194807+235248626+234680881+234011737+233304207
3967+232533681+232136692+232575126+233621453+234545659+234871598+234670494
3957+234299671+234155151+234550706+235673838+237544130+239633242+240690751
3947+240009215+238776975+238757774+239879213+240377221+239245378+237295601
3937+235985813+236363411+238556756+241434834+243154695+242946349+242136816
3927+242551607+244275771+245578232+245315358+244654873+245281501+246880883
3917+247272065+244960332+241033403+237846565+236633059+237142613+239178631
3907+243454192+250228850+257622324+262489204+263396317+260936261+255987616
3897+250296357+246816538+247473843+251038504+253445277+252327674+250868769
3887+252767301+256550660+257993718+257025613+256373614+255112183+251388069
3878+248159597+249300686+254261499+259885458+264357076+266562295+265197183
3868+262095619+260823698+261383838+260573527+257263617+254202564+254325290
3858+258798291+267743999+279069328+284619282+277769495+265688659+256462742
3848+252213659+252554375+256255260+261701378+267669596+273398273+277275375
3838+277152182+273610577+269731470+266738823+263603937+260234643+258262450
3828+258434606+260046570+263435964+269797249+276899851+279214315+276663438
3818+273887156+270777538+264761463+258098815+255125681+257343447+263474747
3808+270008464+273711699+276215567+280782864+285234780+284459052+279951554
3798+276523860+274267294+271326341+268550975+267907237+269457431+272186617
3788+276003834+281227019+287071560+292674918+298822292+306328209+313713526
3778+319137193+323765188+330433712+340684231+353856779+367306408+378283434
3768+386624359+393197896+397326275+399053603+400458534+402449737+403490448
3758+403001789+403708870+409025866+419757128+432184781+439623295+441424456
3748+444676209+453259753+463122270+466933161+466001333+467751785+476012242
3738+491129502+510723808+528457535+537442632+538141658+537711416+542041245
3728+552129167+564718934+575143250+581530511+585000514+586544365+586505029
3718+585573271+585180809+587272738+592335952+596460287+593752117+585091353
3708+576986028+573677898+575339689+579027940+580809743+579568965+577342403
3698+575692192+575263851+577545201+584208816+594794970+605026548+608256317
3688+602796632+594228228+587539863+584343485+584955094+589210848+596737920
3678+606542124+614310604+614451495+609784061+606881147+604621090+597655230
3668+586972291+578005515+572717484+569972986+568761244+569354671+572191080
3658+576066195+578367938+578726974+580541581+586706825+595456493+598873125
3648+591522270+579387114+569883599+565107766+563266060+561234103+557897110
3638+555464396+556461934+560659963+566102607+572361974+579762984+584716382
3628+582289924+575369242+570370978+570138176+574611247+581545582+586083256
3618+585147142+582298773+582236347+584999684+587764473+589253779+590049970
3608+589948070+588215903+585618898+584014487+584335120+585941121+588207124
3598+591783796+596977531+602030652+605015971+606638010+608843592+611426909
3588+611641909+607798595+602001063+597338468+595129776+595301499+597326716
3578+600257628+602458024+602465767+601004252+601288798+605818660+612922783
3568+617273801+615852313+611876542+609119289+606928018+603040253+598015545
3558+594796837+594994347+597551878+600170453+601093915+600411170+599774466
3548+600189187+600736988+600219813+599124004+598790582+599352969+599347577
3538+597765564+595363165+593080156+590549932+587249579+584089978+582554837
3528+582777926+583509548+583735194+583416496+582763201+581759269+580626060
3518+579882686+579564748+579355210+579496412+580318009+581016102+580357828
3508+578719163+577742814+577622214+576522845+573604722+570745154+569729262
3498+569753527+569085783+567572799+566172534+565369049+565198501+565553873
3488+565792412+565124737+563645939+562356043+562117089+562552757+562166725
3478+560170683+557528465+555437539+554039140+553185120+552971745+553027984
3468+552550974+551364430+550073843+549110595+548209393+546863569+545078897
3458+543591353+543073936+543327892+543585028+543541371+543853916+545178654
3448+546689772+546354759+543202832+538592950+534883095+533535267+534352405
3438+535838532+536309077+535071514+532842670+531078979+530675249+531208117
3428+531498920+530795366+529454624+528679483+529134751+529643630+528424836
3418+525695478+523210569+521627140+520401121+519584640+519639012+520055324
3408+519841499+518948074+518100622+517570381+516972184+516131921+515535106
3398+515779625+516739037+517401872+516716361+514777145+513001874+512695067
3388+513460737+513582374+512084184+509729347+507841427+506960031+506821698
3378+507005174+507343297+507867109+508445950+508628700+508185530+507649828
3368+507624698+507820722+507557468+506901925+506511503+506645585+507118239
3358+507727117+508096385+507733823+506861760+506622080+507803300+509701176
3348+510773238+510493461+509862357+509774801+509852817+509367892+508378650
3338+507378382+506522876+505652437+504806989+504249096+503934650+503453976
3328+502589310+501429935+500004299+498328786+496660635+495335447+494571541
3318+494561724+495309488+496476226+497758414+499014573+499765206+499235968
3308+497262704+494827121+493492531+494143995+496124034+497871410+498558925
3298+498578455+498452428+498130827+497416349+496372252+495142915+493831416
3288+492828278+492929764+494554431+496864194+498285613+498173377+497447113
3278+497339337+498008187+498713608+499017580+499090445+498914643+498197643
3268+497079401+495990748+494875824+493388004+491770942+490801403+490905688
3258+491678962+492210033+491847747+490736142+489554887+488767303+488310584
3248+488026970+488003085+488225552+488238859+487603849+486675685+486325602
3238+486778588+487364031+487481209+487179553+486633169+485602380+483893165
3228+482083294+481118179+481119838+481189316+480553476+479258914+477750043
3218+476486140+475764784+475397314+474915638+474274717+473826190+473586441
3208+473092736+471965922+470330264+468790387+468006605+467981441+467886800
3198+467013354+465690689+464834803+464856579+465414231+465953943+466050451
3188+465347070+463715524+461584433+459753995+458735130+458388192+458236241
3178+457972226+457571020+456985301+455915901+454068837+451651643+449438215
3168+448174693+447958933+448323119+448744235+448792489+448058759+446478475
3158+444626261+443200970+442290193+441520583+440736629+440147280+439907876
3148+439855544+439665293+439109542+438115219+436688961+434986348+433423554
3138+432421039+431964320+431716448+431469336+431134289+430563813+429730706
3128+428836382+428053464+427405665+426866298+426282100+425432816+424422247
3118+423621562+423092566+422551367+421905261+421293894+420708209+420080596
3108+419551081+419236082+419030968+418872380+418762011+418445525+417639310
3098+416619408+415967979+415717307+415355886+414674903+413991881+413583139
3088+413430392+413451789+413603913+413802425+413889842+413633467+412856149
3078+411697880+410564222+409683967+408921374+408153146+407598882+407513159
3068+407622733+407238394+406121190+404929565+404448062+404589643+404593653
3058+404097494+403475481+402997158+402271274+400954555+399501542+398673550
3048+398602621+398768088+398663146+398102245+397055209+395593936+394043758
3038+392890674+392374018+392292027+392278408+392076993+391462722+390230932
3028+388534471+387004826+386228787+386155680+386217830+385980397+385465779
3018+384901042+384460292+384287117+384456040+384791952+384903427+384491747
3008+383611595+382615924+381792080+381054790+380114286+378912049+377738606
2998+376967198+376702631+376640793+376394096+375955627+375530363+375018995
2988+374182742+373181679+372408059+371947710+371618055+371315396+371043501
2978+370797945+370526775+370123114+369510365+368765642+368070626+367525694
2968+367057879+366520206+365889551+365330033+364968854+364690114+364314141
2958+363875258+363520715+363215014+362750380+362031167+361170372+360296338
2948+359430635+358569357+357739671+357006805+356530314+356475389+356740129
2938+356894639+356508192+355503292+354220482+353203864+352799719+352858827
2928+352890870+352506428+351675809+350686118+349907037+349486162+349249628
2918+348939122+348472690+347937541+347421990+346934507+346469077+346112807
2908+346024456+346196560+346275923+345839183+344905592+343963084+343398000
2898+343088359+342649476+341924006+341139671+340631483+340448042+340319526
2888+340065052+339816281+339693918+339533221+339159667+338693062+338363649
2878+338214635+338126838+337976545+337658539+337108872+336395743+335683374
2868+335073389+334574465+334175022+333814119+333400296+333019864+332909391
2858+333041778+333033241+332652946+332106494+331669063+331350676+330998691
2848+330492508+329834996+329208108+328857956+328837596+328952044+328962034
2838+328752772+328348489+327879257+327517697+327386762+327487832+327614724
2828+327354097+326441315+325175269+324170300+323685859+323525646+323490285
2818+323514378+323466055+323210371+322797066+322347156+321859120+321243640
2808+320462174+319593982+318786868+318153551+317740420+317537449+317434027
2798+317241841+316855290+316323183+315743755+315174973+314632219+314138825
2788+313785216+313629807+313501810+313128187+312530612+312042023+311874447
2778+311884886+311763318+311308569+310540549+309618088+308676617+307806075
2768+307143239+306801624+306695403+306603008+306403770+306095615+305636891
2758+304988400+304281769+303701166+303195501+302557034+301814282+301293720
2748+301203157+301339208+301324207+301026836+300611665+300203891+299692627
2738+298957998+298118150+297375259+296749236+296167146+295692591+295432206
2728+295315823+295179460+294972860+294708154+294317283+293737232+293064995
2718+292494381+292103993+291764349+291301131+290735183+290247839+289887074
2708+289501561+289046743+288724986+288693341+288824622+288851946+288598889
2698+288041013+287304033+286612594+286103922+285712135+285319674+284937288
2688+284655317+284519317+284499269+284475764+284266019+283802628+283255657
2678+282851513+282643529+282575884+282624656+282686080+282481726+281846595
2668+281025085+280427803+280173312+280094968+280060005+280005494+279787003
2658+279299952+278691834+278216294+277930624+277722917+277585621+277644988
2648+277868941+277936967+277561512+276843785+276164444+275801727+275758381
2638+275839957+275799947+275499154+275009528+274551720+274334231+274424517
2628+274693267+274891365+274834348+274492993+273923917+273232322+272604657
2618+272216067+272052882+271929118+271715985+271459108+271250036+271110027
2608+271039824+271060944+271155896+271247565+271275494+271244229+271182045
2598+271081562+270919172+270718879+270527972+270338361+270120941+269911005
2588+269767747+269698684+269699842+269777840+269870632+269853263+269685566
2578+269496992+269474006+269661612+269907773+270034509+270009414+269900048
2568+269757377+269599722+269413429+269171986+268960218+268987024+269318062
2558+269703281+269842392+269739195+269640423+269692324+269806236+269816778
2548+269625024+269207416+268626190+268023309+267507448+267083099+266739912
2538+266522060+266468811+266555036+266678488+266678488+266464560+266145309
2528+265909448+265813770+265815049+265901965+266018020+265988345+265722309
2518+265363238+265079659+264854877+264615042+264411241+264337719+264377608
2508+264411639+264323478+264086408+263808567+263663823+263713874+263829255
2498+263844205+263736048+263583578+263436120+263335827+263355892+263470962
2488+263520875+263429137+263273815+263070136+262741777+262348313+262080911
2478+262036149+262169210+262358095+262403843+262154727+261711091+261332318
2468+261140615+261074387+261064121+261078431+261037107+260831734+260455830
2458+260055194+259818331+259802759+259870059+259829219+259641993+259409572
2448+259174247+258879141+258550194+258352183+258384814+258523544+258517581
2438+258216823+257712887+257260713+257039664+257021984+257087866+257175232
2428+257261577+257276285+257121274+256799708+256485832+256391674+256537266
2418+256737454+256854616+256957622+257167126+257448026+257634543+257611523
2408+257434286+257291287+257333820+257523155+257685511+257716378+257675988
2398+257718089+258004105+258694351+260024102+262427936+266552271+273066613
2388+282465584+295071787+311173623+331075635+354934648+382470886+412813426
2378+444724428+477095745+509117911+539787548+567550054+590995279+609888173
2368+624984349+636930672+645733847+650652852+650313208+644032099+633053690
2358+619303926+603327703+583889151+559705253+533321477+511562550+500348679
2348+501794502+514689244+533970072+551260180+561023735+564392320+564835386
2338+564381467+563813411+563787175+564768709+566264444+566817222+565200990
2328+561664621+557499222+553263931+548031413+540646787+531189867+520666830
2318+509893051+499300710+489218665+479628942+469860928+459098764+447175704
2308+434525654+421600805+408771288+396554142+385457587+375585392+366582943
2298+357971781+349474894+341067290+332855745+325006035+317712974+311109158
2288+305200946+299932894+295259757+291120351+287420175+284109850+281242677
2278+278887218+276990932+275385260+273916330+272524481+271219705+270018488
2268+268893903+267807981+266804394+265967813+265253751+264502944+263663010
2258+262853477+262191453+261674468+261244900+260879573+260580077+260305866
2248+259978267+259557203+259056274+258497568+257927178+257434130+257083355
2238+256876686+256793278+256779227+256719117+256531338+256265319+256027298
2228+255849733+255675694+255434389+255113738+254779953+254532374+254434950
2218+254486091+254623421+254730921+254686072+254477726+254265785+254223027
2208+254314488+254351128+254266925+254200974+254277071+254435918+254535831
2198+254524908+254464867+254438476+254470104+254525634+254576567+254642933
2188+254745715+254846907+254887280+254849240+254743883+254593833+254452596
2178+254371643+254356589+254400816+254487456+254522609+254393385+254120781
2168+253847866+253698748+253726747+253909946+254122440+254187130+254007197
2158+253631708+253232143+253002401+252983701+253001554+252875527+252637368
2148+252432081+252315369+252308853+252527068+253042549+253711192+254320624
2138+254846907+255434648+256195945+257121395+258139171+259210351+260375706
2128+261716034+263292516+265126911+267202628+269483459+271927563+274435855
2118+276836267+278999021+280887875+282461505+283648965+284395744+284617554
2108+284209762+283172284+281604236+279636624+277489044+275413241+273473056
2098+271566453+269674868+267913683+266391937+265141688+264104279+263146855
2088+262182518+261265536+260502459+259904677+259384200+258893244+258513606
2078+258356521+258412795+258558611+258659682+258637041+258531546+258534691
2068+258824717+259321688+259720941+259818677+259687482+259482540+259268076
2058+259114949+259134410+259297457+259447387+259569180+259810070+260192559
2048+260542141+260757141+260975649+261367454+261829393+262056629+261955143
2038+261783731+261801135+261974241+262103621+262106767+262134091+262405883
2028+262917787+263423641+263747196+263936427+264154693+264616977+265440614
2018+266332138+266723631+266443336+265917952+265612493+265626302+265823690
2008+266053830+266226971+266322044+266350302+266340399+266351166+266404553
1998+266487390+266777070+267634685+269038130+270242648+270463818+269750049
1988+268746946+267946746+267545038+267590181+267925712+268259567+268458390
1978+268595530+268732187+268834156+268874097+268966855+269411839+270389968
1968+271505600+272000601+271668146+271102043+270854879+270910634+271085295
1958+271386762+271816831+272244601+272600751+272941761+273333479+273837519
1948+274596275+275865536+277763394+279703613+280428201+279355586+277478156
1938+276160867+275773988+275883734+276085461+276314477+276646760+277062052
1928+277568892+278511556+280162492+281945194+283024688+283655153+284500617
1918+284950700+283919115+281983200+280820403+281108769+282118957+282736011
1908+282475764+281726116+281158077+281045202+281250472+281637973+282271687
1898+283243334+284314480+284968571+285259028+286069633+287686280+288832503
1888+288291115+286730291+285570674+285231029+285328091+285541310+285765142
1878+285972520+286214205+286690402+287983219+290968538+295734692+300286400
1868+301457838+298590009+294450500+291723734+290918452+291171059+291623942
1858+291951730+292206447+292554767+293112661+293985796+295340399+297391782
1848+300506135+304842878+308990959+309920782+306846698+302916520+300917988
1838+300824038+301195829+301472529+302782093+306318704+311031488+313910794
1828+313855315+312781664+311742336+309850406+307124884+305143532+304783908
1818+305383592+306032463+306826788+308516646+311109504+313308137+313825381
1808+312979381+312294665+313095799+315762939+319444657+322323548+323113966
1798+322580718+322915489+325765586+330595722+334003471+332687374+328280394
1788+325044783+324766804+326361122+328293080+330131571+331697856+332521492
1778+333087993+335216769+340408361+347844178+353565562+353896599+350092241
1768+345515542+342093690+341121593+343190397+346609380+348567366+348888794
1758+349275552+349918478+350701016+353378353+359467586+367101639+371833366
1748+371827732+369505940+367756076+367847019+369683436+372038031+373429412
1738+374687508+378882046+386705762+392598316+390731446+384411727+378589169
1728+374434831+372272284+372311309+373861486+376826757+382907107+393293816
1718+404834750+409921296+405630112+397495441+390904759+387896108+388971799
1708+393755755+400220789+405535125+409838061+416178900+424865382+430876635
1698+431133459+427669264+421325487+413874495+409583518+410140168+413939686
1688+419918102+429476059+441902813+448735041+444056096+435450776+430537889
1678+431092015+435701517+440960892+444409187+447557588+451925267+454515739
1668+452111058+448199131+447974211+451685656+455238098+455606639+455024446
1658+457837938+466933852+483010904+500640139+506162457+500976499+499457674
1648+504292614+508345328+505329661+499314018+496699694+499393035+507353909
1638+520038663+534109130+541665375+539631034+535864871+537118403+544020973
1628+553872602+564354263+575562535+587328389+597223571+604743799+613597510
1618+626429549+639695875+647165429+650187595+654244319+660815782+667775973
1608+672793006+675693708+678135859+681390515+684927368+687527899+689265112
1598+691434330+694849096+698888675+702311875+704867471+707405576+710351559
1588+713208293+715710035+718339879+721472448+724951507+728969586+734658719
1578+742638673+750388903+753716770+754367438+758184551+766923435+777112219
1568+784715474+790610413+797873816+807980196+822430818+844042598+870981260
1558+887481918+886246601+880938177+878431665+877538482+876445853+874837502
1548+874062603+876124391+881623826+889757599+899318667+904811742+896046520
1538+877285045+863303274+858288383+857899724+856138522+851860092+848699732
1528+848988703+852077858+856708168+862076392+865656313+864471809+860704747
1518+858193534+855807519+851274961+846542404+845334672+849290186+857921224
1508+868048136+871040022+861583758+848981582+841532698+839843048+841640406
1498+843611976+842721489+839371638+837439335+839740664+845237403+849148881
1488+847036904+839984837+832463572+827628286+826149764+827049791+829185342
1478+832358907+837112410+843534687+849410130+849890804+843427117+835665689
1468+832232534+833686722+836296171+836174153+834690654+836383346+843063346
1458+851048278+852307652+845150643+836709856+831378341+829417417+829484544
1448+829126442+826521002+822710871+820044872+819479097+820897475+824227623
1438+828353617+829896155+826940010+822738939+820632769+820255931+819662297
1428+818529503+818247238+819452689+821460139+823864474+826683946+828263884
1418+825793459+819857871+813999295+810273367+808665361+808356411+808885338
1408+810586188+813257442+815029843+814566591+813553257+814278449+816530764
1398+818738004+820387144+821192114+819831462+816344730+813419141+813171580
1388+814446924+814251073+812165021+810968902+812420463+815666270+819436581
1378+823671596+828547048+832975494+835213083+835285187+835312080+836758248
1368+839238214+842287341+846348628+850889413+853278262+851759022+848252034
1358+845878946+845557138+846017072+845967020+845537850+845540062+846095882
1348+846619279+846762589+846979663+848238277+851065215+854587066+856886459
1338+856959739+855794799+854918207+854975310+855915157+857294475+858342375
1328+858811987+859682288+862077014+865747153+869480132+872608831+875347695
1318+878171383+881394931+884894590+888224393+891366089+894969653+899377912
1308+903868715+907352889+909462861+910626350+911497480+912606146+914263167
1298+916506494+919042249+921142819+922001229+921617340+920804557+920116626
1288+919280961+917822764+915626031+912804209+909760197+907346806+906294689
1278+906306441+906175160+905236419+904336876+904785057+906717430+909045167
1268+910843493+912289246+914054181+916039578+917301648+917447240+917314507
1258+917831751+919125898+921085094+923717011+926555010+928680952+929800749
1248+930631437+931769139+932768785+932847457+932076568+931170872+930372746
1238+929429926+928419288+927668862+927171804+926744017+926222556+925179080
1228+923228249+920870094+919315181+919348641+920610642+921952353+922503748
1218+922330504+922013534+921852941+921865661+922444156+924206879+926957841
1208+929542542+931211522+932367821+933351082+933731031+933634246+934254912
1198+936187768+938684118+941077738+943428980+945380018+946099611+945988101
1188+946844575+949496955+952571731+954444719+955231301+955842219+956377783
1178+956696273+957468545+959619166+963413396+968257393+972789329+975627674
1168+976474608+976336966+976590473+977953821+980050105+981414905+980858878
1158+979001099+977846667+979035458+982455132+986250123+988729881+990457969
1148+993121479+996394456+997930841+996824594+995057861+994883234+996597911
1138+999184201+1001510210+1002838301+1003444518+1004411672+1006028181
1130+1007236674+1007372587+1007394779+1008767944+1011985891+1016088242
1121+1019127069+1019963219+1019483236+1018917876+1018023173+1016411434
1113+1015382337+1016709668+1020061662+1022871387+1023755099+1025244198
1104+1030688051+1038303266+1041399265+1036578842+1028103835+1022449682
1095+1022463993+1026556043+1031457419+1035639894+1039388636+1042143400
1087+1042812665+1042391791+1042864998+1044015075+1043988182+1042264242
1078+1040429830+1040407085+1042215850+1043842660+1044002562+1044392949
1070+1047903393+1054827083+1062343646+1066995941+1066582809+1061141306
1061+1053681914+1048618147+1048259146+1051672598+1056999965+1063143709
1053+1068605260+1071145440+1070034146+1067548580+1066665422+1067076479
1044+1065478014+1061074663+1058410876+1061855507+1069212929+1073741823
1035+1072536786+1068701768+1065036883+1061463806+1058255122+1057156756
1027+1059503642+1064808541+1070491245+1073173905+1071886809+1068820744
1018+1066056232+1063788916+1061445002+1058596840+1055678303+1054921724
1010+1058490101+1064768237+1068841276+1067791302+1063514808+1059529359
1001+1057625400+1057560416+1058584604+1060846044+1064510306+1067937931
993+1068610030+1065679187+1060486075+1055066832+1051220407+1050240394
984+1051614804+1052795783+1051462368+1047516739+1042508969+1038091930
975+1035312555+1034319822+1034118095+1033354327+1032089077+1031279059
967+1030537344+1028895187+1027245080+1027224202+1028194536+1027650330
958+1024518314+1020136947+1015946246+1011780777+1007147563+1002731147+999708704
948+998529661+998603908+998601074+997181590+994362741+991807422+990686864
938+990090533+988616435+986362254+984550517+984192207+985419988+987255161
928+987921592+986186314+982376736+978117871+975571124+975846753+977606365
918+978577390+978652744+979270782+980546403+981593819+982418630+983258789
908+982949217+980124768+975844817+972892405+972277823+972057915+970118560
898+966854432+964233714+963391205+964119301+965848703+968085324+970309986
888+972085706+972957458+972375161+970396677+968145676+966850423+966607424
878+966480291+965778949+964816703+964164444+963763065+963447548+963659782
868+965260668+968142012+970377597+969926166+966773479+962728162+959458849
858+957516868+956959665+957520462+958254988+958595739+959191171+960349751
848+960562470+958545203+956105749+956263577+958911671+960678818+959454079
838+956938373+955672915+955479000+954565285+953024337+952589290+953892287
828+956295239+958968359+960407061+958987509+955336727+951932538+950519207
818+951790196+956192371+963019138+969727412+973636125+973877395+971467529
808+968332194+966013997+964493028+962645411+960181553+958317967+958050150
798+959016613+960725137+963353528+966871231+970376698+973179717+975348935
788+976187503+974798853+972341009+970729478+969960525+969156245+968541456
778+968238935+967255328+965404877+964186290+964752618+966380396+967110220
768+965702489+963150281+961685931+962227095+963897388+965973555+968552724
758+971253566+972998730+973447395+973300075+973005021+972516189+972214360
748+973010275+974966014+976781899+977085595+975431547+972309209+969381546
738+969231391+972611661+976899907+978996606+978659173+977399522+975838180
728+973957173+972047199+970315793+969022890+968975673+970892076+974214136
718+976811833+976167732+971936381+967311947+965545629+965939404+966052227
708+966834177+971674994+980014364+985141318+981512589+972396246+965213381
698+962941710+964002261+966939257+971254119+975433275+977513244+976610521
688+972630050+966262526+959631402+954578904+950094047+944202979+937818726
678+934773331+937799300+944740756+950656019+952499281+949481608+940854027
668+927814938+917530544+915353030+918591924+923302497+927879161+931353795
658+931628179+927545116+921447552+917807417+919208926+923158357+924185794
648+920529551+915866541+913648447+913741775+915168932+918207413+922225907
638+924337469+921918893+915517564+908621389+904278667+901148516+895208158
628+886836157+880356018+877222964+875336841+874186764+876737521+884291692
618+892091558+893206930+887500722+881616775+878395924+875245310+872225633
608+873116604+879104041+886647358+891396023+891479603+888056472+884494801
##END=
