##TITLE=<SNM>
##JCAMP-DX=4.24
##DATA TYPE=INFRARED SPECTRUM
##DATE=2/5/2025
##SAMPLING PROCEDURE=Instrument type and / or accessory
##ORIGIN=Admin
##XUNITS=1/CM
##YUNITS=ABSORBANCE
##RESOLUTION=4
##FIRSTX=4497.3318
##LASTX=599.83466
##DELTAX=-1.4281778
##MAXY=1.845955
##MINY=0.35387579
##XFACTOR=1
##YFACTOR=1.7191796e-09
##NPOINTS=2730
##FIRSTY=0.37724575
##XYDATA=(X++(Y..Y))
4497+219433594+218760070+217994582+217263505+216952754+217216682+217626157
4487+217740777+217691823+217784271+217823674+217302075+216257716+215422264
4477+215304020+215603191+215747455+215634377+215611824+216063805+217032114
4467+217948973+218028386+217213336+216341567+216187179+216689519+217107609
4457+216678459+215251980+213475139+212234806+211887027+212145755+212627188
4447+213166590+213597144+213672258+213390561+213066791+212999860+213263754
4437+213624205+213581525+213021130+212779010+213736225+215433687+216448126
4427+216119815+215096292+214272957+213966297+214002892+214068974+213989769
4417+213980963+214576895+215971495+217412778+217728417+216617300+214969798
4407+213793916+213326265+213332366+213745846+214587539+215536988+216110644
4397+216211015+216021247+215446741+214302548+213073344+212741496+213616456
4387+214845729+215350652+214888305+213919059+212842318+211723400+210538088
4377+209520547+209201250+209889544+211200709+212380924+212944127+212775161
4367+212045783+211282150+211000505+211135407+211178763+210741707+209744431
4357+208466636+207587654+207657030+208460985+209308208+209827310+210112388
4347+210211042+209882766+209032318+208195028+208178958+209071080+209975838
4337+210050952+209492325+209124056+209282482+209456840+208982029+207890570
4327+206920908+206653738+206816706+206704183+206189640+205839920+206030555
4317+206562763+207180537+207801328+208250275+208376527+208367045+208587601
4307+209235244+210176597+210879436+210739835+209863749+209129967+209122513
4297+209440666+209293542+208452404+207478460+207159770+207771286+208863369
4287+209674622+209697522+209056154+208412342+208220753+208177953+207879025
4277+207681629+208117349+208833986+209039859+208730426+208557940+208657791
4267+208521380+208053642+207929661+208568411+209412150+209730043+209585744
4257+209469061+209519229+209599630+209667792+209787682+210074372+210508549
4247+210641579+209973914+208810427+208129639+208442627+209272584+209751764
4237+209382992+208347994+207323362+206955457+207397349+208266518+209008864
4227+209383252+209580994+209744205+209635635+209109252+208543240+208362434
4217+208448260+208440685+208342464+208515972+209177015+210003003+210290992
4207+209711147+208876440+208713784+209278339+209702653+209399200+208808867
4197+208716020+209232557+209816354+210045855+209942139+209667584+209377947
4187+209277732+209409428+209506384+209376768+209255266+209505136+210106390
4177+210679318+210988942+211206204+211597928+212137607+212557448+212624120
4167+212264882+211653036+211208926+211168153+211100199+210321970+208980278
4157+208214651+208895803+210522989+211685245+211473825+210180186+208757780
4147+207906379+207606758+207450880+207354617+207586285+208088988+208452005
4137+208637942+208962475+209368136+209491337+209379507+209470604+209932154
4127+210482460+210773084+210668501+210259581+209815748+209649417+209804272
4117+209933575+209754069+209535160+209775183+210416586+210839738+210653523
4107+210091221+209611695+209435535+209543949+209925826+210616721+211485162
4097+212058784+211703430+210254779+208480903+207534903+207783022+208492899
4087+208855464+208897693+209104571+209618647+210140124+210258783+209746962
4077+208835789+208152799+208102111+208448642+208708861+208716679+208602509
4067+208463689+208304898+208169389+208143750+208231397+208288031+208181454
4057+208072780+208346243+209057367+209699758+209833031+209630625+209437112
4047+209253307+209102578+209354666+210222016+211356414+212174687+212292150
4037+211713155+210861494+210227753+209893652+209694436+209701734+210041539
4027+210423104+210410449+210080699+209883390+209942884+210052945+210211441
4017+210627417+211243458+211680755+211627623+211075913+210299348+209674241
4007+209404002+209473568+209873717+210617674+211504422+212130673+212225774
3997+211866554+211374702+211048385+211027669+211403271+212159137+212906493
3987+213146759+212942238+212810369+212931421+213021044+212978919+213100318
3977+213520765+213879032+213779337+213386920+213251428+213541706+213761933
3967+213463282+213035467+213326213+214490531+215735788+216330351+216267961
3957+215781778+214992767+214309586+214494969+215928746+217940583+219148084
3947+218973171+218521173+218995256+219815783+219486380+217933978+216530416
3937+216420702+218037539+221201351+224670662+226406731+225582320+223796864
3927+223193357+224089465+224982783+224767445+224295875+224912072+226297744
3917+226632054+224799567+221736593+219140872+217828701+217888230+219852499
3907+224788108+232671447+240904921+245739154+245926357+242799468+237584762
3897+231686253+227736288+227900349+231445969+234315638+233386610+231245800
3887+231964396+235094388+237282766+238298886+239883601+240051457+236283617
3878+231871392+231581756+235536088+240774734+245255415+247673277+246792354
3868+244363433+243623809+244475869+243903114+240720631+237344774+236726479
3858+240576454+249663549+261995099+268262225+260702154+247391095+237294641
3848+232655654+233035590+237120873+243209879+250041057+256762591+261417109
3838+261351253+257060357+252053518+248321978+245673679+243880283+243240996
3828+243436242+244023056+246399608+252431443+259845431+262609684+260267525
3818+257977095+256310506+251884812+245223657+240470432+240373528+244978884
3808+251349258+255755173+258878196+263658984+268418259+268526362+264897376
3798+261532354+258616192+255082428+252113689+251334610+252805294+255941613
3788+260493108+265954425+271308141+276485004+282811208+290566613+297616960
3778+302646838+307842336+315952263+327655672+341868803+356001533+367019163
3768+374339020+379205011+381908713+383184861+385108583+388060039+389744223
3758+389177120+389349466+394291905+405797070+421004547+431664864+434103475
3748+436231822+444918664+456972280+462768165+462438588+465133553+475430142
3738+492241750+510913391+525004412+530972263+531624725+532596745+537383721
3728+546371919+557732542+568913816+578480732+585184704+586582476+582309211
3718+576481359+574173662+577399882+583884148+588108736+586321131+580314588
3708+573009084+566610661+563943606+566115602+570323306+572689353+572610027
3698+571761608+571696913+574105431+580776571+591746910+602830482+606676678
3688+601380843+593357211+587958059+586162895+587559627+591575985+597680679
3678+605066584+610274009+608965201+604074456+601375019+599588592+593148911
3668+582564107+573609020+569186845+568671366+569787995+570911802+572475506
3658+574559024+575168391+574417361+576845051+585847880+598674472+605353239
3648+598495989+584381322+572596540+566478983+564536158+564178983+564235392
3638+564817265+566177662+568772673+573582740+581407017+590878555+596195538
3628+592240824+583633620+577948576+578117108+583398693+590463342+594068232
3618+591969910+588188270+586657156+586953796+587516289+588825651+591380929
3608+593459974+593657110+593160491+593769928+595815550+598392601+600916468
3598+603711665+606498402+607872390+607983266+609768584+615358423+622541853
3588+625626132+621785275+615408071+612260484+613396564+615426239+614832959
3578+612044834+609914338+609504395+610069800+611859764+615854071+620728383
3568+622839880+621096513+618670556+617285543+615112333+610959235+606600472
3558+604215426+603999429+605057847+606818688+609207339+612327190+615686336
3548+617456953+615592656+610638395+605887787+603832041+604083748+604667528
3538+603956507+601649261+598999125+597788851+598555136+600214462+601543517
3528+602238866+602255300+601265460+599199867+596486284+593635129+590948104
3518+588424653+585945165+583684169+582092035+581360490+581250689+581578740
3508+582571111+584433189+586579633+587627373+586699593+584731215+583546666
3498+583517890+582933347+580268337+576585266+574635923+575711953+577927461
3488+577981443+575014870+571505844+569905181+570195858+570912738+570872728
3478+569500404+566905082+563868857+561227665+559685075+559976376+561909181
3468+563584594+563174374+561025086+558849865+557816306+557956790+558393984
3458+558041872+556768532+555589877+555309428+555456604+555199800+554718090
3448+554591300+554370033+552950974+550054817+546571239+543728647+542458220
3438+542830545+543684581+543722580+542886919+541947941+541378896+541083781
3428+540662154+539844349+538955261+538600652+538586784+537862832+535986504
3418+533814369+532400822+531799013+531385673+531120410+531662724+533015320
3408+533871471+533034216+530954061+528978750+527731170+527067960+526857753
3398+526839239+526365156+525069558+523326191+521710273+520493516+519688573
3388+519224683+519166263+519638197+520224161+520097961+519201315+518291980
3378+517622148+516792312+515731397+514602217+513319620+512220326+512342747
3368+514057684+516203782+517469321+517989377+518627035+519308308+519245381
3358+518499725+518007960+517983205+517579885+516450392+515416278+515115512
3348+515001586+514293720+513186729+512452826+512410008+512836488+513319863
3338+513189502+511806604+509483375+507519436+506905215+507457514+508314913
3328+508737130+508427904+507634645+507040845+507315296+508594842+510217070
3318+510978606+510025551+507748954+505564857+504520966+504275708+503714325
3308+502618046+502158941+503217602+504799924+505009645+503423059+501474235
3298+500572077+500823576+501567915+502291867+502707877+502555397+501865421
3288+501280982+501685898+503241871+505095836+506323792+506818470+506892595
3278+506401939+505049274+503483420+503026706+503952233+504902826+504430303
3268+502507275+500220935+498603075+498060033+498421749+499192888+499855474
3258+500012080+499448652+498411521+497518447+496984210+496397310+495591362
3248+495136798+495493244+496247291+496686322+496645411+496357647+495872816
3238+495112494+494268929+493679983+493428587+493317885+492987372+491953674
3228+489984048+487649344+486043445+485686826+485995912+485983778+485310999
3218+484461643+483970988+483750380+483323830+482556192+481701567+480792163
3208+479622799+478285423+477148477+476393529+475891779+475390722+474764817
3198+474248367+474173306+474272636+473762739+472467799+471282592+471074569
3188+471608043+471970799+471641742+470636821+469021700+466943452+464844888
3178+463065984+461533726+460151521+459056838+458345782+457888202+457394461
3168+456556755+455332578+454109267+453266950+452686810+452051024+451325026
3158+450593238+449739098+448657000+447551049+446632838+445736123+444654580
3148+443627504+442995497+442618665+442157132+441607260+441063836+440324212
3138+439281743+438401184+438149061+438155301+437610733+436405486+435152428
3128+434235154+433590908+433220455+433209707+433344818+433191852+432528330
3118+431533151+430638654+430071343+429564323+428846229+428136630+427656341
3108+427040629+425843253+424304268+423063588+422346743+421912357+421633191
3098+421595990+421693968+421697990+421667549+421660338+421261316+420162334
3088+418877726+418094071+417754856+417436339+417087902+416854743+416555399
3078+415832937+414674010+413493794+412758470+412605192+412811273+413072064
3068+413176006+412884913+411980952+410691178+409649679+409100777+408630439
3058+407994341+407549485+407519599+407535859+407167625+406416491+405590191
3048+405012097+404794610+404697151+404316505+403503831+402503694+401675175
3038+401179804+400931218+400707489+400258716+399494511+398610797+397770698
3028+396758461+395337356+393809640+392698558+392037081+391469700+390857698
3018+390369504+390089367+389781425+389055808+387808748+386486558+385712853
3008+385618550+385696974+385411290+384812879+384316121+384003221+383542833
2998+382792704+382062892+381622405+381306072+380849151+380349273+380066709
2988+379856606+379214961+378016475+376808628+376114075+375775727+375321891
2978+374732321+374385062+374292180+373887196+372805930+371496671+370652031
2968+370286293+369809506+368898541+367888627+367287095+367166477+367062015
2958+366413263+365201081+364090311+363732894+364046210+364393920+364293688
2948+363742498+363022359+362366360+361776721+361156120+360572271+360214507
2938+360082759+359884583+359271403+358207646+357154740+356676427+356751523
2928+356761058+356236460+355317036+354437517+353822048+353306534+352596588
2918+351724385+351075597+350857139+350800730+350567815+350224959+350044673
2908+349911261+349344608+348321554+347553466+347520321+347757293+347557592
2898+346882767+346112495+345357616+344528300+343810623+343576320+343801331
2888+343967194+343707895+343191479+342659566+342040318+341276702+340598133
2878+340182782+339867073+339399716+338791562+338291234+338105192+338198317
2868+338334745+338268802+337888745+337244153+336508586+335885108+335465596
2858+335165247+334833867+334432418+334058082+333782556+333501795+333019877
2848+332317281+331618014+331116506+330799030+330593226+330442202+330191119
2838+329731840+329259144+329028412+328956263+328795809+328515290+328190082
2828+327750461+327097687+326297459+325516197+324873407+324399186+324043710
2818+323687645+323219387+322678216+322233395+321920564+321556282+321058173
2808+320616506+320364626+320117149+319627706+318933882+318296571+317882225
2798+317598656+317252299+316814585+316434632+316188195+315964640+315647267
2788+315236839+314727635+314062691+313333261+312809148+312595682+312443930
2778+312070183+311474407+310801177+310116125+309476560+308999911+308697239
2768+308406250+308017352+307620653+307337257+307133950+306862620+306392316
2758+305704732+304934599+304264212+303719228+303164120+302568170+302133820
2748+302020031+302030849+301774946+301123906+300302737+299515372+298756541
2738+298048468+297530561+297198488+296846168+296372535+295915753+295615264
2728+295404503+295077561+294507649+293821452+293315057+293095073+292883445
2718+292357321+291591730+290902343+290338204+289689469+288963003+288448320
2708+288271363+288230937+288120477+287938995+287770063+287637640+287468102
2698+287104028+286431890+285566967+284806195+284329945+284066797+283897432
2688+283797737+283708374+283502033+283182649+282891990+282673792+282445713
2678+282178456+281905912+281614212+281255027+280815146+280331980+279885512
2668+279553889+279355852+279260630+279228265+279215991+279167054+278976298
2658+278505543+277763094+277012323+276520559+276273636+276091634+275888638
2648+275656451+275347347+274947614+274570140+274347712+274279498+274231203
2638+274040602+273629272+273102317+272711720+272595713+272596840+272477938
2628+272213836+271902843+271549100+271139470+270784063+270601645+270592735
2618+270706142+270891490+271062657+271125480+271024364+270727343+270260211
2608+269775172+269464647+269381316+269413230+269434154+269416281+269382096
2598+269295074+269082995+268771533+268483769+268290620+268177699+268136146
2588+268136892+268051082+267767461+267371855+267072961+266972053+267014351
2578+267129439+267291974+267454699+267558641+267636078+267778764+267959102
2568+267991137+267741216+267328551+267042122+267049004+267235981+267374784
2558+267387508+267399903+267576133+267919976+268218454+268234506+267952705
2548+267544253+267148230+266804837+266490810+266111048+265596089+265066048
2538+264735327+264638908+264598587+264454427+264234669+264093768+264109092
2528+264173631+264126826+263921300+263590129+263145377+262631007+262214060
2518+262100914+262339637+262728396+262960479+262902563+262697210+262542094
2508+262437632+262245922+261929191+261600914+261375175+261270991+261221724
2498+261116552+260908338+260713456+260694647+260823933+260883029+260722626
2488+260427287+260195567+260114438+260101697+260046606+259925381+259764267
2478+259592146+259462600+259419071+259406278+259303255+259069940+258807000
2468+258650741+258621097+258589894+258414635+258075576+257649425+257200408
2458+256767202+256425282+256269681+256310263+256423601+256448529+256334983
2448+256179278+256089083+256033281+255878027+255574523+255243212+255044447
2438+255019692+255092465+255182071+255251915+255249418+255102745+254850501
2428+254680165+254720400+254856915+254863051+254672971+254455414+254424523
2418+254612783+254862965+255044759+255172953+255253475+255179887+254922996
2408+254676906+254638110+254736227+254773064+254763218+254912595+255279963
2398+255705577+256103298+256644815+257684771+259684595+263183462+268739012
2388+276935459+288415210+303723215+323047560+346141098+372437071+401186704
2378+431617885+463084983+494896948+525920959+554738476+580231621+601537969
2368+617930828+629557894+637353325+641659112+642079664+638562490+631107522
2358+618844393+600930891+577500357+549772080+521639268+499549959+488542176
2348+490233294+503262431+522615656+540297734+551209757+556208501+557922779
2338+557859505+556820191+555446757+554198207+553328223+552782476+551975904
2328+550053846+546545964+541431629+534748771+526625288+517384690+507242385
2318+496327310+485163823+474547191+464753288+455223089+445141214+434104169
2308+422175783+409679114+397193402+385429319+374741128+364888528+355481824
2298+346497614+338177896+330604841+323561861+316740321+310019949+303583563
2288+297737648+292617835+288149046+284263256+281000044+278375494+276278715
2278+274535591+273001600+271567961+270142644+268699159+267335988+266193841
2268+265273377+264434318+263607672+262875537+262291514+261758734+261154620
2258+260484874+259841860+259248025+258626073+257954108+257347359+256904462
2248+256577555+256281365+256003291+255720190+255354279+254900634+254469144
2238+254130639+253839442+253564454+253374651+253313943+253293869+253207852
2228+253071545+252953891+252858045+252773882+252754900+252829476+252902024
2218+252841178+252645030+252463062+252442953+252577214+252737062+252842460
2208+252918319+252988145+253035991+253094618+253228134+253394049+253465453
2198+253420364+253380337+253453075+253642844+253895140+254143155+254336720
2188+254463718+254521791+254504455+254444718+254405298+254402368+254405801
2178+254400739+254393614+254387200+254374303+254327844+254217887+254058490
2168+253896579+253765889+253693688+253690949+253685697+253547639+253233907
2158+252844801+252521707+252344784+252296523+252271890+252196325+252162262
2148+252314031+252603339+252880182+253218513+253880804+254962469+256321340
2138+257822950+259464403+261320431+263487123+266016502+268875857+272010303
2128+275411955+279127443+283240913+287806693+292766189+297981276+303300791
2118+308509776+313304553+317410292+320665322+322954609+324125359+324026687
2108+322626800+320035569+316430853+312077256+307364855+302646144+298053148
2098+293575605+289223256+285049460+281125186+277530455+274322490+271516320
2088+269096898+267040232+265342561+263998234+262923417+261992829+261181975
2078+260563299+260148797+259831233+259491255+259118184+258827629+258766540
2068+258984149+259344443+259562104+259453048+259179343+259052137+259114995
2058+259173397+259161609+259179742+259246586+259288624+259312044+259398408
2048+259566178+259758391+259967054+260248578+260565517+260769605+260823431
2038+260859644+260972409+261128946+261258891+261310290+261311052+261383046
2028+261570578+261778149+261973569+262243149+262646314+263237045+264051297
2018+264837726+265119284+264781334+264262890+264003122+264041555+264209862
2008+264395574+264537255+264590716+264618539+264794457+265187047+265583417
1998+265733643+265845057+266520488+267916440+269232962+269502975+268713599
1988+267614461+266776061+266346217+266311582+266551050+266841761+267031911
1978+267120303+267175013+267254461+267371508+267588250+268151106+269222006
1968+270371815+270801121+270328633+269659962+269457452+269698048+270064878
1958+270446668+270838080+271129918+271233738+271256326+271446181+271996002
1948+272968212+274474190+276617497+278822638+279688948+278491241+276329507
1938+274811325+274419827+274638840+274893286+275031777+275229034+275629755
1928+276261969+277351053+279080014+280842796+281793753+282264872+283076818
1918+283660338+282772134+280850978+279644154+280015664+281353976+282471594
1908+282674503+282221083+281816428+281784704+281969601+282231831+282724151
1898+283686410+284966060+285936519+286423898+287245778+288819346+289959829
1888+289419924+287821896+286549007+286006467+285904085+286041969+286298513
1878+286537531+286722809+286997226+287990741+290804868+295705789+300516723
1868+301670138+298451719+293944186+291004170+290074622+290221365+290586981
1858+290833661+290990094+291220479+291613468+292271720+293502485+295687205
1848+299143151+303804656+308061869+308787936+305264938+300873863+298610163
1838+298487707+298940537+299275453+300671110+304473690+309617876+312828737
1828+312784497+311462619+310099240+307987952+305240738+303316427+302877985
1818+303228156+303656648+304440823+306293644+309039331+311248009+311700042
1808+310884698+310332052+311205919+313830885+317487953+320427691+321215750
1798+320528582+320747595+323751231+328967011+332615169+331060722+326170739
1788+322668543+322454142+324210336+326171086+327915943+329370228+330103957
1778+330658406+332941279+338465141+346296248+352260077+352535083+348450424
1768+343505662+339765489+338696392+340923307+344524417+346456287+346687989
1758+347178714+348051853+348967880+351682676+357881189+365748111+370671030
1748+370611813+368001687+365937689+365905341+367857805+370426847+371956228
1738+373244926+377436647+385232183+390997004+388918790+382441250+376601957
1728+372592256+370677826+370928909+372545451+375489384+381638006+392292220
1718+404216481+409513528+405078664+396599740+389702099+386602981+387873096
1708+393031879+399829219+405309985+409782189+416556023+425929790+432471332
1698+432806629+429102340+422241587+414084855+409259013+409751541+414001855
1688+420739076+431105630+444143157+450981200+445631626+436185364+430625064
1678+430897642+435668913+441396290+445364075+449031579+453864356+456442031
1668+453349015+448743503+448416076+452449873+456153296+456300367+455560605
1658+458583656+468190027+484947826+503071293+508133622+501979106+500129613
1648+505488686+510251706+507136397+500401568+497311776+500123268+508740909
1638+522448025+537452958+544984305+541987604+537556935+539048906+546813377
1628+557588591+568729023+580264662+591916032+601428480+608930808+618393331
1618+632093340+645894725+653147634+655338249+658345560+663917786+670099519
1608+674743619+677679231+680036056+682472691+684690696+686398698+688112109
1598+690699284+694457833+698862153+703198865+707255441+711088253+714587259
1588+717773747+720861285+723661682+725767562+727624370+730849411+737253519
1578+747094435+756813311+760900397+760999623+763970045+772011705+781222521
1568+787218212+791571636+798241458+808612623+823239857+844095698+869321743
1558+884404615+882758395+877164534+874510238+874260958+874467524+873664904
1548+872649893+874444225+880704937+889866729+898647701+901032748+889884480
1538+871815654+859766095+855588243+853541649+848605971+842792230+840696265
1528+842686762+846170306+850280967+856197818+862195034+863583029+860243021
1518+855977036+851101407+844558201+838604739+836975091+841723480+852590362
1508+865160324+867958295+855510789+840511958+832259709+830825464+833765791
1498+837315832+836903878+832139056+828272058+829464997+834708687+838557032
1488+836152363+829015946+822470452+819852629+820762865+822708221+824359711
1478+826861319+831712749+838433467+843644567+842498572+834748974+826631663
1468+823390466+825371879+828962207+830240435+830236067+833136315+840340131
1458+847647681+847176857+838406355+829013797+823201373+821093690+821379305
1448+821847563+820632713+817799863+814819943+813301518+814695406+819586429
1438+826073261+829473110+827324585+823473952+821796737+821626782+820333438
1428+817654456+815878361+816194693+817742241+819992073+823382838+826477657
1418+825489412+819958304+814032855+810748181+809858400+809394857+808211834
1408+807145233+807241478+807792946+807636374+807562873+809097662+811976970
1398+814679111+816320824+816169800+813161657+808423600+805406027+805797664
1388+807356931+806518947+803393688+801778810+804406480+810862663+818752398
1378+825692996+830645108+833500424+834155001+833223823+832515715+833172996
1368+834709103+836763047+840083431+844515973+847692198+847719795+845856053
1358+844497389+844432001+844881468+844947758+844518538+844000979+843673551
1348+843553522+843612601+843974768+845091155+847404572+850373468+852403420
1338+852758236+852694374+853458024+854645624+855434999+855953946+856642431
1328+857525902+858836720+861246799+864971440+869397810+873824180+878047173
1318+882107285+885849470+888920574+891197726+893103627+895306307+898143663
1308+901391101+904474062+907037661+909442816+912401519+915894215+918883081
1298+920430906+920640038+920201111+919594309+919086596+918833086+918476813
1288+917240189+914886970+912120758+909843606+908452976+907836398+907668108
1278+907695636+907868086+908123677+908157446+907709712+907023030+906652057
1268+906848291+907511744+908669250+910508515+912952570+915434555+917046659
1258+917078972+915909192+915283392+916755358+919932415+923143588+925384890
1248+926660068+927056212+926599533+925689296+924974254+924822606+925025012
1238+925004279+924314546+922896665+921052477+919447792+918863527+919570387
1228+921001720+922063119+921796781+920067976+917638275+915323193+913564503
1218+912936275+914020696+916405603+918635049+919620659+919644165+919717528
1208+920343051+921453128+923313750+926398375+930296507+933929411+936982001
1198+939890778+942457289+943677964+943034690+941225034+939654187+939526461
1188+941192513+944137763+947615066+951107069+954152031+956343617+957947747
1178+960050506+963266047+966574713+968228422+967634310+965822920+964416411
1168+964752714+967326090+971177902+974210106+975048991+974415702+973851545
1158+973875329+974413899+975921645+978610751+981477577+983421962+984609909
1148+986008651+988381355+991465287+993418271+992600465+990315478+989716512
1138+992036447+995457029+997533439+997763304+997452449+997728495+998592967
1128+999851710+1001680158+1003689030+1005270070+1007234148+1011157451
1120+1016688766+1020676695+1019858750+1014867322+1010342904+1009979073
1111+1013087344+1016766567+1019395970+1020773564+1020726551+1019521546
1103+1018326249+1018769268+1022610471+1029654456+1036113066+1037615543
1094+1034452840+1030924225+1029583104+1029898536+1031369185+1034476069
1085+1038549078+1041331794+1041870364+1041621569+1041845262+1041970353
1077+1040790797+1038022365+1035024832+1034336486+1037505499+1043154763
1068+1048116167+1050436310+1050433814+1049979285+1051496739+1055658089
1060+1059804461+1061109038+1060521861+1060782582+1062027319+1062545849
1051+1062389694+1062674268+1063485278+1064615395+1065497895+1063820957
1043+1058246650+1051881095+1049193793+1051172571+1055955630+1062325553
1034+1069384724+1073741823+1071714437+1064927706+1059107655+1057178732
1025+1057008570+1055856611+1053874366+1052514038+1052337774+1053187823
1017+1055011347+1057315473+1059320739+1060735292+1061138855+1059817427
1008+1057442158+1056304692+1056986589+1056805956+1053492992+1048418216
1000+1044418292+1042760561+1043297259+1045318682+1047846639+1050068457
991+1051112314+1050201592+1047974296+1046693849+1047229298+1046875868
983+1042944661+1037259409+1034023273+1034121599+1034302231+1031950746
974+1028471710+1026947461+1028337328+1030941837+1032599429+1032697200
965+1031896383+1030466853+1027922531+1024259950+1020558954+1017745451
957+1015271302+1011793791+1007304252+1003916399+1003622255+1005206554
948+1004630609+999793950+993330832+989037111+987541985+986594997+984353417
938+980862108+977320457+975462886+976472419+979381890+981444363+980914391
928+978377211+975338212+973182892+972846311+973885244+974725932+974766497
918+974743684+974711926+973873942+972249079+970526029+968958303+967548327
908+966488661+966051190+966433743+967448546+968014991+966638507+963017461
898+959192830+958245288+961014760+964803749+966323630+965459574+964168033
888+962801880+960379182+957496269+956159239+956832469+957635644+957003949
878+955755260+955558887+956414067+956771588+955854348+954474813+953428044
868+952484246+951120243+949131341+947045015+946325396+947774064+950093375
858+951096182+950067095+948632365+948852799+951170030+954388969+956627359
848+956952359+956417465+956609747+957304888+956791697+954552544+952077909
838+950935381+951120451+951519993+951359538+951104087+951829392+953617483
828+955401691+956366707+956717641+956722772+956388688+956293830+957024821
818+957981793+958583949+959897679+963025158+966590176+967788038+965877630
808+963089714+962244449+963666629+964594687+963143037+961668227+963170288
798+966424313+967919093+966890769+964787593+961750743+957182294+952492983
788+950638741+953018101+958042397+963190674+967278592+969812443+970318284
778+969899119+970663810+972420489+972945538+971523774+969171110+966598636
768+964613201+964602314+966593366+968056873+966355388+962205203+959038131
758+958737816+959889983+960996384+963132844+967506723+972203037+973643800
748+970999488+967297036+965931647+967336075+969195795+969144553+966809917
738+963967568+963029249+964623740+966963992+968498712+970618183+975272407
728+980969031+983387569+980039241+973742402+969702122+969673138+970386238
718+968703822+966424105+966640171+968374939+968633303+967553667+967374559
708+968726289+970464871+971189968+969900575+966870660+964191123+963198440
698+962335841+959761702+956298060+954002810+953572758+953847001+952706345
688+949177037+945213239+943444841+943296035+941824832+937674993+932498286
678+929108561+928814694+930120382+930866073+930469651+928411339+923727090
668+918872957+919476083+923897322+925806552+922775943+916089548+908916242
658+904945996+906917909+913386782+917485586+913616855+904689781+899026857
648+901233420+908693866+914435354+912678535+904355073+895883846+891725409
638+890774816+889992999+889155986+890191937+893394165+897167414+900012467
628+901075739+899853330+895270180+886871622+876486035+867179598+862232062
618+862825134+865599390+865568811+862302859+859397410+859489772+862722995
608+867039460+869300178+868388971+866152660+865628791+867542597+869854142
##END=
