##TITLE=<SNM>
##JCAMP-DX=4.24
##DATA TYPE=INFRARED SPECTRUM
##DATE=2/5/2025
##SAMPLING PROCEDURE=Instrument type and / or accessory
##ORIGIN=Admin
##XUNITS=1/CM
##YUNITS=ABSORBANCE
##RESOLUTION=4
##FIRSTX=4497.3318
##LASTX=599.83466
##DELTAX=-1.4281778
##MAXY=1.8424196
##MINY=0.3471742
##XFACTOR=1
##YFACTOR=1.715887e-09
##NPOINTS=2730
##FIRSTY=0.36883295
##XYDATA=(X++(Y..Y))
4497+214951770+215437462+216350262+217430771+218023557+217274646+214967141
4487+212158956+210445418+210657244+212393291+214479973+215841591+216225834
4477+216183281+216271478+216499127+216677779+216803144+216775806+216314100
4467+215425304+214532964+213987925+213879111+214298073+215211620+216105627
4457+216262568+215474596+214255468+213274098+212757855+212502973+212293561
4447+212223653+212563572+213235384+213599722+213070557+211863171+210824797
4437+210578512+211074295+211854851+212556294+213183973+213842151+214233150
4427+213863948+212813677+211696937+210915999+210433347+210093168+209808846
4417+209580538+209579982+210026386+210792509+211327962+211165480+210486859
4407+210024041+210229997+210772779+211082649+211064221+211024621+211103908
4397+211022277+210479964+209677402+209242287+209641414+210775575+212120658
4387+213121030+213450944+213100934+212327656+211481829+210830425+210478262
4377+210415058+210562064+210675289+210377160+209609717+208875864+208644968
4367+208736535+208682223+208483928+208507253+208669093+208342878+207349385
4357+206439972+206361171+206959532+207582973+207911446+208023941+207922857
4347+207345512+206202180+205036617+204542120+204622258+204615137+204391414
4337+204260195+204032599+203404242+202961312+203567488+205007751+206247738
4327+206784180+206910623+206851830+206397888+205546833+204995228+205453565
4317+206601012+207246511+206634169+205279880+204362565+204474574+205159048
4307+205623220+205586451+205274826+205062375+205426574+206651503+208121083
4297+208494661+207215213+205406045+204621911+205067898+205682637+205730765
4287+205506365+205522622+205830443+206169875+206154243+205464264+204408539
4277+203894068+204312596+204970913+205107654+204940170+205205752+206059811
4267+206851552+206903467+206213418+205272898+204533297+204346707+204995558
4257+206272748+207400413+207838672+207727340+207280119+206506354+205718885
4247+205460981+205796800+206348562+206864058+207250159+207436835+207561662
4237+207827018+208079121+208031132+207762720+207512040+207226798+206700273
4227+205964423+205348955+205197067+205493269+205852536+206053020+206296422
4217+206708002+207066852+207320136+207853366+208877306+209831859+209723775
4207+208186215+206094895+204805877+204794171+205395849+205816305+205864728
4197+205688195+205396214+205186577+205394443+206074574+206785830+207132227
4187+207285295+207554888+207710927+207225166+206069815+204846884+204201715
4177+204386012+205236025+206331280+207248075+207836466+208271633+208773095
4167+209335208+209793388+210003095+209821039+209128680+208089750+207164497
4157+206679032+206585641+206733186+207086305+207560168+207906583+207961849
4147+207910560+208130010+208734364+209368191+209520373+208984539+207959209
4137+206802539+205800413+205133968+204964347+205433139+206473424+207633620
4127+208273717+208114118+207526474+207062284+206797068+206485199+206237560
4117+206462030+207154476+207872315+208333256+208494887+208263887+207643502
4107+206966428+206573327+206444835+206349187+206103788+205667353+205251031
4097+205212404+205604045+206072855+206337672+206410567+206320685+206058213
4087+205808889+205867646+206274937+206757033+207024334+207017022+206909268
4077+206887019+206871040+206567995+205896947+205203928+204805964+204470840
4067+203762119+202828321+202329291+202575697+203234535+203877811+204382000
4057+204734232+204776021+204346238+203626628+203129803+203178053+203634479
4047+204354124+205408268+206527839+206956493+206323603+205147880+204171321
4037+203662303+203598925+204147422+205492887+207197637+208265276+208210617
4027+207604302+207181779+206977126+206736869+206602923+206893827+207587715
4017+208339023+208731793+208445648+207526196+206540588+206137292+206383889
4007+206813585+207141033+207564684+208250860+208883507+208997183+208625845
3997+208339283+208550657+209015976+209208557+208945199+208417024+207950820
3987+207921085+208433924+208970783+208903272+208395088+208206605+208678489
3977+209411803+209850895+209806658+209496214+209279125+209349172+209663594
3967+210123928+210651390+211100122+211356828+211534316+211794913+212027893
3957+212002900+211768096+211654350+212027824+213110174+214632746+215671016
3947+215562689+214930563+214858588+215346191+215478156+214873247+214042323
3937+213622093+214125361+215897101+218400053+219881166+219060419+217086476
3927+216227345+217082169+218203859+218348868+218189651+219006699+220570521
3917+221052044+219137292+215803224+213202523+212444823+213193804+215043875
3907+218510204+224112836+230732531+235667312+237003572+234824611+230117462
3897+224706577+221321238+221789492+225120746+227570029+226667390+225152964
3887+226690751+230484944+233040540+233801087+234284521+233192027+229176195
3878+225420143+225510946+229034642+233592041+237982771+241183970+241459295
3868+239643196+238507802+238219156+236432392+232474206+228724667+227887768
3858+231547303+240291144+251885793+257557777+250595021+238620993+229809988
3848+226094925+226839876+230595095+235743055+241264647+246611146+250415448
3838+250687924+247691691+244101959+241460424+239394515+237613656+236593745
3828+236374746+236859743+239444883+245532304+252451588+254524028+251908129
3818+249352585+247037664+242525927+237172167+234233093+234940198+238702225
3808+243447689+246894652+249864347+254510671+258995747+259101052+255847140
3798+253080222+250975077+248266674+245968774+245836374+247970524+251547386
3788+256164774+261487584+266747241+271917312+278232902+286064743+293570750
3778+299288345+304711509+312385522+323583249+337742368+351966272+362621374
3768+369213679+373197484+374502897+373779744+373965864+376486966+379224410
3758+380354680+382133767+388393223+400560110+415238547+424836187+427319078
3748+429732496+436874304+446216871+451668936+453779899+458638380+469521807
3738+486124183+504847874+519206106+525206112+526221924+528471070+535039997
3728+545615794+557712895+567717860+573713593+576625729+577798205+577685796
3718+576510402+575104738+575168237+577627994+580247123+579263200+574330486
3708+567903008+562783375+561442704+563999168+567066369+567251934+565131210
3698+563351255+563712241+566971086+573292339+581989875+590244134+592438049
3688+586145593+577169188+571543126+570576675+573178019+578063525+584701440
3678+592579845+598362085+597567234+593005372+590464088+589093369+584449597
3668+576776348+569825801+565247613+562876331+562287436+563322736+565970176
3658+568825447+569122413+567405020+568441465+574945955+584035811+588635119
3648+584334757+574224261+563821141+556755580+554103068+554720483+556667522
3638+558855949+561156610+563498053+566057852+569927337+575445229+578858619
3628+575507339+568598893+564641384+566164703+571751999+577423324+579278623
3618+577725014+576906542+578802067+581512972+583074570+584039701+584973569
3608+584640859+583059356+582867816+585656219+589798737+592967092+595232287
3598+597953439+601072260+603356004+604293901+604657319+605751255+607911892
3588+609065713+606871312+602957433+600884055+601292422+601831956+600344729
3578+596944470+593261175+590649097+589817564+591695095+597413419+606411604
3568+614507879+616437446+612244698+606757583+603444861+602441520+602147923
3558+601326534+599997221+598675273+597620937+597258631+598382579+601047041
3548+603725744+604649608+603829816+602526764+600970967+598301503+594400268
3538+590431366+587773504+586954755+587466569+588257946+588431908+587780035
3528+586849433+586326503+586163031+585341086+582962648+579744619+577716260
3518+577901825+578825827+578367022+576645911+575359255+574807147+573623798
3508+571622986+570463676+570864262+571233446+569824725+567263189+565695650
3498+565936377+566424257+565056803+561685098+558171909+556258391+556239112
3488+557503188+559403333+561029126+561023846+559025882+556664952+555655184
3478+555600751+555005881+553590108+552261316+551458129+550843494+550185959
3468+549404100+547979851+545432245+542427257+540466357+540160360+540501511
3458+540226950+539232050+538283176+537866680+537758579+537555715+536997458
3448+535794622+533877700+531865251+530298858+528861930+527513721+527187020
3438+528211655+529388091+529687176+529423105+528947036+527872866+525976021
3428+523734273+521932677+521098366+521170549+521717135+522328505+522465924
3418+521555434+519802817+518138745+516976516+515782956+514215695+512963984
3408+512758411+513118807+512952764+512134848+511633212+511933062+512206372
3398+511435490+509758078+508134648+507022406+506123553+505360348+505202261
3388+505816444+506714950+507369393+507406909+506396169+504348983+502192653
3378+501049912+501163016+501857546+502580421+503663449+505653980+508074310
3368+509523708+509125588+507381134+505395711+503555869+501490863+499495400
3358+498946348+500382928+502065030+501799987+499783230+498196690+498412268
3348+499748702+500805121+501141861+501165795+500959874+500123791+498623677
3338+497171777+496723775+497522342+498577303+498599604+497452035+495942125
3328+494539830+493338522+492680779+492715516+492946238+492860369+492312637
3318+491159510+489438989+487867317+487248340+487468815+487724201+487516196
3308+486934353+486356295+486223357+486600600+486930150+486863837+486965963
3298+487765191+488789722+489325817+489395082+489500786+490099200+491318292
3288+492678868+493468786+493513319+493044162+492221070+491376025+491049880
3278+491385369+492044120+492523768+492144371+490587566+488789409+488182972
3268+488859056+489411582+488819317+487620581+486822847+486465682+485812246
3258+484551365+483279646+482761301+483011998+483360131+483390665+483410256
3248+483736992+484067097+483943434+483336024+482406707+481198973+479792544
3238+478446766+477414003+476629330+475730825+474590342+473678289+473471048
3228+473648971+473457015+472679984+471743268+471040436+470510003+469823080
3218+468895639+468115517+467879341+467999669+467775130+466647013+464830376
3208+463251027+462666960+462931030+463354161+463505093+463233832+462349361
3198+460916289+459498466+458480500+457494493+456068715+454567351+453830233
3188+453948095+454040148+453370802+452161228+451048083+450183793+449278688
3178+448165995+446835223+445263203+443709212+442751237+442525794+442384380
3168+441737995+440722600+439729159+438850071+438033059+437313657+436728861
3158+436259565+435854949+435387008+434687267+433694764+432470078+431096928
3148+429665488+428316549+427213895+426421372+425845746+425336259+424738228
3138+423826940+422478661+421000292+419951688+419550998+419505075+419371338
3128+418893393+418140887+417411515+416870071+416416962+416022698+415815909
3118+415666749+415177931+414273694+413327772+412634875+412146543+411644039
3108+410893096+409848834+408902010+408565583+408781299+408951163+408720822
3098+408248504+407651967+406779583+405700377+404892639+404680361+404796209
3088+404729271+404361303+404029148+403941819+403806241+403239543+402291468
3078+401255717+400267938+399379575+398644021+397943551+397121501+396325296
3068+395844086+395693258+395674674+395658243+395585261+395358672+394847830
3058+393992329+392950360+392035042+391334051+390602769+389674216+388677301
3048+387794462+387125012+386751555+386657106+386684999+386748464+386855106
3038+386824503+386319567+385292986+384095639+383045577+382160271+381347913
3028+380575781+379824039+379082093+378350846+377579999+376773859+376120839
3018+375729424+375370869+374823901+374217811+373732849+373315415+372907743
3008+372579270+372313220+372003541+371615807+371057411+370111628+368822089
2998+367689804+367147804+366994406+366646446+365908807+365184681+364829461
2988+364599260+363984833+362907189+361785812+360996658+360510237+360098396
2978+359719729+359484942+359239630+358519568+357169725+355708308+354774163
2968+354441800+354287429+353929569+353340222+352781374+352540960+352639821
2958+352813298+352812464+352557773+351980063+351023269+349896056+348987060
2948+348394239+347785579+346859180+345791992+345061057+344860903+344890603
2938+344751829+344354022+343835851+343313408+342810834+342314304+341874222
2928+341622726+341583370+341536857+341190877+340405336+339269890+338159316
2918+337576500+337641006+337926787+338060281+338158378+338362353+338294269
2908+337441269+335989543+334796850+334394770+334427771+334272149+333758043
2898+333026691+332170773+331306623+330622722+330169648+329828844+329518887
2888+329277917+329133307+328981784+328681692+328279681+327971079+327762379
2878+327436651+326935883+326452276+326073956+325671181+325165933+324627823
2868+324109548+323618923+323249184+323152684+323326161+323482894+323224381
2858+322427308+321425391+320705259+320457516+320494893+320508787+320314191
2848+319928820+319478872+319001656+318417798+317759116+317256577+317053574
2838+316971144+316736635+316354667+316048531+315867239+315594762+315094203
2828+314496103+313972061+313565049+313282950+313086374+312770303+312149206
2818+311368390+310795821+310610881+310656178+310647043+310384258+309795432
2808+308944169+308060218+307415292+307074662+306879024+306702491+306538880
2798+306319030+305917783+305369843+304797552+304145957+303291428+302375103
2788+301717220+301407402+301231390+300997332+300721903+300476799+300225408
2778+299878004+299391930+298741064+297901091+296971287+296180883+295659656
2768+295336116+295109075+294910971+294590071+293994263+293191076+292405048
2758+291780861+291339146+291029813+290719752+290259921+289635456+288985180
2748+288481634+288205805+288067987+287837594+287351416+286725335+286247233
2738+286018716+285847081+285564548+285232880+284886066+284334739+283454766
2728+282467490+281731345+281397419+281357593+281381892+281245410+280841055
2718+280261817+279746495+279455573+279282131+278971236+278417963+277721801
2708+277005056+276357542+275898477+275712478+275755638+275876401+275870149
2698+275569622+274997175+274368402+273866314+273482436+273117612+272750147
2688+272464974+272362639+272448978+272588985+272560848+272190900+271490673
2678+270671958+269997489+269604527+269451876+269392510+269301239+269163959
2668+269030968+268884934+268619214+268174964+267640657+267169069+266829984
2658+266598167+266457622+266398465+266308444+266044878+265663258+265365423
2648+265164974+264841799+264307284+263780065+263493259+263423716+263402492
2638+263312766+263080967+262658618+262168045+261918287+262076340+262404013
2628+262474199+262085632+261378701+260664370+260229673+260183247+260391651
2618+260601132+260634132+260471581+260218453+260012202+259908790+259863927
2608+259848296+259886211+259934843+259850241+259555516+259145794+258765303
2598+258467242+258244040+258100785+258015871+257886458+257623621+257301454
2588+257106840+257110088+257196427+257272587+257400593+257633018+257849411
2578+257881699+257717150+257477935+257265223+257106197+257009125+256990628
2568+257039572+257096975+257110053+257109167+257202054+257460983+257821987
2558+258131979+258296632+258322771+258212864+257934117+257525159+257106388
2548+256758324+256500246+256353274+256283193+256149108+255857248+255493344
2538+255193322+254979655+254799335+254611461+254372054+254051310+253718722
2528+253480183+253314453+253139205+253020857+253083400+253236347+253254150
2518+253084477+252845070+252611065+252412630+252316426+252335480+252369504
2508+252324451+252196254+252009144+251762789+251469349+251203559+251075797
2498+251129309+251279355+251383497+251356280+251206529+250998664+250792257
2488+250613431+250489455+250468144+250548751+250637816+250639310+250536801
2478+250346200+250075043+249772381+249516057+249298777+249022897+248656266
2468+248317650+248154387+248162637+248167830+248002795+247692368+247425363
2458+247352346+247449418+247548366+247458397+247106964+246612327+246180686
2448+245927836+245840125+245861732+245921549+245898657+245683375+245308668
2438+244947855+244757445+244767953+244902819+245030703+245042253+244948950
2428+244848160+244758574+244608806+244412333+244301210+244345743+244445802
2418+244450162+244347236+244282244+244352621+244460826+244458377+244341956
2408+244200264+244094942+244098555+244301036+244673260+245041315+245278638
2398+245455067+245753092+246334380+247390382+249292490+252592342+257873223
2388+265680400+276570080+291097707+309639567+332149271+358047528+386360834
2378+416026658+446154066+476073887+505218517+532968565+558406418+580151527
2368+596996576+609032574+617388682+622392119+623075256+619063210+611084763
2358+599010415+581719552+558949808+531962549+504500783+482647885+471367832
2348+472491120+485028754+504556397+523386244+535415990+540097660+540271553
2338+538899652+537561169+536640918+536315676+536529274+536378064+534784785
2328+531630672+527198553+521128205+513043810+503621209+493979801+484480258
2318+474890087+465179552+455557944+446081848+436527838+426499842+415663761
2308+404017372+391947193+380042708+368841125+358579037+349097072+340079782
2298+331406179+323191555+315556621+308496722+301960622+295936370+290414657
2288+285332210+280631435+276371194+272691320+269624605+267020169+264724492
2278+262747214+261133128+259775244+258539513+257481704+256695746+255994911
2268+255027279+253744722+252505135+251635843+251101207+250667117+250197804
2258+249694587+249184979+248681572+248203800+247784751+247425345+247040495
2248+246530470+245946646+245489335+245284126+245237787+245158656+244968663
2238+244756646+244618462+244488824+244213187+243772913+243325224+243022214
2228+242897161+242899141+242932314+242897265+242784109+242696208+242728061
2218+242854677+242972505+243015179+243005036+243013182+243095561+243260196
2208+243459986+243596901+243585925+243477128+243449721+243595877+243797038
2198+243925096+244054283+244328322+244707441+245003313+245131075+245194991
2188+245308373+245439018+245502430+245517749+245570897+245684070+245803930
2178+245871337+245872622+245852665+245852787+245830364+245707500+245482474
2168+245222347+244979049+244768248+244590968+244450752+244362000+244324206
2158+244288305+244194620+244040162+243866807+243704343+243593358+243634591
2148+243880911+244206865+244502163+244969357+245950189+247492266+249362433
2138+251398781+253617967+256113051+259004970+262359637+266098772+270083688
2128+274255923+278687122+283558213+288998554+294873420+300858002+306720901
2118+312373920+317681549+322366101+326101120+328650290+329901653+329822071
2108+328504812+326215439+323224833+319654016+315586703+311198804+306666920
2098+302011373+297092623+291822962+286385173+281128052+276270509+271846501
2088+267864120+264376098+261449842+259112620+257277416+255779334+254517254
2078+253478394+252654556+252013816+251488176+250978151+250474171+250138351
2068+250133349+250361189+250468474+250201937+249722238+249411308+249420930
2058+249590481+249715985+249706363+249578826+249444325+249414208+249486947
2048+249595170+249737939+250012534+250472225+250934869+251087034+250877519
2038+250594065+250490011+250587917+250810598+251064507+251277566+251480517
2028+251743701+252073112+252464788+252911140+253359854+253844226+254463724
2018+255039559+255156014+254771355+254362536+254300496+254494918+254718815
2008+254922530+255130413+255264428+255205271+254980158+254791780+254786222
1998+254907020+255164733+255835364+256994206+258059170+258332480+257841491
1988+257120179+256504258+256088874+255954911+256082865+256303601+256472387
1978+256556051+256592907+256643901+256739896+256961918+257557083+258656663
1968+259822782+260293780+259870145+259158542+258800474+258894489+259256049
1958+259798223+260429375+260919218+261148325+261292293+261600166+262148124
1948+262936114+264127000+265880589+267699780+268369803+267303536+265478370
1938+264225305+263860758+263954861+264164863+264413249+264688314+264970569
1928+265359865+266232144+267838050+269633272+270816047+271571558+272469282
1918+272905855+271882662+270015065+268932072+269288091+270425552+271291144
1908+271324057+270789421+270344372+270290894+270432482+270565090+270845712
1898+271593129+272724824+273668574+274266970+275218571+276775827+277791361
1888+277234146+275803436+274749778+274352110+274305215+274460333+274729475
1878+274953094+275087682+275338917+276327113+278983967+283489885+287939946
1868+289201314+286575514+282724492+280193628+279413663+279581824+279945433
1858+280181592+280288113+280434633+280773023+281429707+282607619+284559157
1848+287608104+291811151+295733055+296470485+293361391+289516951+287648156
1838+287721937+288303677+288763177+290115468+293512114+298011901+300812323
1828+300873009+299964291+299057622+297339151+294825622+292929646+292438049
1818+292836307+293444655+294402908+296294473+298940037+300985834+301239032
1808+300145478+299270038+299923440+302498940+306169209+309102986+309976724
1798+309503781+309794737+312437731+316946932+320079856+318677283+314369869
1788+311336258+311291552+313113990+315270285+317320041+319026632+319869419
1778+320349518+322316532+327254768+334352218+339814843+340173050+336614182
1768+332316147+329177944+328516553+330846011+334379000+336342088+336698107
1758+337201827+337947143+338649384+340988048+346573781+353735737+358205199
1748+358192068+356067696+354656022+355151336+357386206+360082660+361691814
1738+362906182+366658013+373704921+378991499+377197997+371393525+366200250
1728+362696093+361022225+361207477+362621652+365332140+371049560+380888205
1718+391791293+396515064+392366884+384698950+378674768+376219318+377707831
1708+382587292+388760531+393596328+397501593+403588267+412242799+418621819
1698+419434004+416309417+410076986+402682918+398449112+399087612+403036297
1688+409105638+418425069+430248374+436665744+432224870+424079373+419457312
1678+420094144+424602025+429655275+433025244+436385729+441158618+444133176
1668+441990498+438313802+438377649+442365379+446046625+446367004+445648957
1658+448246723+456930191+472334630+489401543+495261350+490971861+490099408
1648+495380602+499913389+497366061+491706408+489355100+492119395+499781042
1638+511798630+525175995+532626545+531232448+528297247+530204408+537586249
1628+547880399+558838407+570450719+582444338+592490362+600206199+609223975
1618+622084142+635187120+642084276+643911022+646337327+651375154+657567151
1608+662907676+666773688+669963093+673329032+676691984+679399867+681668327
1598+684623189+688980867+694164868+699032623+703341253+707694137+712125250
1588+715886703+718592988+720635658+722701950+725576153+730144545+737155847
1578+746392952+754946852+758708861+759629806+763828251+773357702+784558833
1568+792504280+797587196+803338520+811930978+825224453+845822132+871505923
1558+887104680+886100435+881255328+878647835+877225011+875701727+873781400
1548+872332800+873245826+877403975+883689762+889824859+890815000+880745459
1538+865617596+856324634+853802872+852193927+846596557+839228715+834948014
1528+834824003+837328119+841778267+848340003+854607449+856063065+852650926
1518+848274906+844191025+840131806+837673126+838997854+844964477+855053749
1508+865794685+867729324+856187771+842334197+834675955+833248961+835560148
1498+838214953+837541195+833445781+830591656+832643705+838320345+842247493
1488+840441312+834745915+829076084+825377990+823630584+823180324+823995738
1478+826487696+830357459+834510120+837365982+836690557+832038102+826999371
1468+825232026+826921699+829140416+829208431+828673344+831360384+838643051
1458+846560778+846690764+837840350+828142008+822019624+819209823+818402745
1448+818186612+817417606+815867366+814013040+812633914+813000805+816202369
1438+821204696+824066254+822278483+818879197+817082464+816075996+813665948
1428+810280279+808408514+809027387+811177811+814254809+818257128+821171626
1418+819437489+813553956+807684180+803996785+801985725+800564012+799498561
1408+799366422+800201289+800733459+800142931+799846417+801619112+805114133
1398+808497649+810415822+810111527+807362585+803898757+802437722+803659976
1388+805367435+804742170+801897771+799843568+800945979+805097529+810533164
1378+815652762+820009954+823598765+826107535+827730861+829586994+832114731
1368+834439952+836240506+838578232+841742696+843887215+843260700+840654875
1358+838115049+836750374+836515136+836971649+837673682+838019662+837504444
1348+836439132+835814562+836245855+837554118+839343069+841413946+843569303
1338+845441137+846645119+847070369+847170272+847814851+849410248+851318209
1328+852754164+854078475+856359927+859817224+863564644+866845477+869775120
1318+872810225+876156989+879895377+884139257+888736134+893096800+896745775
1308+899933583+903221156+906590429+909600871+912310907+915153986+917907999
1298+919686808+919995133+919159223+917752377+916309405+915503787+915650932
1288+916064371+915642804+913989187+911445263+908468308+905542138+903252836
1278+901979380+901690438+902188774+903338219+904846358+905994483+906085841
1268+905360325+904968354+905887493+908106696+910726069+912771866+914100137
1258+915387557+917176370+919384388+921750251+923992519+925509481+925798284
1248+925183579+924611740+924899084+926101190+927179146+926777587+924851911
1238+922687036+921053567+919632479+918247587+917134685+916044988+914480714
1228+912777841+911868428+911932205+911904763+910530570+907943155+905960579
1218+906354079+909050221+912267138+914174265+914219006+913057126+911840569
1208+911676541+913085957+915609317+918139833+919882307+920984510+922114849
1198+923663977+925641898+928113709+931268794+934929164+938225837+940211469
1188+941006806+941719261+942930121+944006687+944296602+944270480+944874277
1178+946445915+948832967+951811381+954821475+957115640+958553958+959442737
1168+959813171+960035835+961541889+965209067+969385627+971352988+970791291
1158+970037292+971040425+973522239+976085964+978039221+979403340+979947668
1148+979589669+979311565+980213405+982022713+983571216+984288464+984785411
1138+986411099+990114542+995127011+999195678+1000746543+1000198186+999127455
1128+999282660+1001929614+1006776527+1011685272+1014364462+1014450957
1120+1013324507+1012193404+1011349366+1011222506+1012793449+1015984175
1111+1018613344+1018590487+1016673425+1015264843+1015432622+1016280481
1103+1016724558+1016939093+1017344821+1017419922+1017040456+1017725954
1094+1020473228+1024520706+1029163227+1034379672+1039271951+1042593913
1085+1044888010+1047189818+1048514615+1047003489+1042717438+1038260065
1077+1037312650+1041924602+1050074858+1056614780+1058009746+1055547592
1068+1053054314+1053416898+1056696481+1059550884+1058940626+1056383918
1060+1055091844+1055415870+1055478257+1054541333+1054071898+1055625820
1051+1058954243+1062647126+1066133741+1069937504+1073333178+1073741823
1043+1069979675+1063940034+1057526138+1051340881+1046881423+1046562816
1034+1051224164+1058513014+1063641783+1062914947+1057868575+1054144845
1025+1055085660+1057980845+1057830156+1054087182+1050155101+1047351066
1017+1044718077+1043650750+1046975769+1053559250+1058507526+1059167875
1008+1057104918+1054482558+1052509709+1052481850+1055205294+1058856632
1000+1060040536+1057743730+1053891335+1050788216+1048895957+1046768736
991+1043233559+1039401312+1038000510+1040167122+1043532922+1044619771
983+1042509572+1038748535+1034505767+1029996010+1025853492+1023315126
974+1023206052+1025049472+1027167729+1028058662+1027595549+1026306532
965+1024119147+1020913623+1017394286+1014355430+1011960388+1009942381
957+1008225751+1007070540+1006016483+1003707172+999551662+994619435+990101203
947+986072970+982463594+979622461+977588614+976202193+975620072+975373231
937+973814724+970428638+967594104+967802665+970386606+972693277+973481597
927+973504176+973437064+972950192+971578430+969587587+967730273+966258747
917+964600267+962246840+959426688+956719917+954627712+953639655+954038574
907+955582769+957817604+960383413+962755598+964200862+964389067+963608320
897+962194457+960124275+957538944+955397204+954588459+954523432+953925609
887+953131176+953599638+955100690+955696915+954325292+951633389+948643651
877+946332464+945919164+947944813+951098093+953085809+953099495+952506536
867+952799090+953898653+954902967+955414225+955051572+952839177+948720489
857+944694479+942870234+943155424+943860028+943659596+942238369+940095101
847+938230561+937346784+937031790+936396243+935950151+937281548+940525352
837+943623192+944422419+942776653+940333535+939044864+939703963+940897941
827+940482973+939027774+939642687+943516897+947778493+948898550+946742846
817+944058098+943616105+946662048+952298740+957317879+958185607+954720043
807+950510344+948803371+949529720+950813736+951685286+952122137+951867029
797+950579192+948691101+947225133+946853379+947733890+949949690+953401707
787+957451199+961045637+963131521+963374054+962375089+960913915+959320810
777+957937933+957687480+958913068+960342909+960401406+958716526+955494329
767+951083711+947208738+946893326+951422466+958154135+963111512+965162728
757+965720881+965531634+964316953+962990558+963355504+965233730+966269099
747+965263187+963989036+964948331+968337961+971721755+972498334+970397305
737+967407081+965887618+966877065+969888479+973750530+976712131+976384771
727+972001318+966486830+963501399+963323755+963972849+964832657+965765622
717+964972439+961791578+958874440+958989350+961745517+964630211+965930831
707+965363646+963137287+959506236+955054212+951009374+948856171+949364095
697+951197718+951520077+949633167+947961765+947824206+946956547+943120896
687+937338170+932126936+929565573+930421283+932809725+933858016+933650150
677+934276387+935454178+934978629+932772626+931113868+931703701+933775133
667+934037258+930045290+922405389+913045732+905484545+904011421+909905097
657+918721677+922484520+917292808+908280103+903004675+902967785+905132243
647+907133298+908539310+908961364+907260435+902866561+895964194+887174431
637+877901617+870182793+865152816+861878235+859979098+861429990+867821099
627+877630252+885449256+885298498+877037987+867568075+864543044+870114778
617+879173058+883005791+877904882+868340902+860414630+856533681+856479769
607+858425732+858113586+853177329+848001944+848730516+856057993
##END=
