##TITLE=<SNM>
##JCAMP-DX=4.24
##DATA TYPE=INFRARED SPECTRUM
##DATE=2/5/2025
##SAMPLING PROCEDURE=Instrument type and / or accessory
##ORIGIN=Admin
##XUNITS=1/CM
##YUNITS=ABSORBANCE
##RESOLUTION=4
##FIRSTX=4497.3318
##LASTX=599.83466
##DELTAX=-1.4281778
##MAXY=1.8368042
##MINY=0.37350607
##XFACTOR=1
##YFACTOR=1.7106572e-09
##NPOINTS=2730
##FIRSTY=0.39248243
##XYDATA=(X++(Y..Y))
4497+229433715+227639694+226931490+227524677+228781765+229609132+229429255
4487+228876503+229162182+230647266+232414196+233396023+233482207+233200257
4477+232699822+231598239+229886484+228457027+228266226+229164168+229937389
4467+229564533+228277585+227246281+227253336+227920983+228372132+228295076
4457+228029728+227985896+228306313+228760545+228914186+228661103+228412114
4447+228579588+229186712+230017233+230740436+230950558+230495611+229826484
4437+229731676+230583451+231929841+232836059+232618063+231325836+229649341
4427+228428630+228148787+228689657+229389028+229487373+228754413+227653266
4417+226811334+226420899+226217903+225931893+225638863+225687521+226366544
4407+227619172+228953141+229713749+229704568+229432966+229379778+229258436
4397+228587218+227669241+227147605+226874731+226144123+224913133+224040905
4387+224261305+225288863+226039071+225787486+224939422+224321514+224050190
4377+223716271+223435558+223917804+225367835+226954226+227619346+227047222
4367+225692364+224227873+223206673+222927249+223232805+223560871+223452822
4357+222970733+222575089+222746761+223660435+225013359+226115429+226342694
4347+225752277+225075432+224901234+225009422+224683969+223602021+222233731
4337+221381329+221451973+222175107+222926081+223296324+223339460+223327352
4327+223446934+223703797+223895940+223705313+223074478+222458678+222380508
4317+222796900+223265488+223573345+223789930+223892159+223778745+223475331
4307+223048485+222573887+222285247+222378922+222593138+222430821+221850561
4297+221308402+221228158+221777164+222911830+224253012+225074683+224884840
4287+224006462+223170593+222588887+221860073+220721870+219413058+218425848
4277+218340691+219533946+221537966+223055628+223136185+222158574+221336608
4267+221431538+222186414+222919182+223316603+223436237+223342300+223162422
4257+223119931+223184251+223032701+222460159+221591886+220854936+220836644
4247+221799708+223298049+224600485+225291128+225273567+224678934+223986149
4237+223726027+223887455+223922734+223411063+222531361+221832268+221650962
4227+221831833+222052878+222267842+222536500+222616378+222185090+221458489
4217+221120092+221489412+222163975+222699305+223204408+223826358+224139824
4207+223787038+223366760+223729093+224589684+224869300+224309946+223762944
4197+223872177+224272646+224194510+223408415+222460316+222093139+222492232
4187+223189966+223704895+224008187+224197019+224116479+223709320+223351934
4177+223373450+223620575+223887107+224279719+224831077+225280867+225466023
4167+225520204+225624263+225781162+225756981+225237592+224283796+223449477
4157+223094739+222920541+222617249+222502441+223010715+223935800+224651374
4147+224848621+224627088+224121009+223470836+222952911+222824723+223107213
4137+223522770+223660801+223447927+223390819+224027960+225274613+226552275
4127+227342848+227465810+227075096+226529993+226124367+225865604+225505222
4117+224873272+224313047+224532315+225692120+226939347+227246977+226461561
4107+225275919+224457977+224357315+224960066+225995465+226899661+227084818
4097+226503094+225667730+224967645+224408064+224069894+224221026+224895485
4087+225704803+226143356+226101475+225950778+225891249+225601162+224970589
4077+224604806+225012348+225843705+226346875+226166161+225558636+225058167
4067+224925868+224969544+224926390+224690694+224148552+223319269+222673974
4057+222781691+223600139+224424649+224578133+224083291+223593240+223653240
4047+224227699+224992470+225702347+226148077+226166074+225825953+225341024
4037+224839596+224482890+224591025+225248532+225954646+226120499+225837137
4027+225670256+225821197+226047590+226265987+226618721+227039504+227260427
4017+227208702+227034800+226805393+226482554+226129767+225919071+225995674
4007+226418617+227129452+227955634+228734309+229365109+229667808+229387460
3997+228578926+227801297+227651646+228205355+229027496+229597686+229771345
3987+229905996+230332180+230780837+230782440+230520141+230686308+231509146
3977+232469405+233021825+233128567+232937156+232330677+231179739+229881867
3967+229214534+229605875+230808938+232227419+233314594+233764471+233608148
3957+233114856+232517488+231997559+232033395+233341249+235842655+238001552
3947+238358816+237556397+237317634+237838330+237669358+236071957+234066614
3937+233101825+233854942+236069588+238761917+240628655+240975971+240516704
3927+240651581+241812258+242995705+243348683+243595407+244865352+246766777
3917+247483256+245739741+242190864+238600192+236300319+235800739+237505439
3907+242096770+249499558+257582484+263196966+265123495+263880571+259560493
3897+253151919+247887872+246673920+249236963+251955162+251662306+249956996
3887+250204696+252473018+254328205+255467053+257121143+257632327+254871201
3878+251434832+251095861+253817893+257501630+261344984+264598600+265340654
3868+264248444+264347817+265761420+265344783+261912822+258190148+257039367
3858+259871486+267786642+280039053+288199279+282865423+270152682+259415703
3848+253963642+253931220+257970183+263841877+269780122+275212078+279233672
3838+279882921+276967510+273050951+269998501+267591695+265400846+264063706
3828+264076633+265077188+267483280+272688965+279379455+282328647+280216771
3818+277427996+275296747+271411808+265954242+262190418+262431131+266783665
3808+272780969+276848015+279117540+282645633+286997539+288142850+285839632
3798+283285858+280829888+277398833+274307028+273630427+275370910+278305451
3788+282062899+286847470+291983713+296704939+301685415+307514880+312706331
3778+315897160+318799453+324399266+334383495+348636808+364691057+378469946
3768+388420550+396466665+403943233+410942799+418159856+425540745+430772162
3758+432362542+432782332+436037167+444195790+455560503+464635709+468679881
3748+472208444+479107175+486839213+489140044+487014822+488216945+497587307
3738+515107232+535603249+550981960+557447590+557827554+556684560+557113165
3728+560420092+565759731+570455156+572816579+573625497+574117413+574343788
3718+573563581+572286232+573351979+578990294+586031776+587310728+581451508
3708+573414453+567315721+565267816+567524013+570840800+570275435+565295830
3698+560220859+559176157+563497855+572291842+583470283+593100750+595666946
3688+590376505+583299448+579353150+579586181+583207427+588475115+593832037
3678+598808751+601766375+599884567+595578932+594011131+595155309+593918727
3668+587775535+580008061+573798703+569685855+567137185+566303667+568025789
3658+571826547+574965216+575894865+577181169+581566838+587312400+588012747
3648+580174751+568560805+558706123+552628576+550161578+549830394+549934715
3638+550289278+551985721+555267873+559148074+563183709+567299484+569127842
3628+565545446+558703928+553541954+552931293+557486300+565123043+571079649
3618+572708148+572987241+575032114+578063850+580311963+582045827+583347740
3608+582099172+577754164+573712675+573342502+576564376+580819558+584550629
3598+588753233+594128970+598373281+598930353+597576489+598328752+602006165
3588+605061280+604404557+601777803+600201570+600127633+600395507+600326238
3578+600268120+600724913+601741497+603404211+606592148+612803632+622176363
3568+630458853+630863243+623116431+613982026+608064339+605050897+603371179
3558+602744979+603539681+605655773+607972563+608660714+607600786+607298278
3548+609272699+611622450+612038755+610873950+609264058+607378766+605345321
3538+603363374+601285818+599284847+597868195+596981089+596373146+596423669
3528+597424294+598516347+598394466+596943110+595604786+595927085+597756279
3518+599459132+599866518+599109516+597775094+596076074+593777473+591041033
3508+589462570+590845702+594293708+596209314+594486321+590889535+588117834
3498+587042087+586940624+586591635+585207875+583006870+580810917+579226321
3488+578412072+578297020+578764824+579662801+580567503+580657642+579360711
3478+577203956+575418176+574394346+573070586+570710382+568663139+568721327
3468+570325923+571173482+570343101+569134044+568922059+569509479+569591221
3458+568350457+566252413+564206808+562549495+561452807+561562180+563012525
3448+564422208+564185379+562357439+560379709+559133997+558064731+556458742
3438+554739582+553873312+554045298+554665436+555265295+555549023+555139964
3428+554203067+553538957+553131188+551807986+549326876+547212804+546477301
3418+546258312+545750369+545545909+546042041+546460123+546246500+545867477
3408+545683609+545300056+544246435+542556613+540613342+538878259+537717878
3398+537014744+536134432+534724331+533304683+532776461+533641476+535669555
3388+537902930+539078607+538592406+537039657+535530601+534678826+534331858
3378+534038897+533731302+533736284+533833079+533188446+531877926+531265837
3368+532001689+532868342+532658064+532126811+532719597+534153566+534722972
3358+533682835+532019424+530884131+530405665+530178801+530023087+530137338
3348+530949322+532535207+533916389+533629978+531492910+529033995+527833650
3338+528152151+529150685+529924655+530236710+530175352+529445179+527820653
3328+526044560+525195258+525330659+525670867+525969821+526745394+528029050
3318+528784031+528031559+526151424+524608152+524528361+525757417+527153825
3308+527598877+526790516+525363620+524336445+524129128+524071707+523289270
3298+522081433+521598228+522109238+522745403+523108817+523893101+525648080
3288+527984764+530012669+530881552+530280020+528889536+527958318+528110548
3278+528856574+529205215+528557202+527298843+526392259+526244524+526465813
3268+526567137+526327590+525882330+525811947+526412747+526848774+526193932
3258+525104039+524956722+525667000+525835640+524836339+523454147+522592895
3248+522361850+522421432+522686414+523331256+524108710+524088257+522632094
3238+520565339+519508268+519807292+520029277+519139070+518216250+518758583
3228+520153179+520331890+518530500+515996081+514147966+513232707+512743405
3218+512256856+511450551+509989509+508170280+507059132+507094254+507300630
3208+506775892+505911678+505228126+504411438+503430848+503109350+503653321
3198+503846038+502564160+500317998+498520510+497753962+497397586+496801420
3188+496159052+495771945+495141668+493726131+492188155+491858992+493114634
3178+494883968+495574733+494294388+491507007+488639940+486811931+485991375
3168+485479216+484726535+483542565+482167760+481220619+480921108+480552258
3158+479438707+478110278+477565749+477709861+477465645+476342059+474962445
3148+473970531+473354226+472974784+472886178+472843007+472161337+470477508
3138+468347791+466789119+466260096+466242848+465926403+465126440+464208219
3128+463356687+462528815+461935053+461822684+461897841+461690977+461294114
3118+461006449+460608018+459853978+459208718+459148439+459273979+458911332
3108+457989975+456764263+455415451+454300541+453871761+454142074+454647683
3098+454862003+454487788+453647755+452840405+452415981+452146120+451531627
3088+450425880+449118044+447939579+447037595+446397492+445901257+445450665
3078+445103210+444939830+444810458+444463176+443906697+443393945+443050218
3068+442762971+442497013+442456804+442672239+442626316+441777956+440374823
3058+439142979+438334723+437748000+437356990+437173193+436801138+435825321
3048+434471282+433464455+433309473+433809751+434218774+433962399+433202958
3038+432455050+431840417+431214147+430752998+430659619+430467319+429510562
3028+428019137+426935063+426669175+426626561+426003601+424754162+423612805
3018+423195454+423338102+423491133+423374513+422946187+422179812+421189292
3008+420242952+419523651+419031770+418645186+418209821+417696198+417160903
2998+416515504+415638538+414681188+413892862+413262201+412612203+411876212
2988+411075098+410144264+408949807+407539079+406311973+405752114+405956817
2978+406590753+407271832+407797928+408000924+407630611+406575910+405122464
2968+403780167+402853514+402299195+401933063+401638883+401418256+401308779
2958+401236131+401019790+400558850+399899165+399160700+398493315+397975163
2948+397559693+397275966+397228335+397206663+396793075+396041927+395408653
2938+394944995+394340502+393691967+393359564+393179250+392646394+391746710
2928+390930998+390426748+390043648+389469816+388543895+387435744+386565572
2918+386112158+385709407+384930349+383927494+383238680+383055510+382993524
2908+382600076+381880983+381201647+380817153+380649697+380445481+380037259
2898+379450919+378805973+378194929+377676846+377275035+376917231+376456257
2888+375809429+375098560+374635564+374626156+374837584+374787863+374339188
2878+373814277+373488180+373291839+373038947+372699018+372449785+372527868
2868+372894558+373074592+372570098+371448115+370283623+369528363+369168956
2858+368945333+368595647+367916625+366915338+365935549+365383111+365302031
2848+365361125+365232798+364842938+364229908+363362140+362293327+361325908
2838+360735108+360484272+360425561+360484829+360502216+360329952+360153088
2828+360209395+360251973+359801103+358835077+357834731+357252224+357144454
2818+357180133+356917695+356177174+355142368+354110837+353291605+352842930
2808+352854220+353147285+353282546+352967320+352312026+351530007+350652726
2798+349721683+348941162+348449561+348155380+347846774+347350155+346687021
2788+346118277+345849706+345739636+345513888+345135596+344737443+344316991
2778+343696854+342765950+341686823+340815048+340385328+340301635+340261948
2768+340042158+339630033+339156550+338750767+338411465+337997877+337420840
2758+336824186+336428717+336219414+335979798+335592377+335115131+334634330
2748+334211997+333887747+333609629+333217330+332557157+331636184+330658660
2738+329860683+329325423+328995598+328735947+328362951+327847482+327444347
2728+327312256+327191246+326820341+326370586+326106336+325978984+325811633
2718+325509996+324969161+324122577+323129653+322297843+321853000+321832304
2708+322052059+322175718+321957739+321414186+320726557+320086349+319618720
2698+319293390+318928373+318427468+317922905+317536390+317166077+316691584
2688+316203849+315863432+315683676+315533677+315252284+314808556+314390230
2678+314185004+314095736+313882287+313512357+313163125+312949048+312774415
2668+312408039+311752501+311067554+310725499+310712120+310634106+310239438
2658+309660903+309142541+308754180+308406585+308028467+307695506+307569897
2648+307679339+307799234+307631221+307099654+306413244+305826277+305431435
2638+305224676+305204954+305274327+305216766+304980704+304789241+304773562
2628+304733039+304442970+303958686+303473530+303089315+302798653+302540361
2618+302273184+302047540+301907087+301767715+301571409+301444336+301472803
2608+301461653+301148413+300542003+299883224+299399950+299191623+299202912
2598+299230926+299074132+298714516+298272078+297825807+297395948+297036820
2588+296809573+296669608+296465218+296080689+295569610+295112364+294852678
2578+294819647+294942364+295038322+294911737+294601041+294356965+294264004
2568+294120171+293772750+293307072+292849930+292438084+292104200+291892528
2558+291775699+291686431+291627912+291656762+291749863+291782912+291674358
2548+291455404+291177721+290883872+290678106+290656068+290745580+290755736
2538+290567949+290204640+289797202+289521819+289433631+289373492+289193893
2528+289008528+289025758+289222203+289385025+289389607+289255914+289023266
2518+288731229+288463860+288306421+288287815+288394557+288581351+288744138
2508+288751542+288563860+288287083+288066265+287954697+287902171+287801701
2498+287555203+287196006+286919003+286882627+287021442+287126041+287050396
2488+286826338+286634038+286621791+286725240+286739561+286574247+286349213
2478+286234632+286237959+286178499+285919563+285571253+285347107+285309843
2468+285412943+285646375+285950712+286132053+286041078+285734789+285354877
2458+284963728+284590802+284328399+284260315+284341953+284436813+284438869
2448+284338242+284234984+284267563+284428590+284516743+284389636+284159706
2438+284014306+283976692+283973678+284004549+284091100+284145769+284027494
2428+283728122+283437652+283393976+283647982+283987337+284159009+284150298
2418+284144810+284246744+284420559+284640524+284893973+285081167+285099652
2408+284997457+284905575+284857143+284777753+284619165+284427754+284308085
2398+284367493+284640768+285018641+285319895+285488205+285633640+285820190
2388+285900521+285630591+284893485+283725787+282128021+279970012+277178502
2378+273921698+270477385+266978543+263381077+259641625+255898515+252479638
2368+249633112+247302577+245372860+244018089+243573421+244282218+246374408
2358+250074156+255303691+261717091+269161552+277429965+285355766+291041781
2348+293148989+291819323+288804573+286281948+284963868+284080089+282899709
2338+281438771+280091388+278981913+277822543+276498434+275446921+275077827
2328+275125702+274999761+274561052+274266227+274653856+275810578+277275958
2318+278422593+278973759+279161634+279387609+279824036+280394261+280998615
2308+281614433+282235895+282815615+283259830+283481537+283487216+283385474
2298+283297129+283301276+283450491+283745473+284086657+284321883+284364932
2288+284250594+284095717+284023678+284076692+284143748+284007633+283546206
2278+282888785+282306836+281940930+281696488+281421071+281113127+280893964
2268+280817658+280807780+280777623+280716944+280657676+280652850+280777989
2258+281032831+281260932+281288719+281111751+280839539+280541230+280261039
2248+280090360+280100900+280261039+280468303+280618529+280650655+280571038
2238+280424401+280257380+280142833+280159889+280288966+280422171+280528094
2228+280696160+280965967+281214713+281277482+281124086+280881124+280710724
2218+280679522+280718215+280713425+280653912+280638860+280726334+280857048
2208+280955968+281010619+281017013+280957971+280871682+280848285+280922605
2198+281037849+281126873+281157570+281104277+280972936+280836839+280738947
2188+280614679+280449139+280397171+280565289+280819173+280993929+281120270
2178+281268249+281366629+281334625+281225148+281126769+281052309+280971699
2168+280852832+280691787+280596195+280743041+281130636+281496524+281635165
2158+281647795+281709572+281771366+281707203+281602255+281653492+281868004
2148+282052742+282086261+282069641+282188439+282482549+282779674+282862601
2138+282700389+282490145+282451156+282608786+282815197+282953419+283046032
2128+283155527+283278488+283396641+283545160+283751205+283967563+284116779
2118+284161936+284148817+284206065+284432406+284768224+285080958+285343675
2108+285590835+285765399+285773535+285655417+285589093+285732960+286096914
2098+286551164+286944665+287202539+287332155+287392294+287456266+287553270
2088+287646893+287689454+287681893+287677886+287734262+287861649+288044105
2078+288277641+288537832+288769661+288966699+289167900+289372830+289606993
2068+290005808+290611974+291172582+291376885+291225700+290968035+290777287
2058+290667182+290645493+290770301+291031502+291304080+291491031+291634445
2048+291833155+292146604+292600628+293131707+293502960+293481950+293159302
2038+292903414+292958919+293246375+293563483+293822890+294046443+294247140
2028+294401704+294502818+294574700+294645153+294774281+295099402+295698356
2018+296344626+296602918+296325915+295855568+295589471+295588217+295703129
2008+295837101+295955812+296020794+296022536+296017902+296079749+296197065
1998+296316508+296611176+297484798+298951031+300233119+300508066+299871099
1988+299021658+298379883+297979117+297796679+297817898+297984065+298222636
1978+298455074+298625980+298740509+298809115+298907861+299340926+300368694
1968+301621513+302233149+301847192+301041898+300523641+300426498+300569216
1958+300898936+301405625+301924230+302277714+302465344+302608096+302816807
1948+303227363+304137222+305775964+307594775+308221463+306967424+304906000
1938+303566456+303350847+303698477+304057675+304296281+304511541+304764781
1928+305142969+306029935+307727527+309638359+310780308+311301596+312022047
1918+312558004+311748145+309882853+308566097+308685365+309748150+310659054
1908+310711493+310099090+309537384+309406408+309516931+309661669+310033306
1898+310950621+312258283+313306295+313919569+314871971+316543326+317788619
1888+317360606+315787544+314442564+313847026+313780928+314001590+314330021
1878+314621867+314879602+315288277+316418623+319225933+323986027+328827445
1868+330433643+327820757+323636272+320719519+319757186+319898336+320163248
1858+320157987+320014189+320009172+320284676+320958612+322261153+324387838
1848+327531280+331755731+335803352+336784848+333755447+329703261+327524416
1838+327361106+327805774+328198038+329549115+333030432+337717285+340769926
1828+341050135+340247105+339271672+337266206+334345934+332155625+331617961
1818+332124301+332809387+333772416+335698230+338454531+340611042+340893306
1808+339749058+338774321+339312508+341827276+345542808+348516285+349204611
1798+348317749+348254753+350875060+355722366+359290372+357992466+353339584
1788+349824575+349474820+351182725+353208121+354974006+356259125+356604316
1778+356615744+358269294+363115555+370353239+376101902+376619671+372840690
1768+367905579+363855902+362320679+364140326+367591747+369624600+369935400
1758+370293518+370851078+371311530+373418041+378896077+386051148+390381626
1748+389886679+386953968+384506866+383812442+384818677+386416443+387176407
1738+387855012+391519393+399059585+405047551+403244350+396548406+390141940
1728+385593240+383393384+383677112+385516724+388507658+394262593+404285811
1718+415901359+421542043+417717000+409661443+402928253+399753626+400714077
1708+405384972+411648059+416654250+420636157+426828791+435778771+442392310
1698+443032099+439491167+432789614+424851722+420092186+420379015+424128762
1688+430037704+439333920+451544589+458587674+454223781+445421014+439827472
1678+439583431+443598370+448557174+451842045+454838205+459075373+461400734
1668+458296385+453358034+452157793+455032386+457638791+456774647+454775696
1658+456094369+463702645+478568639+495574489+500502806+493872507+490554605
1648+493843552+496548947+491791466+483432356+478186096+478140347+483280615
1638+493036481+503867537+507650838+501648064+494090590+491472826+493911531
1628+498362218+502560118+506623175+510031983+510724664+509657802+510988392
1618+516264164+521267323+520839275+517127054+515088208+516010088+518241163
1608+519842936+520453074+521056104+522437634+524351079+526119368+527643929
1598+529418385+531690644+534047887+535907151+537125998+537931327+538549584
1588+539199094+540185225+541652782+543358388+545109081+547582002+552205128
1578+559388317+566028372+567213665+564562068+564352975+568331677+572301563
1568+572033376+569516656+568752442+571500589+579432697+595024996+614869760
1558+622239638+612571368+601213623+595101512+593510783+594418029+596156910
1548+598841573+604603441+614950944+628821714+643627813+654679704+654299845
1538+644708577+638113052+639459808+645047252+648512819+649265361+652287236
1528+660032096+670315418+680302294+690078231+699685944+706049902+707826413
1518+708094636+708756516+709472124+711060762+715715734+725031601+739180419
1508+754730767+760605318+750431474+737079309+730887964+731998205+737316242
1498+742951142+745162705+743807865+743386891+747763257+756075015+762707335
1488+762532004+757087696+751521855+749003254+749651476+751881575+754620872
1478+758437379+764409909+772480135+780096773+782307778+777508974+771318465
1468+769621814+773394140+778831967+781013008+780600326+782918857+790858281
1458+800592406+802449963+794393256+785306447+780298584+779114754+779879003
1448+780196772+778446114+775349257+772909960+772392748+774299434+778845626
1438+784837529+788500099+787159544+783783106+782254538+782646314+782687499
1428+781468059+780503949+781057467+782823735+785568607+789638981+793407892
1418+793044757+788210831+782918718+779849944+778840330+778606881+778476637
1408+778930294+780240675+781219697+781027433+781347641+784071886+788257869
1398+791448524+792848172+792975838+791923227+790372847+790022186+791457723
1388+792917859+792086293+789553128+788494593+790884623+796112973+802490659
1378+809052665+815767563+822082183+826123777+826943148+826479455+827022938
1368+828677151+830805229+833883759+838105074+841621651+842260535+840372107
1358+838154133+837086470+836926052+836586471+835581107+834285082+833175329
1348+832465783+832155888+832197073+832956096+835144105+838656362+841895379
1338+843094540+842202277+840763116+840287577+841048900+842142068+842739418
1328+843121578+844095443+845802826+847693275+849472713+851475914+854032842
1318+856969491+859934083+862725297+865035953+866512605+867379223+868335040
1308+869608974+870837125+871995659+873707920+876395231+879610067+882395357
1298+884092774+884749986+884828940+884731588+884637860+884356328+883212916
1288+880578218+876715300+872686389+869443121+867236506+865618252+863988430
1278+862449200+861758888+862167667+863042021+863763552+864117907+863829824
1268+862785087+861745090+861833661+863201463+864819717+865668983+865753164
1258+865839854+866582919+868069326+869902354+871592733+872942765+873949243
1248+874519765+874778928+875416069+877088052+879668325+882428667+884646223
1238+886023990+887019736+888609559+891100145+893403834+894340765+894548221
1228+895901737+899052253+902669178+905179626+906294048+906677811+907101782
1218+908120595+909997733+912839608+916532840+920295132+923073662+924899860
1208+926865709+929509884+932160053+933778725+934082418+934062139+935134889
1198+937562201+940278989+942307904+943664277+944873613+946215979+947678833
1188+949593254+952780354+957277278+961530230+964094684+965349315+966350149
1178+967129242+967004573+965870081+964936982+965888896+968875928+972099614
1168+974107554+975430965+977309985+980142801+983532550+986884389+989528773
1158+990840268+990737760+989947727+989674835+990461384+991801311+993208765
1148+994943465+997216770+999262200+999943453+999165406+998152029+998039764
1138+998744571+999664220+1000987562+1003302958+1006136680+1008329636+1009714720
1128+1011334786+1014083909+1017406062+1019665499+1019954140+1018986128
1120+1018267802+1018533725+1019298113+1020198111+1021753996+1023838312
1111+1024731341+1023555734+1022436991+1023746117+1026259422+1026948619
1103+1026340467+1028314957+1033973829+1038931449+1038817651+1035515916
1094+1034095083+1035990689+1038422112+1038884062+1037682532+1036691175
1085+1037547201+1040586637+1044956592+1049270310+1051885635+1051575183
1077+1048947036+1046663696+1046999444+1050045082+1054459358+1058394123
1068+1059788126+1058154750+1056154337+1056957680+1060641504+1064451252
1060+1066260028+1066867204+1067922324+1069049569+1068709709+1066709365
1051+1064025469+1061546171+1060842828+1063371812+1067571523+1070028521
1043+1070185943+1070734095+1072749073+1073741823+1071709075+1068213334
1034+1065820517+1064974804+1064257663+1062205055+1058952379+1056883185
1025+1058529453+1063249233+1067598840+1069485038+1069448592+1067811453
1017+1064279405+1060224223+1057905273+1057924437+1059288197+1060997183
1008+1062275786+1062348121+1060924430+1058273983+1054985838+1052280757
1000+1052009886+1055065001+1059725200+1062523939+1061227078+1056546531
991+1051196508+1048065226+1048227734+1049759647+1049761389+1047919582
983+1045890248+1044096733+1042038341+1040013258+1038494655+1037276261
974+1036047762+1034555640+1032843518+1032101987+1033081915+1033138500
965+1028272239+1019264246+1011527678+1008246152+1007826850+1007453053
957+1005746855+1002575852+999047846+997236770+998143736+1000144707+1000384289
947+997671194+993272667+989019645+985469340+982108581+978844058+976372078
937+975007273+974267762+973848878+974118285+975269990+976429290+976018002
927+973448322+970436203+969500526+971204006+973477729+973408670+970291604
917+966773006+966029105+968165267+970381430+970792997+970421360+970694390
907+971069999+970059967+967362273+964207088+961931832+961014412+961328419
897+962250368+962630018+961881100+961195666+962359218+964997470+966420393
887+964394265+959697760+955628222+954539514+955759442+957325222+958270795
877+958385568+957327313+955149826+952817915+951301403+950854993+951079034
867+951260706+951084748+951144260+951982238+952538822+950988442+947416534
857+944516471+944800094+947849913+950867745+951559382+949866354+947177231
847+945001348+944133893+944185112+943955008+942564628+940129094+937358090
837+935059837+934071268+934977328+937437044+940135296+941821215+942357869
827+942789297+944078980+945700649+946046990+944253753+941405816+939733415
817+940772995+944090966+947717439+950258897+951888719+952916243+952925371
807+951994851+951788789+954355612+959414207+963389041+962717266+958217485
797+953713384+951346211+950999592+952257498+954596448+956852192+958108147
787+958435951+958198391+957521389+956585851+955978117+956135747+956210312
777+954572197+951319173+948966356+949891023+954121397+959226193+962053295
767+962231413+962904722+965795307+967816000+965565622+961277687+959501036
757+960509675+960901033+959105148+957319578+957592887+958708703+958880550
747+958888285+959984868+961191415+961295945+961727442+963844511+965270291
737+963031272+958982082+957466337+959407447+962484095+964784090+965759349
727+965353984+964159353+963501933+963901444+964306948+963836288+962865906
717+961984724+961596153+961572251+960588490+956805781+951032066+947696533
707+950006214+955834145+959657203+957810935+950999522+942678635+936536837
697+934580814+936099486+938847285+941288673+942990411+943609295+942779541
687+940365260+936532029+932114966+928396019+926339996+925964526+926037558
677+925000347+922487461+919435273+915900926+909405330+898675320+890492899
667+895501947+910114249+921683282+924209827+919107399+910929299+903000467
657+895481390+887601547+881509505+881169157+886047544+889921472+888576667
647+884806919+883387201+884891727+886817368+888211023+889662100+889540428
637+884386014+874745060+866494696+863709267+864941041+867284520+868806468
627+867280966+862105019+856481896+853993330+855123572+858459592+862347806
617+864614770+863389825+859085653+854672423+853659254+856759735+860838681
607+862134009+861501049+864005224+871476496+879364423+881596473
##END=
