##TITLE=<SNM>
##JCAMP-DX=4.24
##DATA TYPE=INFRARED SPECTRUM
##DATE=2/5/2025
##SAMPLING PROCEDURE=Instrument type and / or accessory
##ORIGIN=Admin
##XUNITS=1/CM
##YUNITS=ABSORBANCE
##RESOLUTION=4
##FIRSTX=4497.3318
##LASTX=599.83466
##DELTAX=-1.4281778
##MAXY=1.8384513
##MINY=0.37927023
##XFACTOR=1
##YFACTOR=1.7121912e-09
##NPOINTS=2730
##FIRSTY=0.39861593
##XYDATA=(X++(Y..Y))
4497+232810409+232402866+231866919+231199053+231117140+231830297+232370891
4487+231945003+231114147+231036551+232085869+233656635+234791590+234773279
4477+233759417+232828546+232881913+233601875+233874105+233173497+232031023
4467+231119925+230639156+230750606+231711623+233215028+234321438+234383333
4457+233573608+232517693+231916492+232229642+233134125+233579474+232910232
4447+231734860+231302792+232133126+233505063+234318896+234215226+233707268
4437+233480208+233774908+234331916+234769798+234906939+234660244+233915513
4427+232760854+231625882+230942454+230709841+230503946+230034908+229657703
4417+230007389+231070962+232103553+232597517+232762177+232993885+233494724
4407+234282762+235002045+234901839+233544679+231455460+229710252+229097040
4397+229733071+231033313+231977447+231890000+231017439+230110119+229624388
4387+229451948+229261561+229008131+228990568+229291221+229392576+228704327
4377+227340466+226029328+225419945+225667249+226516468+227635758+228789285
4367+229642473+229670671+228601249+226840602+225255320+224594711+225057031
4357+226180289+227195857+227713145+228020865+228570197+229279663+229586217
4347+229143079+228139156+226868504+225450701+224203251+223730697+224263337
4337+225232257+225760353+225419284+224397937+223166083+222216919+221973897
4327+222581643+223635696+224323440+224086057+223113882+222080508+221511612
4317+221565066+222217598+223300231+224454837+225366544+225911750+226013871
4307+225784043+225788830+226448829+227178608+227019239+226114199+225492145
4297+225427447+225178298+224412280+223815795+224023726+224774550+225455697
4287+225852431+226072407+226157174+225972967+225338625+224328679+223491331
4277+223398435+223928498+224440582+224630951+224670480+224622352+224403838
4267+224159388+224096692+224201685+224481399+225029913+225612995+225836122
4257+225900715+226368987+227040300+227006916+226076741+225224911+225244841
4247+225785679+226102154+226082381+226170229+226681825+227523733+228389244
4237+228944930+228916123+228200703+226920895+225380138+224043987+223431593
4227+223758077+224658452+225512632+226122101+226742258+227364156+227504587
4217+227015549+226525867+226564752+226809219+226652078+225968442+224973430
4207+224012256+223715937+224509422+225836974+226698134+226912332+227053303
4197+227271417+227051109+226200707+225298730+224938862+225088431+225371087
4187+225604570+225878888+226238095+226426201+226141753+225548227+225179343
4177+225264719+225564658+225912986+226386846+226915343+227290180+227621833
4167+228286166+229246470+229806455+229418319+228546960+228183628+228600152
4157+229105534+228944373+227995330+226687273+225588557+225003525+224809605
4147+224694865+224486325+224273154+224320602+224766230+225417143+226035716
4137+226605970+227048499+227099063+226820637+226750352+227223846+227966593
4127+228603999+229135403+229602109+229677738+229035232+227916655+226916614
4117+226367264+226302688+226723320+227477033+228127946+228268482+227852950
4107+227178660+226698169+226798775+227534107+228506282+229114446+229018122
4097+228381638+227674660+227242035+227073668+226977743+226883212+226856842
4087+226917693+227027820+227167312+227220905+226975411+226428742+225912951
4077+225852048+226483310+227596751+228491156+228572094+227999838+227356532
4067+226915761+226622279+226401798+226127915+225616493+224941995+224564286
4057+224961716+226100466+227296516+227777460+227417139+226716010+226162135
4047+225954952+226163092+226603637+226680467+225980748+224976598+224491842
4037+224609576+224825950+225062601+225671200+226617840+227473639+228121315
4027+228856107+229787064+230557174+230810709+230656161+230424662+230251072
4017+230107665+229885652+229351359+228515159+227921755+227999368+228462384
4007+228843279+229142348+229622247+230434218+231477113+232267448+232208877
3997+231264934+230093218+229411740+229421400+229825218+230258139+230647719
3987+231126366+231679753+232006132+231744138+230980695+230542587+231354175
3977+233356260+235432146+236461291+236151465+234956755+233634564+232855699
3967+232890320+233571972+234570569+235595345+236338823+236457531+235894187
3957+235145279+234840170+235122947+235881429+237298291+239288627+240725106
3947+240673358+240113878+240615622+241837381+242062562+240850812+239476577
3937+239144837+240279148+242752847+245506939+246579094+245113983+242949691
3927+242613147+244306694+245775966+245400467+244479396+245175582+247383214
3917+248604416+246842690+243010090+239627138+238156892+238532408+240639051
3907+245172275+252323042+259951880+264445837+264333290+261057333+256270469
3897+251265839+247996252+248192643+251272470+253661386+252598073+250775670
3887+252418548+257060490+260487131+261480175+262283286+262259771+259156028
3878+255204667+254546983+257688567+262286437+266599319+269265894+268660689
3868+266150942+265034350+265472684+264579741+261284028+258081941+257697287
3858+261502890+270261689+282619673+290308875+285024375+272928646+262730497
3848+257322989+256757679+259989999+265377717+271446025+277252199+281471820
3838+282192252+279355917+275412441+272168702+269531439+267126980+265465443
3828+265007092+265745539+268629062+275117654+283123836+286341484+283529117
3818+280013653+277492192+273437196+268204026+265203918+266220548+270429917
3808+275223865+278396188+281216440+286136772+291466894+292584600+289660939
3798+286381883+283307504+279593317+276578049+276062710+277817910+280718316
3788+284608042+289669485+295095269+300170498+305580930+311582747+316446911
3778+319193466+322045432+327854112+337724751+351179797+366024640+378993365
3768+389061770+397725828+405596487+412686803+420072776+427600260+432309267
3758+432763040+432584525+436516460+446231142+458908978+467932782+470780883
3748+473341056+480372052+489581508+494855443+496724912+501661032+512989524
3738+529790517+547442697+558945561+561101428+558023359+555913653+557912866
3728+563840151+571174011+576487109+578313237+577737204+576063796+574118123
3718+572727562+572670540+574686672+578571298+581498283+579796921+573784277
3708+567147004+563322985+563874649+567156542+568801161+566596767+563488446
3698+562909907+565286481+569820558+576666007+586524984+597979077+605201573
3688+603012322+594841340+587378850+583617702+583495199+586099652+590844376
3678+597019173+601765638+601951882+600257447+600763264+601268802+596550118
3668+587777377+580561321+576954876+575461306+574317213+573413844+573400789
3658+573487053+571946208+569907936+571520006+579057933+589326298+593869809
3648+588312018+578354977+570069394+564825711+561839998+560375530+560044608
3638+560222427+559924124+558866295+558843632+562823678+570886673+576433220
3628+572090504+561822348+554169124+552617870+556820259+564422728+571691316
3618+576038209+577844704+578040555+576846681+575508790+576315068+579778749
3608+583632706+585576220+585907420+586547263+588532030+590922424+592236365
3598+592961636+595199137+599312234+602974029+604933452+607040199+610628959
3588+613295134+611997554+607998362+604849625+604431116+606192181+608077664
3578+608920390+609888579+612093566+614393380+615751462+617705872+621780676
3568+625550597+624582547+619429271+615123525+614039134+614443857+614457573
3558+614572591+615658723+616489196+615019855+611637460+609443544+610734718
3548+614336288+616860221+616598366+614976131+613750682+613108472+612608225
3538+611979104+610896802+609326228+608202151+608397655+609163447+608883420
3528+607132103+605107651+603957674+603522595+603104643+602883518+603544526
3518+604832358+605637836+605259640+603964288+602561786+601567767+600475926
3508+598409282+595912154+594835979+595843505+597405864+597890098+597183903
3498+595848379+594228511+592772399+592229124+592902108+594079516+594792673
3488+594789053+594281008+593328345+591955920+590334451+588472710+586302605
3478+583998823+581809989+580137416+579449950+579158157+577646659+574654888
3468+572285172+572455750+574508992+576045833+575571207+573826504+572657381
3458+573100780+574613358+575718148+575136198+572806828+570143891+568526008
3448+567877532+567597609+567772817+568455792+568891428+568135314+566040089
3438+563284030+560661510+558715315+557679870+557292204+556813088+555642120
3428+554076350+552987886+552721923+552951473+553237278+553192963+552398520
3418+550707949+548537392+546767798+546435136+547924668+550280633+551670151
3408+551089906+549499489+548613491+548762973+548694429+547523913+546038106
3398+545559198+546197823+546879022+546868544+546555376+546351796+545695000
3388+544033392+542031847+540730926+540050492+539134173+537811808+536795613
3378+536571251+536813263+536906420+536526378+535711640+534931436+534972618
3368+536143969+537757815+538858149+539114365+538721756+537964005+537106344
3358+536430402+536243392+536718192+537350759+537017400+535279381+533116134
3348+531952406+532384735+533869046+535255569+535778757+535711083+535733537
3338+535761734+535088507+533761999+532962056+533453287+534242543+533698433
3328+531832758+530302635+530197642+531012485+531848284+532476709+532917253
3318+532820755+531899910+530626595+529932619+530258668+531088061+531533097
3308+531310057+530841663+530473283+530081893+529703696+529881133+530770646
3298+531541417+531315418+530196285+528808891+527543582+526925079+527857029
3288+530511437+533373951+534372461+533142208+531385286+530873620+531947080
3278+533888888+535701092+536315244+535204117+533219560+531787224+531228980
3268+530752509+529902437+529307119+529952671+531943286+533980130+534396272
3258+532919934+530882149+529598077+529270288+529447272+529734470+529786409
3248+529188376+527922614+526823185+526904053+527995023+528647607+527724813
3238+525583776+523420982+521986383+521144596+520365053+519484590+518904311
3228+518994578+519475574+519531761+518618366+517216003+516491532+516961806
3218+517897133+518334057+518022177+517008593+515296927+513294093+511692571
3208+510656186+509687683+508427283+507246672+506890407+507551625+508423176
3198+508367546+507071534+505334489+504173407+503899960+504183921+504765279
3188+505599582+506192603+505603724+503679600+501523420+500189637+499646327
3178+499242614+498458649+497121942+495517530+494228271+493427528+492703893
3168+491814239+490948223+490168297+489269245+488178971+487038568+486012382
3158+485186678+484541300+484099119+484035100+484256469+484070539+482922686
3148+481353365+480531456+480812875+481293662+480986482+479929384+478581397
3138+476824127+474549482+472567988+471801986+472051379+472357689+472145545
3128+471466017+470576851+469713515+469068555+468779373+468820660+468845585
3118+468380915+467399115+466399491+465687448+464914102+463655442+462101543
3108+460785305+459928688+459396588+459030993+458744213+458545158+458565732
3098+458728687+458565697+457778983+456717150+455991740+455943142+456472980
3088+456989693+456757393+455658590+454309454+453338759+452926064+452867301
3078+452719838+452068751+450942585+449910273+449564173+449905191+450334561
3068+450209934+449295390+447808504+446313019+445423157+445299157+445544546
3058+445711643+445659321+445418109+445006807+444409574+443630100+442758758
3048+441906667+441091059+440355657+439882006+439740322+439703526+439476656
3038+438961266+438304818+437813726+437640328+437468845+436801570+435590986
3028+434277149+433275367+432716009+432508113+432346202+431824685+430865478
3018+429871319+429198858+428721169+428117843+427279781+426217879+424985433
3008+423915698+423484552+423716191+424028662+423812132+422940616+421707578
2998+420561292+419887403+419754909+419833305+419730366+419365607+418891747
2988+418380604+417774668+417087933+416478272+416054054+415671332+415068216
2978+414194124+413295106+412706506+412542612+412465817+411864928+410477012
2968+408727644+407298964+406573762+406471659+406530525+406286111+405765986
2958+405372090+405237367+405111940+404860494+404605392+404389001+404039037
2948+403403998+402577355+401840526+401398136+401216174+401140354+401088728
2938+401043542+400863529+400228351+398977873+397497635+396477368+396195809
2928+396252309+396020914+395182365+393865013+392464286+391383237+390863878
2918+390876758+391071949+391022028+390685432+390448641+390533130+390584721
2908+390091123+389081682+388086758+387394871+386762095+386016528+385456231
2898+385336443+385418042+385323667+384964443+384438539+383825745+383152901
2888+382416907+381707371+381231597+381024187+380856324+380603381+380344485
2878+380019968+379450689+378685523+377902046+377110458+376318383+375739844
2868+375519241+375464899+375252094+374764658+374203420+373886075+373881723
2858+373895265+373598946+372997361+372360199+371884425+371535226+371152121
2848+370629420+370018228+369469557+369053694+368697916+368369396+368176991
2838+368148376+368098142+367883353+367541186+367037493+366207890+365114552
2828+364156529+363704740+363800612+364144832+364231688+363647579+362429266
2818+361081767+360134047+359667777+359362998+359002695+358718351+358630521
2808+358536355+358176017+357606842+357123966+356920073+356865279+356569934
2798+355759061+354612391+353566815+352831831+352335205+352058276+352094202
2788+352337676+352395638+351961534+351160755+350367705+349716827+348989328
2778+348049685+347158952+346660689+346527429+346428947+346137849+345704163
2768+345300553+345003956+344708403+344248816+343628154+343048640+342697736
2758+342591978+342622926+342621846+342361070+341644537+340530347+339411005
2748+338703801+338445740+338305483+337945319+337245982+336295861+335340727
2738+334636342+334218739+333918173+333614474+333331871+333109457+332939854
2728+332814496+332699512+332468396+331953911+331124064+330173525+329374383
2718+328867661+328660460+328704706+328812275+328624326+327928958+326982422
2708+326304460+326110662+326073622+325722962+325010397+324325855+323981948
2698+323888548+323774365+323532005+323233527+322916983+322502059+321934973
2688+321321588+320835752+320546431+320428314+320457382+320542497+320435485
2678+319920513+319093416+318289018+317722071+317345719+317059182+316871651
2668+316783681+316663858+316387034+316035260+315826040+315828338+315838642
2658+315587753+315021015+314301174+313575346+312870370+312233904+311807562
2648+311650073+311603112+311459025+311168172+310788095+310375679+310027664
2638+309835467+309707255+309456644+309114722+308887261+308802807+308696387
2628+308491763+308224442+307877019+307439364+307025972+306734736+306482141
2618+306117730+305640075+305207711+304949651+304818688+304657857+304400005
2608+304165617+304121893+304244779+304291009+304063026+303618200+303131390
2598+302649732+302126544+301632145+301337462+301248483+301131968+300835440
2588+300531915+300462987+300581069+300649301+300548207+300310093+300019031
2578+299790943+299664889+299490203+299120188+298665788+298351506+298195026
2568+298027407+297777805+297565035+297485177+297444238+297294338+297033805
2558+296760079+296523602+296340665+296239363+296189129+296079506+295841114
2548+295542254+295337491+295298432+295297770+295148392+294854684+294592446
2538+294462424+294399936+294275936+294016379+293719398+293631881+293852171
2528+294136932+294170909+293931124+293642777+293476098+293413784+293365640
2518+293285363+293136508+292871136+292565662+292444168+292596714+292830441
2508+292951413+292990193+293009931+292925652+292669053+292345442+292086615
2498+291886133+291698462+291587029+291612494+291645009+291486823+291158164
2488+290887223+290841915+290981668+291111046+291037210+290763014+290506572
2478+290446870+290517399+290518896+290364870+290160768+290046794+289987875
2468+289822292+289545938+289364063+289380946+289443817+289387004+289253169
2458+289183250+289206086+289212457+289103130+288907783+288740512+288672890
2448+288679469+288674804+288594163+288468822+288387136+288361480+288319183
2438+288228098+288107562+287938846+287703604+287475952+287361490+287381873
2428+287475343+287550171+287546742+287535811+287704074+288121399+288572440
2418+288738841+288525183+288129162+287822574+287719966+287742037+287763307
2408+287764699+287807448+287898638+287991203+288108502+288335997+288671393
2398+288992045+289195329+289301088+289404044+289563639+289754583+289900984
2388+289910209+289660678+289027884+287950368+286402509+284296998+281515544
2378+278085021+274263231+270373574+266563637+262799025+259083654+255540863
2368+252305288+249570464+247658977+246748732+246710022+247501105+249457256
2358+252919109+257813541+263926530+271366793+279963315+288165367+293650053
2348+295151386+293410825+290675932+288814226+287771139+286582887+284976561
2338+283357529+282082769+281034669+279840830+278514304+277538039+277199476
2328+277273434+277418913+277473498+277439139+277523731+278062846+279149987
2318+280456182+281534690+282205951+282610900+283009183+283586870+284383523
2308+285311660+286220704+286946550+287344015+287376146+287202992+287074118
2298+287096345+287212600+287398373+287683187+287946539+287935103+287611126
2288+287298707+287320447+287592868+287734413+287530554+287143794+286848746
2278+286703545+286563880+286320266+286008908+285716366+285454511+285159741
2268+284820134+284549210+284450936+284473947+284497393+284472537+284394802
2258+284273639+284189673+284229410+284354176+284470013+284563257+284650217
2248+284712617+284767603+284866834+284980042+284990573+284810647+284453094
2238+284051139+283812938+283853094+284076360+284306101+284460057+284537113
2228+284560332+284594761+284692165+284799925+284834041+284801492+284749831
2218+284678676+284567016+284423261+284311688+284346970+284558453+284759161
2208+284719475+284471336+284259366+284210264+284222309+284176096+284101059
2198+284080415+284105027+284115175+284123513+284207914+284419919+284734549
2188+285031982+285147836+285018544+284734688+284420684+284160622+284031766
2178+284070094+284223562+284423852+284620992+284726072+284685325+284617302
2168+284689467+284866381+284954769+284879314+284767167+284770544+284914857
2158+285118872+285291087+285375645+285339197+285183205+284997500+284930783
2148+285037760+285210793+285341512+285488087+285769768+286140393+286416921
2138+286517441+286519669+286484213+286390586+286279449+286308082+286585167
2128+287000891+287290422+287305617+287193192+287215698+287441140+287744665
2118+288053238+288398067+288756612+289025238+289156236+289211465+289271498
2108+289345090+289392904+289429074+289557495+289864397+290291034+290669666
2098+290904333+291065286+291273966+291564349+291899623+292227812+292468885
2088+292545192+292455169+292262032+292056398+291954661+292028862+292234113
2078+292487370+292750374+292982221+293132504+293206410+293265381+293425829
2068+293826688+294406829+294818863+294838566+294691764+294700502+294852700
2058+294960930+294986900+295001625+295033757+295111631+295310302+295647421
2048+296022310+296342928+296645165+296980439+297245671+297291274+297170024
2038+297088704+297132671+297221128+297299246+297397033+297528065+297676886
2028+297854914+298059120+298227053+298336223+298529638+299038310+299876755
2018+300631164+300753632+300186198+299467297+299118238+299200951+299502666
2008+299834806+300078629+300177564+300154728+300065644+299973288+299945613
1998+300037795+300404016+301335513+302828874+304212543+304697995+304232282
1988+303350113+302498509+301907299+301697035+301786153+301951057+302083551
1978+302206159+302303980+302331029+302324833+302462897+303030366+304142467
1968+305341494+305791020+305213003+304275240+303750276+303766185+304079597
1958+304559897+305110899+305512107+305616020+305517050+305450420+305624166
1948+306179834+307316652+309175364+311182688+311936923+310719063+308635919
1938+307262554+307001778+307294268+307587071+307689801+307658226+307650115
1928+307918724+308901429+310804144+312913223+314225423+314938754+315872793
1918+316545185+315712936+313721695+312272475+312245426+313092783+313789439
1908+313794661+313299078+312815332+312647852+312781112+313104201+313626206
1898+314490934+315635097+316577734+317134898+317976093+319464825+320535117
1888+320054608+318652663+317694743+317515601+317637722+317744664+317852093
1878+318057971+318401147+318905014+320015932+322752218+327513303+332393585
1868+333912533+331096598+326793045+323893283+322952038+323062810+323358398
1858+323516339+323567513+323648659+323845590+324296579+325341911+327389373
1848+330800000+335558475+340055895+341029515+337554729+332992768+330530974
1838+330400151+331095379+331725196+333184581+336787301+341743925+345010048
1828+345127086+343871211+342529560+340455641+337671871+335654939+335275176
1818+335927029+336672770+337480963+339021181+341347800+343270253+343578861
1808+342606494+341861485+342681270+345478721+349342843+352264328+352840987
1798+351989209+352146768+355039220+359997237+363346282+361622500+356664518
1788+353045855+352633230+354197920+356037347+357704559+359100517+359795362
1778+360254949+362241177+367195574+374324531+379813881+380070306+376211023
1768+371445620+367704559+366394099+368192761+371382332+373049858+372995168
1758+372988589+373250757+373666760+376066762+382050616+389621302+393965027
1748+393109733+389776215+387142937+386522276+387763599+389622590+390585661
1738+391373838+395004232+402307284+407951652+406026797+399552548+393538895
1728+389347784+387293812+387453982+389035173+391874085+397721581+408034992
1718+419947697+425621864+421509951+413121847+406260281+403162647+404196422
1708+408765555+414857639+419860946+424001822+430379051+439610056+446640982
1698+447489418+443779025+436843449+428868597+424155621+424401846+428032311
1688+433898570+443380255+455918809+462905942+457847214+448356304+442553228
1678+442501045+446781692+451807835+454992116+457939884+462279571+464806986
1668+461893960+457060465+455873379+458750688+461530628+461086880+459588506
1658+461329937+469234086+484126238+500588477+504722670+497985521+495076742
1648+498674831+501179688+495836860+487085215+481912688+482374990+488317035
1638+498855679+509883396+512972466+506192011+498487822+496067384+498588950
1628+502891842+506839269+510591087+513637060+514087596+512953250+514131737
1618+518927913+523283231+522563391+519001680+517136005+518016537+520192038
1608+522096424+523417083+524816661+526727939+528687014+530022295+530984531
1598+532502156+534833753+537137257+538516888+539009686+539307780+539953993
1588+541038106+542392811+543847566+545306116+546945443+549683748+554932932
1578+562753984+569384539+569733111+566283007+565900842+570218319+574824144
1568+575209129+572937129+571825098+573965995+581571910+597396256+617988754
1558+626152007+616686510+604949535+598180081+595966113+596526654+598280200
1548+601240257+607279636+617749039+631849673+647543578+660166307+660834139
1538+650818543+642990180+643009536+647527147+650344544+650650123+653103179
1528+660128849+669857455+679957644+690656597+701442162+708561615+710773912
1518+711350467+711506076+710392095+709639601+712636906+721315864+735516199
1508+751644905+758728989+749646144+736471925+729927634+730736941+736046523
1498+741825161+744038850+742407773+741489992+745267920+753043926+759498820
1488+759821039+755482291+751095155+749266207+750077324+752537830+756062397
1478+760717167+766441289+772813888+778475001+780141864+776384337+771699419
1468+771153638+775258450+780160593+781879048+782006390+785580668+794821490
1458+805505195+807737474+799662016+790524029+785468922+784285944+785349517
1448+786260058+784870645+781632928+779001566+778629426+780770985+785227885
1438+790784074+793916450+792148771+788556947+787009210+787296408+786854158
1428+785035166+784049293+785434807+788246077+791232034+794644715+797966746
1418+798124583+793887138+788318764+784228435+781920335+780696488+780579311
1408+782173696+785054521+787300168+787802922+788116646+790033390+792982516
1398+795395399+797001272+797856253+797184940+795374582+794458819+795282539
1388+796251563+795560199+794157975+794792596+798619052+804391911+810302207
1378+815724789+820876812+825360516+828194276+829528059+830825708+832841874
1368+835092952+837472833+840641831+844186310+846037259+844950640+842224937
1358+839853480+838627544+838198870+837890228+837436629+837092200+837039773
1348+837077370+837073958+837369581+838492056+840595810+843143902+845006130
1338+845202400+843912062+842476349+842264066+843556563+845405702+846679191
1328+847252613+847915501+849332903+851563511+854363711+857313463+859735119
1318+861314744+862803232+865098590+867732947+869441446+870137544+870922344
1308+872284534+873854551+875697703+878338325+881552161+884192853+885290125
1298+884975216+884402630+884603146+885235400+884970690+883255856+880818117
1288+878317995+875654954+872788123+870219074+868379543+867146853+866185557
1278+865416841+864933094+864698532+864552809+864454988+864583931+865106806
1268+865858534+866335736+866193564+865796082+865882902+866514948+866979895
1258+867096515+867723756+869391177+871301794+872382356+872674288+872923611
1248+873325271+873539434+873749419+874855046+877435722+881014526+884425536
1238+886703210+887831185+888695774+890006512+891655482+893573479+896280384
1228+899768746+902961764+905135768+906804372+908724528+910940375+912817990
1218+913641501+913574801+913814725+915259071+917529086+919635903+921193597
1208+922903210+925900167+930394663+935134444+938606166+940237382+940265928
1198+939533625+939364300+940573666+942733814+944846270+946358152+947531940
1188+949200544+951770638+954478796+956529147+958641116+961946577+965753190
1178+968336442+969734349+971522428+974093427+976212567+977098809+977230050
1168+976954757+976134380+975384392+976105695+978834183+982583147+986223428
1158+989329208+991185448+990705113+988437117+986694016+986570642+986835630
1148+986696452+987753412+991880015+998326555+1003967059+1006470662+1006662893
1138+1006788077+1007659279+1008577826+1009014229+1009405514+1010262166
1130+1010935637+1010023217+1007508683+1005626612+1007041507+1012591849
1121+1020403989+1027095326+1030449523+1030672667+1029118385+1027165785
1113+1025965958+1025920633+1026485212+1026835350+1026917646+1027519335
1104+1028987840+1030515387+1031034502+1030731708+1030529173+1030794022
1095+1031899578+1034415853+1037725908+1040180496+1041248108+1042049965
1087+1043759369+1046432297+1049168444+1051398913+1054119533+1058188906
1078+1061649697+1061783445+1059214395+1056981907+1056422410+1056270770
1070+1054848146+1051713821+1048632619+1048324464+1051089644+1054649231
1061+1057535278+1060291128+1063171465+1065145509+1065078740+1062547148
1053+1058465452+1055458608+1056647574+1062790344+1070276228+1073741823
1044+1072069041+1069336933+1069011441+1070428217+1071448206+1071600751
1035+1071254442+1069885011+1066787865+1062684795+1059485371+1058353566
1027+1058815381+1059640493+1060375929+1061174863+1061587662+1061044248
1018+1059522550+1057174905+1054360292+1052050035+1051125848+1051592119
1010+1053374488+1056291100+1059342503+1061061654+1060702256+1059100769
1001+1058264935+1059848877+1063226677+1065155535+1063091746+1058514188
993+1054805049+1052984943+1051547768+1049489201+1047604832+1046999035
984+1047596268+1048342497+1048484181+1048471788+1049058856+1049335263
975+1046960394+1041505507+1035760428+1032380261+1031113038+1029922053
967+1027541127+1024404365+1022018635+1021138938+1020459619+1018808699
958+1016968959+1015450324+1013004230+1008985126+1005194248+1003837141
950+1004687804+1004797462+1001062214+993834983+987360733+985184362+985978770
940+985698673+983194096+980749743+979727665+978865095+976932269+974845643
930+974397335+976100891+978505210+979526800+978606582+976821219+975606283
920+975942705+977286445+977550110+975455547+972665791+971753231+972544715
910+972699906+971021206+968250248+965556781+963790912+963525158+964585320
900+965600435+965171761+963601674+962280423+961774188+961755877+962056722
890+962352205+961680823+959876800+958314929+957832018+957502419+956500532
880+955415236+954866948+954312673+952904462+950828140+949430512+949921081
870+951680545+952580989+951784632+950990712+951771404+953286070+953435831
860+951321982+948072569+945451858+944282178+944115220+944107144+943995467
850+943963162+944438345+945778185+947352589+947836614+946777078+945130893
840+943997417+943785482+944981967+948150338+952096617+953774342+951832394
830+948713943+947372014+947624331+947020831+944534913+941818609+940627624
820+941246997+943443420+946878938+950303107+952274088+953398373+955788977
810+959780858+963259891+964121834+961736383+957044921+952714389+951689944
800+954278140+957847126+959963969+960587868+960712425+960328102+958585487
790+955549680+952872644+951824736+951962800+952486092+953553495+955756810
780+958983248+961737497+961923949+959593988+957795535+958861197+961272549
770+961814083+959973925+958215993+958510015+960588355+962905018+963635720
760+961706723+958495115+957201087+959245173+962799121+966015671+969330670
750+972672196+973723028+971208146+967287350+965205668+966205466+968747989
740+969828759+967797763+964117030+961794449+962116250+963700610+964651393
730+964849264+965155051+965089257+963536019+961201463+959998572+960503902
720+961649422+962504403+963164715+964045874+964754854+964209351+962184690
710+959947468+958583677+957711360+956803883+956268267+955996107+954457351
700+950756637+946216398+942908570+941543873+941266005+940836356+939322874
690+936388717+932789444+929544974+927365540+926547947+926415174+925653142
680+923222783+920167551+919777030+924120930+930720920+932282652+922064939
670+902727062+889029759+893864228+908036992+915526287+913369133+907171499
660+902287736+899723630+897171778+893379020+890883424+892947352+898658385
650+903202802+903326871+900437344+897629276+895459449+891559123+885058277
640+880333814+882966569+892523970+900821249+899468946+890326224+882821334
630+882254804+885173435+884103735+876232414+866537227+861422870+861960366
620+864186031+864562208+863130255+861294345+859028855+856012891+854618047
610+857999467+863353191+863337456+858778766+859244410+867243909+871864215
600+862853849
##END=
