##TITLE=<SNM>
##JCAMP-DX=4.24
##DATA TYPE=INFRARED SPECTRUM
##DATE=3/5/2025
##SAMPLING PROCEDURE=Instrument type and / or accessory
##ORIGIN=Admin
##XUNITS=1/CM
##YUNITS=ABSORBANCE
##RESOLUTION=4
##FIRSTX=4497.3318
##LASTX=599.83466
##DELTAX=-1.4281778
##MAXY=1.7623172
##MINY=0.20232205
##XFACTOR=1
##YFACTOR=1.6412858e-09
##NPOINTS=2730
##FIRSTY=0.22518693
##XYDATA=(X++(Y..Y))
4497+137201536+138458399+139463358+139793187+139425526+138444617+136968742
4487+135317752+134068506+133883314+134979734+136608417+137427320+136681030
4477+134849850+133107036+132382417+132909668+134370817+136190948+137653931
4467+138155934+137714088+136953127+136414527+136258296+136469064+136787935
4457+136755459+136284171+135784093+135465921+135117416+134701500+134563963
4447+134897379+135333849+135224956+134301508+132932393+131726481+131111663
4437+131305181+132275194+133507127+134140375+133680562+132522160+131610106
4427+131572529+132210416+132800775+132813640+132269139+131489692+130722984
4417+130103318+129797003+129937917+130430768+130947624+131055782+130417631
4407+129183002+128068860+127644219+127752413+128011435+128398208+128896289
4397+129212554+129299539+129545497+130143574+130800999+131228799+131437207
4387+131443036+131134369+130504135+129650096+128529626+127131303+125884971
4377+125420319+125789715+126362343+126671781+126868930+127070465+126918384
4367+126273750+125731419+125867158+126479788+126984460+127080969+126743141
4357+126060331+125400963+125335477+126092507+127203317+127863957+127681751
4347+126936932+126089230+125356022+124893023+124898997+125217832+125269763
4337+124758945+124126105+123992635+124431086+124997267+125250443+125077471
4327+124706659+124513541+124627264+124732107+124486149+124043823+123883724
4317+124261019+125087866+126094259+126851535+126938257+126357359+125578865
4307+124946688+124327168+123618664+123270459+123840354+125153543+126296657
4297+126485617+125755968+124844886+124579018+125294531+126584759+127595374
4287+127789173+127438036+127142779+126998324+126610162+125855256+125211885
4277+125259132+126001645+126764023+126879934+126458825+126155715+126238170
4267+126345411+126184731+125969042+125973718+126039531+125841501+125445223
4257+125253430+125549232+126348053+127405669+128231945+128545886+128657476
4247+128926040+129198037+129249469+129184364+129080791+128930099+128957444
4237+129286021+129495863+129160259+128537216+128227696+128387014+128642450
4227+128713647+128779152+129016140+129189684+129159024+129306948+129902509
4217+130511498+130603895+130307821+130096744+130111470+130139216+129992246
4207+129744308+129733859+130281138+131232994+131939119+131940499+131516602
4197+131266486+131369333+131585657+131777105+132057018+132466552+132768445
4187+132670647+132189126+131675938+131445914+131513860+131794028+132360627
4177+133288188+134353631+135150563+135482535+135438430+135105586+134531024
4167+134021078+134051392+134642541+135158099+135014207+134363772+133860426
4157+133899846+134230593+134327084+134102017+134062596+134614369+135442661
4147+135868527+135634898+135011047+134274163+133476023+132726201+132396571
4137+132831126+133886065+134924397+135348975+135118306+134729944+134688063
4127+134992662+135233291+135134893+134785562+134378634+134078566+134084975
4117+134469533+135026291+135539306+136023224+136517046+136903065+137045795
4107+136882510+136371374+135581133+134838801+134596874+135054245+135908484
4097+136581016+136776305+136632549+136293486+135730373+135087401+134792226
4087+135133422+135919978+136632049+136858487+136595470+136139570+135739116
4077+135482245+135442534+135625102+135808888+135700585+135183311+134335046
4067+133426869+132892282+132963570+133387966+133770462+134001685+134119530
4057+134086991+133942209+133872283+134019253+134417628+135040817+135712778
4047+136129366+136106968+135691415+135065857+134499502+134223547+134200868
4037+134166041+133973531+133757970+133756871+134126448+134825019+135521829
4027+135758953+135403403+134855997+134646509+134894800+135353505+135890952
4017+136614418+137424742+137850091+137622518+137123166+136895284+136952627
4007+136925236+136664960+136375469+136319461+136599011+137031796+137212921
3997+136964003+136627691+136622108+136915767+137252160+137569270+137895767
3987+138164096+138333763+138404189+138255112+137832968+137509539+137863900
3977+138992496+140312485+141162276+141343809+140968022+140149600+139099619
3967+138244399+138055539+138817663+140394114+142066249+142928015+142687077
3957+141840873+141077696+140856088+141478514+143042346+144993268+146141375
3947+145897087+145218154+145345259+146022132+146000006+144996074+143900752
3937+143454022+143962398+145618763+147965682+149529314+149259116+148084035
3927+147773508+148733735+149760810+149923214+149928661+150892293+152508556
3917+153151709+151698341+148832650+146203584+144824917+144737823+146000388
3907+149355698+155266288+162344624+167649095+169289081+167408194+162854589
3897+157271449+153403033+153310227+156367983+159123465+158881420+157740576
3887+159055391+162196328+164001497+164186108+164588815+164278914+161735517
3878+159313887+159999711+163376828+167353865+170931700+173096831+172397243
3868+170255499+169654109+170419066+169603358+166141262+162467898+161538758
3858+165131210+173926593+185853945+192363556+186343155+174814987+166082666
3848+162465011+163486194+167446035+172211034+176569895+180514865+183465489
3838+183618379+180747486+177220366+174684396+172753483+171030951+170320723
3828+171093305+172742298+175495219+180609014+186757700+189276021+187307050
3818+184682596+181927405+176891363+170835263+167316623+168140647+172842457
3808+178764587+182818886+185655624+189741209+193499933+193172636+190249231
3798+188543095+187804595+186264549+184594348+184505338+186345080+189688042
3788+194371385+199965693+205388317+210421127+216679705+225397428+235137350
3778+243740569+251774155+261427283+273789352+288115836+301522349+310396066
3768+314313018+315598525+315768048+316059700+318339825+323156793+328910054
3758+334330155+340773417+351039791+367130570+387639133+405727863+416442120
3748+424827807+436542275+449218713+455787700+457419334+462081233+473626106
3738+491394203+511577267+527999573+536534554+539163130+541113326+545914532
3728+553960993+562897591+569118746+571100391+570301552+568563295+566641244
3718+564764478+563721161+564929534+568212702+569629273+565074361+556252158
3708+547855867+543044638+543261770+547387502+550901893+549870487+545963341
3698+543865593+546524529+553955763+564102114+574384249+582256612+584797630
3688+581366330+576090512+573267465+574325926+578702491+584990794+592136659
3678+599250602+603218904+600964672+596504000+595133404+594839573+589534122
3668+579104980+569484700+564127535+562320823+562008253+562457479+564080034
3658+566223830+567422324+568764812+573614427+582986596+593093327+596514350
3648+590402288+580742279+572947450+567621553+563636291+560698268+559303523
3638+559424345+560479502+562651297+567421090+576257456+587924822+595972263
3628+593969809+586174291+581064727+582361637+589606608+599156435+605501536
3618+606501455+605818936+606890725+609269520+611322127+612804248+613434110
3608+612191528+609924984+609406177+612028252+616822376+622397291+628539096
3598+635298342+640961432+642419948+639277104+635840828+636637670+641719633
3588+646542157+646658585+642324945+636606801+632171114+630434128+631099797
3578+632625497+633735382+633944561+633446671+633586487+636436335+642407164
3568+648117682+648983161+645212417+640580987+636749958+633135807+629842906
3558+628108681+628575993+630619121+632885010+634031283+633854352+633087362
3548+631684918+629028633+625916512+623819128+622329453+620110338+617747994
3538+617203910+618645576+619947425+619853513+619675275+620867741+622567540
3528+622739822+620538357+616347510+611040824+606424938+604697576+606227489
3518+608789352+609945467+609730913+609651526+609867605+609222382+607352480
3508+604920846+602236126+599467008+597546482+597223162+598008819+598938431
3498+599221077+597975517+595135365+592820304+593453543+596363748+598081523
3488+596358228+592769244+590304852+589661263+589123680+587304838+584740651
3478+582672791+581635357+581314253+580792031+579196060+576732939+574696311
3468+574264661+575821267+578959426+582051936+582712013+580404215+577429767
3458+575747800+574560635+572330771+569626877+568325390+569070554+570809283
3448+572036795+571903842+570683413+569291137+567966263+565706220+561675309
3438+556766245+552949561+551393355+551665651+552647631+553941419+555906940
3428+558275204+559791825+559824655+559096232+558076048+556166525+553389563
3418+551284444+551105625+552122177+552280987+550274029+546844762+543984927
3408+542944733+543312322+543871295+543849070+543219281+542320573+541577442
3398+541330858+541532919+541517594+540447657+538351653+536378106+535543532
3388+535679752+536026351+536298901+536751614+537482288+537952106+537374903
3378+535733500+534152236+533743792+534288856+534656663+534285297+533549503
3368+532936782+532708791+533279676+535081958+537675016+539449734+538781269
3358+535594047+531506302+528497717+527686531+529020048+531348328+532871995
3348+532562547+531371897+531105121+532019154+532537780+531476377+529446105
3338+527746815+526947068+526796394+526819055+526860818+527251104+528120251
3328+528596206+527582522+525485174+524002617+524006213+524656302+524735107
3318+523997824+522980581+522223832+521928911+521941004+521927023+521713195
3308+521378835+521101782+521059147+521280165+521521484+521503544+521277478
3298+521161921+521311143+521363365+520737861+519509878+518519691+518432460
3288+519335634+521050322+522953671+523906054+523424542+522548641+522540433
3278+523266169+523636808+523063708+521862235+520647834+519886255+519807849
3268+520191054+520322953+519703005+518711511+518201564+518486825+518962417
3258+518722442+517482983+515904733+514922717+514775892+514947557+515022767
3248+515133058+515464840+515743600+515443704+514346494+512791923+511405711
3238+510485577+509838901+509286392+508998154+509147739+509393052+508992162
3228+507555544+505611158+504205191+503888554+504198328+504263042+503887973
3218+503599698+503551361+503143171+502038117+500756132+499679513+498279066
3208+496131348+494070208+493348467+493982686+494698980+494433983+493285532
3198+491963563+491017645+490697121+490880770+490927109+490122423+488470271
3188+486580759+484784651+482985783+481402086+480650203+480841261+481225591
3178+481007478+480132231+479097121+478217007+477226057+475659029+473613214
3168+471860539+471001634+470758136+470347440+469289924+467563942+465328194
3158+462970716+461178276+460428899+460480867+460653077+460395343+459485632
3148+458198163+457285583+457182918+457270294+456556252+455005893+453471804
3138+452467962+451718985+450832624+449894804+449263599+448992066+448661628
3128+447835370+446563336+445334227+444615936+444528088+444816291+445035420
3118+444840186+444134824+442925725+441247426+439409409+437994000+437280576
3108+436994552+436840464+436748513+436452393+435591563+434434141+433729142
3098+433711239+433878546+433714543+433181209+432524728+431862545+431100385
3088+430265012+429688934+429630938+429871821+429936172+429655451+429279147
3078+429005652+428654950+427962916+427000764+426021980+425018102+423754856
3068+422191750+420626212+419489526+419100257+419452266+420075555+420245694
3058+419550464+418211681+416733083+415383332+414234263+413420934+412940185
3048+412431800+411631363+410858308+410575408+410593421+410212177+409162722
3038+407921157+406947784+406142154+405293598+404533581+404029735+403713061
3028+403516157+403393591+403016088+401988568+400530088+399471990+399322768
3018+399565394+399155607+397663208+395624002+393823173+392656418+392165791
3008+392231704+392596497+392892217+392735986+391911544+390626182+389471448
2998+388859707+388625325+388386476+388082113+387901224+387841521+387623626
2988+387031024+386140342+385134467+384036966+382804988+381615173+380793564
2978+380430006+380302537+380200345+380034054+379623395+378749164+377518348
2968+376360418+375553953+375004313+374531735+374095618+373627181+372932459
2958+371969291+371009645+370335006+369926090+369550439+369039221+368428498
2948+367867382+367396148+366885511+366249476+365593539+365078654+364789180
2938+364719054+364705109+364452605+363804549+362890117+361924842+361053589
2928+360418244+360082468+359791796+359088104+357855218+356569021+355829957
2918+355748102+355894600+355796147+355388720+354962953+354697485+354373766
2908+353677700+352662927+351698234+351027698+350577745+350150744+349653725
2898+349117086+348573547+348024380+347486724+346959600+346402333+345835879
2888+345335847+344878267+344379469+343855323+343344323+342826387+342397606
2878+342265380+342395717+342425678+342050681+341283400+340316927+339393089
2868+338812108+338760358+339002621+339016603+338610483+338116370+337781901
2858+337393176+336770832+336177867+335887050+335723012+335318562+334575759
2848+333737226+333167830+333035641+333029031+332556090+331471518+330390432
2838+329977776+330123802+330122240+329540570+328657623+328051003+327907011
2828+327839210+327401313+326607631+325792849+325178022+324786356+324559927
2818+324346971+323964565+323426147+322974596+322780234+322656106+322183819
2808+321175801+319903222+318774163+317943547+317321094+316774069+316244838
2798+315792633+315513111+315361746+315151841+314754727+314203671+313609871
2788+313027401+312382287+311574151+310672683+309883141+309267261+308664491
2778+307969007+307301994+306775741+306265068+305616177+304921492+304347702
2768+303859127+303340954+302819641+302355089+301850408+301102592+300030313
2758+298871748+298062213+297763280+297668169+297415683+296956451+296400892
2748+295796415+295162141+294568595+294108691+293772461+293355374+292644528
2738+291720454+290886897+290345065+290061456+289792392+289217876+288304188
2728+287456922+287055614+287003410+286930233+286619061+286091755+285489439
2718+284980309+284641828+284351265+283866140+283097933+282280791+281737779
2708+281488598+281271211+280934400+280548472+280126809+279541543+278782469
2698+278038740+277421116+276817820+276157616+275627333+275429538+275436003
2688+275280898+274766720+274025932+273298526+272707468+272284152+272052094
2678+271959906+271829805+271512840+271043386+270554284+270109470+269677947
2668+269216210+268766511+268483538+268483266+268641094+268640568+268248702
2658+267490500+266598837+265853619+265427707+265337280+265488209+265686602
2648+265661090+265262905+264646971+264096768+263693935+263307807+262865280
2638+262454802+262143503+261848818+261487712+261151355+260978946+260906060
2628+260705033+260271495+259734439+259286665+259016257+258892965+258829503
2618+258725748+258491893+258108779+257712700+257528198+257608456+257712138
2608+257550114+257105718+256615055+256280023+256113424+256042881+256035036
2598+256059550+256025867+255850952+255551110+255210649+254914457+254755194
2588+254813481+255024040+255147605+255037695+254854572+254809287+254813626
2578+254651730+254377782+254248171+254341157+254478704+254474110+254312867
2568+254112041+253977001+253943463+254038193+254292440+254677206+255111325
2558+255496618+255697209+255617949+255337246+255014326+254700121+254363238
2548+253998354+253623811+253280626+253025435+252828458+252560102+252158123
2538+251723422+251413576+251295186+251304210+251331066+251322859+251266315
2528+251124447+250878498+250588498+250340915+250161805+250018884+249899551
2518+249859022+249946907+250096782+250174425+250118807+249939444+249643415
2508+249277570+248962966+248779099+248689090+248637667+248628606+248650904
2498+248641189+248595304+248606435+248692522+248683170+248396493+247860817
2488+247276186+246808039+246477783+246215674+245973629+245769588+245623871
2478+245488431+245262256+244871752+244364238+243917699+243669771+243540232
2468+243345144+243059447+242802004+242600070+242358969+242041351+241717814
2458+241465818+241336243+241353729+241429502+241352749+241017408+240601465
2448+240369280+240339029+240312264+240184178+240014801+239823998+239556041
2438+239250934+239040902+238961188+238908494+238785202+238603187+238444541
2428+238352154+238297208+238277271+238352898+238500794+238547751+238367661
2418+238052621+237825211+237857587+238167252+238603169+238949222+239083936
2408+239039594+238943502+238921495+238995616+239059404+239006674+238877462
2398+238818703+238909039+239091871+239297654+239555025+239937939+240469657
2388+241116060+241804754+242463032+243110126+243848517+244705898+245616444
2378+246615238+247879937+249506268+251410507+253509035+255795515+258147328
2368+260237449+261763077+262643972+262970433+262982907+263140736+263848386
2358+264979279+266035779+266945926+268364476+270910325+274323504+277757837
2348+280667969+283162557+285661031+288137171+289837097+290009270+288566225
2338+286014112+283079448+280328579+277888029+275490767+272912343+270324696
2328+268001899+265823640+263490239+261101929+259067026+257557577+256450272
2318+255563239+254627816+253365842+251841013+250451914+249483190+248874446
2308+248389339+247837102+247182346+246526065+245954599+245420012+244806874
2298+244099696+243437277+242978082+242738216+242605245+242463940+242256105
2288+241997119+241774103+241639571+241514990+241297004+241009800+240756407
2278+240579476+240454949+240365249+240297266+240194092+239964703+239539736
2268+238923293+238248508+237762839+237638965+237783230+237927676+237899895
2258+237723000+237503326+237310089+237141766+236966723+236794078+236684586
2248+236666028+236663232+236576746+236435641+236377463+236457448+236606125
2238+236783710+237006035+237222750+237349764+237414733+237546179+237844132
2228+238310608+238855564+239372029+239849818+240387329+241057755+241815921
2218+242594568+243443142+244470589+245677128+246953720+248213171+249422088
2208+250581526+251762443+253080871+254584764+256201926+257812042+259381594
2198+260995142+262684900+264337814+265885050+267396260+268876112+270206179
2188+271346768+272379881+273363695+274289403+275131839+275873154+276487999
2178+276905831+277056578+276978790+276790038+276571871+276330588+275970190
2168+275333084+274394301+273317065+272255118+271224039+270138178+268922542
2158+267646912+266451922+265323226+264162227+262997107+261926335+261066884
2148+260561005+260423967+260791501+262482312+266492341+272768551+280293099
2138+288278277+296493715+304770200+312957784+321127210+329492088+338274489
2128+347540762+357120767+366836485+376589099+386141831+395159668+403358510
2118+410409190+416046459+420331327+423576001+426307169+429426807+433981283
2108+440658492+449601881+460520851+472727689+484920327+495245787+502310450
2098+506028718+507014801+505873867+503331614+499963903+495668249+489866433
2088+481851821+471064097+457516079+441616721+423848006+405143832+386743584
2078+369410659+353540935+339519831+327370445+316876080+308168199+301352590
2068+295973000+291489957+287638918+284176205+281015620+278348477+276212925
2058+274475903+273150230+272203967+271550627+271452393+272289926+274132283
2048+277028506+281229811+287002520+294759344+305069515+318173862+334000334
2038+352525653+373334293+395155746+416414883+435728328+451876704+464165362
2028+472718137+478218714+481687746+483959047+485066389+484703195+482887222
2018+479608702+474576418+467726891+459435334+450169388+440173748+429392525
2008+417735835+405398043+392743176+380068155+367662706+355853890+344856078
1998+334778655+325835956+318283790+311970538+306220254+300506395+294984465
1988+290007672+285604851+281746512+278555296+276001567+273830589+271872621
1978+270138613+268673433+267449681+266348422+265346504+264723652+264716879
1968+264922317+264518340+263258127+261781162+260783221+260334648+260134911
1958+260030322+260021660+260032918+259960959+259837921+259796702+259942038
1948+260350863+261198311+262613176+264077321+264378288+262969071+260882128
1938+259447435+258923415+258853072+258943970+259160540+259423230+259602630
1928+259806562+260520004+262035845+263759013+264866409+265586080+266539861
1918+267156412+266387189+264717569+263720736+264115725+265307120+266245212
1908+266369013+265951163+265644294+265754458+266081028+266363402+266685596
1898+267349504+268314215+269060161+269452081+270186950+271548357+272445740
1888+271820926+270274380+269068604+268595173+268532128+268560636+268558094
1878+268554154+268605831+268756179+269462522+271715610+275849458+280064236
1868+281275896+278711309+274854005+272178673+271212109+271227979+271404002
1858+271353269+271160922+271094065+271266674+271752434+272800400+274672045
1848+277568686+281481516+285158203+285962798+283165045+279529595+277600553
1838+277453256+277856634+278254601+279551039+282791827+287104749+289858360
1828+290005911+289108674+288070205+286284974+283983585+282525287+282462334
1818+283079975+283642489+284358510+285929042+288317389+290335223+290863073
1808+290191485+289590385+290183586+292439126+295805857+298673354+299660382
1798+299282207+299605164+302297637+306898561+310143344+308886381+304744851
1788+301836136+301855528+303714826+305897080+307934216+309596900+310441170
1778+311014960+313112526+318124872+325207910+330658806+331132183+327775875
1768+323639611+320580657+319963433+322359805+326018080+328176366+328775831
1758+329565845+330660985+331724748+334320858+340040273+347364521+352198520
1748+352687767+351006562+349895516+350520947+352659877+355062386+356396847
1738+357553724+361382647+368391456+373412227+371339465+365421475+360238590
1728+356845312+355400777+355877241+357501030+360208229+365655821+374991675
1718+385429351+390248352+386778811+379785908+374119187+371768573+373259991
1708+378151878+384414542+389433970+393588246+399966575+408911925+415442854
1698+416211297+413069651+407098313+400154292+396275217+397106159+401219326
1688+407531742+417131540+429185924+435780187+431548377+423720756+419517671
1678+420551728+425337718+430613245+434148300+437420791+441895264+444820394
1668+443159309+440173785+440851365+445345485+449411150+450071917+449825514
1658+453009358+462186839+477847929+495004142+501007438+496842558+495987356
1648+501324584+506158293+504119377+498802668+496414285+498789122+505870599
1638+517304745+530081523+536663185+534059340+529733472+530047386+535527117
1628+543695599+552445860+561567705+570543670+577557526+583050730+590521513
1618+601822706+613302937+619060593+619902466+620496448+622374194+624372436
1608+625386374+625711110+626469021+628465375+631785948+636268047+641948859
1598+648860268+656681462+664802770+672651491+679900057+686351926+691847018
1588+696496388+700674814+704535622+707942845+711115904+715119433+721433810
1578+730463159+739483283+744254674+746488533+752210018+763523995+776657105
1568+786601466+794501320+804742673+818713007+836267132+859157940+886528450
1558+905040296+906853908+902805565+899037944+895397500+891988607+889419335
1548+888222874+889490659+893964841+900891794+907993499+909791931+899844300
1538+883688480+872124360+866695943+863051069+857573335+851721621+849094172
1528+850506131+853933328+857504844+861177899+864302149+864744548+862470597
1518+859088649+854396282+848411579+843712384+843206868+848037599+857524091
1508+867729564+869474249+859132446+847410352+841972639+842809065+847394155
1498+851653420+851092196+845871215+841550939+842227213+846806638+850098813
1488+848022927+842390343+837318039+834406019+832894264+832181675+833371236
1478+837878611+845130009+852340952+855873973+853185077+845947405+839366615
1468+836814993+837973104+839989214+840344963+840412801+843781094+851642671
1458+859744368+859478536+849995385+839843006+833710135+831553556+831737823
1448+831686690+829429516+825586576+822169329+820427114+820979260+824166990
1438+828708647+830836028+828209377+823787345+820970181+819629473+818040293
1428+816002176+814882777+815178315+816166905+817820001+820880118+824084045
1418+823710355+818853477+812935232+808666017+806193635+804631256+803754084
1408+804014831+804970664+804948221+803422811+802274650+803194021+805685069
1398+808214393+809782147+809660271+807441883+804490714+803155163+803946412
1388+804674399+803007866+800109355+799345343+801887450+806267429+811225919
1378+817020036+823781607+829974254+833509890+834413137+834806655+836057299
1368+837885365+840148204+843506764+847517702+849746622+848534036+845369475
1358+842643900+841044769+840068600+839515437+839630050+840336756+841153644
1348+841739636+842093716+842488178+843555791+845949584+849393559+852410605
1338+853637354+853348643+853072134+853997679+856312232+859759911+864178603
1328+869216624+874059993+878059091+881429490+884936437+889082397+893820232
1318+898842274+903821392+908326878+911898830+914609443+917234205+920306887
1308+923369982+925785347+927732020+929688717+931656817+933568046+935588368
1298+937418831+938225114+937714441+936351291+934419725+931903910+929154656
1288+926765438+925072032+924267563+924322255+924408977+923325821+920923312
1278+918261071+916204434+914719189+913533260+912808033+913001523+914362205
1268+916652498+919263897+921812105+924485386+927335597+929525949+930091242
1258+929441479+929132213+930008296+931438994+932403978+932629790+932466006
1248+932190514+931552590+929836087+926710093+922922498+919562921+916755054
1238+913770329+910359765+907193606+904910067+903334759+901793443+899913809
1228+897981444+896509927+895567458+894749045+893828584+893173084+893368463
1218+894545313+896080456+897108484+897575796+898436699+900419253+903082510
1208+905492573+907196366+908197376+908910255+910277619+913012273+916766603
1198+920408063+922816020+923558315+923442541+924095790+926300668+929041133
1188+930797148+931598276+932922350+935643132+939098510+942191529+944567383
1178+946485439+948205284+949774491+951071329+952110615+953407816+955587492
1168+958674845+962185859+965542168+968184289+970049034+972066305+975154385
1158+978632061+980594931+980120283+978441040+977577014+978306308+979674979
1148+980349581+980289370+980759006+982842517+986552833+991190508+995521170
1138+997928183+997979025+997294545+997327156+997612671+997470168+997533358
1128+998598428+1000712082+1003840181+1007743188+1011278824+1013496196
1120+1015040708+1017191549+1020200169+1023157730+1024762744+1024344459
1111+1022646403+1021338162+1021679967+1023890075+1027238103+1030396781
1103+1032335175+1033316864+1034384694+1035820114+1037204836+1038873984
1094+1041707417+1044872123+1045830353+1044167814+1042754983+1043497061
1085+1045048182+1045851924+1046381917+1047374356+1048762056+1050733134
1077+1053255849+1055027553+1055083915+1054486738+1054875825+1056003649
1068+1055694747+1052702323+1048609675+1046413512+1047800922+1051723612
1060+1055842480+1058815075+1060342083+1060358861+1059399034+1058942907
1051+1060435487+1063928561+1067941314+1070435267+1070629412+1070343098
1043+1071665502+1073645441+1073711100+1071606888+1069179030+1067439357
1034+1066647236+1067773753+1071006079+1073741823+1072851504+1068774254
1025+1064800214+1063022627+1063038315+1063947082+1065888889+1068957431
1017+1071629913+1071578489+1068373836+1064247124+1061671605+1061321957
1008+1062433874+1063899000+1064570988+1063889485+1063063809+1063891664
1000+1065883442+1066362448+1063629028+1058354881+1052375989+1047720155
991+1045531764+1044955504+1044352081+1043505196+1043160268+1043258611
983+1043014641+1041874252+1039626230+1036207313+1031893574+1027485051
974+1024131575+1022561860+1022138054+1021241126+1018901661+1015542592
965+1012154689+1009152969+1006294260+1003503752+1000851171+997999290+994786574
955+991831047+989599658+987706005+985528000+982346661+977525663+971893442
945+967795056+966761798+968083985+969806517+970404929+969525795+967664392
935+965592356+964187805+963990029+964287456+963584018+961571831+959405883
925+957990583+957332031+957059953+956638908+955871409+955661431+957206451
915+960118181+962350297+962389954+960893161+959771801+959991584+960710275
905+960396433+958444966+955683002+953476598+952593615+952787905+953309400
895+953700522+953869318+953558599+952357127+950455703+948896229+948669400
885+949705926+950894398+951039080+949878354+948116818+946508027+945478401
875+945370398+946028513+946357535+945406496+943789933+943041101+943682075
865+944422410+943302938+940026670+936831168+935959370+937027491+938003733
855+937726789+936598093+935770310+936096136+937340025+938527044+938956297
845+938723295+938509758+938580428+938208554+936756357+935168629+935174731
835+936842571+938435819+938699036+938378149+939546211+943360245+947931099
825+949562334+947430885+944939547+945325366+948389913+951430347+952089552
815+951399769+952904479+957343798+960667349+959369930+955363714+952981686
805+954084816+957288961+959617241+958984982+956317948+954381806+954295084
795+954794863+954495620+953162757+951269613+949578312+948676010+948668528
785+949594800+951441387+953401715+954342440+954464098+955208936+957098739
776+958790257+958829042+957698603+957201875+958378508+960849873+963330824
766+964444195+963834162+962499628+961949443+962903750+964615606+965311344
756+963620479+960204468+957442068+956813514+957579996+958663369+960103873
746+961414438+960790169+958220607+956655322+957546367+958198672+955851363
736+952186442+950650138+951719276+953756012+956249892+959483163+962466145
726+963803874+963677931+963232699+963330243+964717653+967440759+969821479
716+969815596+966806467+961335778+954839095+949968562+949223943+952585335
706+957425072+960891854+961455766+958816622+953888855+948752418+944862194
696+941741067+939066044+938006493+939115796+940535309+939671428+936201088
686+932095294+928787939+926054592+923895907+923290014+924014297+924375131
676+924056278+923282388+919613691+909949977+895785426+885949648+889063367
666+899597498+907128819+908849680+907363492+906389719+908011075+911693718
656+914719988+915409262+915111182+915744167+916453923+913113812+902492596
646+887082702+874086721+868904090+870371250+872713765+871968274+869712844
636+870345030+875017859+879155248+878056695+873014170+867654100+862480693
626+856718824+852138164+851565100+854654124+857793337+858328196+857155558
616+856689045+857183812+856293566+852988608+849281997+847988573+851496536
606+859311629+864783842+860338931+848468377+839266383
##END=
