##TITLE=<SNM>
##JCAMP-DX=4.24
##DATA TYPE=INFRARED SPECTRUM
##DATE=2/5/2025
##SAMPLING PROCEDURE=Instrument type and / or accessory
##ORIGIN=Admin
##XUNITS=1/CM
##YUNITS=ABSORBANCE
##RESOLUTION=4
##FIRSTX=4497.3318
##LASTX=599.83466
##DELTAX=-1.4281778
##MAXY=1.7426572
##MINY=0.19142596
##XFACTOR=1
##YFACTOR=1.622976e-09
##NPOINTS=2730
##FIRSTY=0.2159154
##XYDATA=(X++(Y..Y))
4497+133036718+132589851+132217325+131636171+130973698+130497157+130237985
4487+130240886+130629690+131098702+130993704+130256641+129620840+129628534
4477+130022534+130228353+130138982+130280853+131096251+132131571+132346397
4467+131398043+130176442+129822445+130581984+131709659+132220649+131800794
4457+131159309+131270027+132148428+132766243+132400016+131552970+131135566
4447+131229005+131202728+130656096+129748562+128924854+128646585+129106811
4437+130029090+130872703+131149861+130599805+129443244+128375532+127879802
4427+127749766+127635715+127627957+127889222+128171439+128093710+127558784
4417+126750208+126014402+125697755+125837119+126085274+126067315+125688757
4407+125089433+124486529+124053094+123826424+123746610+123718929+123514634
4397+122800763+121617870+120672445+120666817+121388419+121938760+121928697
4387+121924244+122448519+123114197+123204468+122646249+121873581+121128806
4377+120456352+120023900+119954195+120122003+120438045+121003526+121718976
4367+122070366+121666477+120850050+120358552+120353401+120286460+119836306
4357+119309019+118942462+118592945+118279153+118334049+118943086+119956968
4347+121026920+121729764+121831760+121503048+121119670+120950715+120981720
4337+120826298+120089299+119037930+118472908+118703351+119123207+119074619
4327+118691975+118512737+118593670+118512663+118147611+117947503+118322306
4317+119114760+119807926+120069036+120022945+120011560+120152761+120331394
4307+120423162+120245034+119712431+119285956+119661621+120787295+121788158
4297+122009686+121641999+121358212+121685822+122558540+123345044+123458838
4287+122860635+121961475+121261862+121068539+121381817+122014846+122690825
4277+122976173+122509878+121514268+120677780+120375510+120403596+120526269
4267+120842714+121493151+122283227+122740450+122542197+121955112+121741975
4257+122357596+123390088+124126564+124408551+124619365+125156393+126100680
4247+127096878+127592131+127397550+126782333+126059566+125427152+124989852
4237+124585881+123927787+123118650+122596257+122520869+122659792+122822137
4227+123140630+123925886+125124846+125977502+125771913+124929475+124545482
4217+124902969+125334402+125422314+125417677+125516423+125509849+125201235
4207+124751917+124596751+125090554+126102828+127019488+127360733+127247389
4197+127030488+126736913+126244139+125748207+125642373+126030571+126613543
4187+127054075+127346740+127718347+128150561+128295122+128013538+127663140
4177+127661515+128071142+128703032+129328165+129749802+129883620+129814824
4167+129769799+129998755+130514381+130969640+131064630+131025637+131342303
4157+132054457+132604926+132477039+131803172+131165277+130873070+130702930
4147+130343304+129808011+129377698+129355241+129806093+130373263+130545579
4137+130247588+129916875+129899063+130049243+130091643+130144922+130544285
4127+131173191+131407812+130885134+129988444+129398669+129423504+129890984
4117+130470696+130957741+131360647+131754051+132006080+131855010+131374658
4107+131009212+130948247+130972963+131093184+131630506+132525434+133289490
4097+133653863+133655433+133288205+132643654+132106093+131987322+132252306
4087+132763755+133456601+134175604+134612628+134544135+134061075+133479031
4077+133070992+132975469+133254105+133834295+134437760+134742701+134591318
4067+134033283+133293815+132638595+132177175+131881094+131752903+131814336
4057+131989306+132146592+132234816+132297488+132362694+132418517+132552785
4047+132956619+133590924+133994648+133710291+132852548+132056210+131871352
4037+132235945+132573673+132517914+132409326+132780465+133521843+133982308
4027+133785459+133204250+132869029+133283899+134372655+135397949+135629549
4017+135163474+134750615+134820403+135003425+134659692+133768217+133152357
4007+133601960+134867742+135963053+136431240+136745463+137389803+138100360
3997+138256948+137694873+136843805+136222317+136083761+136456892+137212437
3987+138057896+138644026+138707175+138167733+137263422+136548963+136571632
3977+137425996+138585100+139286144+139257608+138919871+138695093+138475088
3967+138099157+137954220+138591068+139893538+141011574+141214354+140624643
3957+139962472+139765559+140096676+140860659+142008240+143241318+143923678
3947+143868819+143823629+144347720+144774296+144236598+143128662+142427655
3937+142505063+143481200+145489508+147810901+148853933+148026746+146744208
3927+146680177+147884673+148988807+149052242+148811570+149540829+151184195
3917+152098927+150726751+147400686+143998690+142152351+142350237+144563244
3907+149052912+155765530+163003782+167924635+169086392+166910662+162139906
3897+156358096+152469745+152605693+155895355+158512342+157799316+156274105
3887+157523489+160819182+162780472+163045704+163502680+163198666+160459052
3878+157733008+158445079+162441753+167394263+171714544+173872499+172454839
3868+169626018+168904123+169950195+169396998+166025319+162351298+161244427
3858+164395422+172793668+184921924+192126242+186271000+174203212+164750319
3848+160523285+161209318+165315929+170828063+176342217+181432999+185152983
3838+185477545+182147605+177681726+173978526+171032606+168734323+167759444
3828+168283443+169796149+172997293+179320253+186795495+189720830+187352199
3818+184540713+182090092+177291131+171115753+167498876+168549355+173693572
3808+179950261+184066219+186875796+191020216+194767780+193989952+190094365
3798+187107993+184868048+181771333+178894604+178213309+179831583+182730696
3788+186356644+190426181+194382272+198376669+203606108+210161578+215878475
3778+219285851+222146641+227175173+235720597+247524383+260424370+271398379
3768+279794734+287183157+294348105+301813357+311071330+322528518+333985413
3758+343602065+353428310+367326938+387407574+412075374+434818867+450148616
3748+461281518+472934307+484032283+489926142+491718090+496017107+506473635
3738+521685421+536081827+543872449+544551578+542050606+539980829+539988394
3728+542034447+544382750+544851478+543362662+541396304+539322708+536864595
3718+535030669+535853504+540877005+549407316+556781104+557537319+552941818
3708+548322812+546383594+547449772+550630864+553815591+555620688+557046593
3698+559464124+563168334+568401501+575909006+585718467+595113371+598539789
3688+593615483+584974041+577856671+574544286+575539804+580191349+587486691
3678+596547649+604190966+605123978+600613826+596700134+593364207+586049438
3668+575337447+566413768+561482192+559218944+557875965+557775337+560455713
3658+565024001+567802948+568408515+571799199+581431166+594153549+600730062
3648+596068638+585967723+577472375+573218310+572610797+573784141+575366129
3638+577154075+579491838+582477991+586227336+591737414+599522674+605904101
3628+605462954+600413782+597354142+599613055+607094082+616948862+623691668
3618+624545463+624091389+627664195+634830594+641114037+643663743+643145179
3608+641110071+638434763+636389739+636953990+640889718+645993978+649245876
3598+650990706+653770461+657607470+659994483+660853419+663273337+668096721
3588+671702507+670992969+667444843+663760832+661391595+661414952+663794840
3578+666414619+667180933+666234517+665281342+666285418+670500847+676967918
3568+682302228+683686633+681376451+676865087+671247183+665511171+660308780
3558+656377900+655463214+658902559+664915850+668983422+668648926+666120814
3548+664632770+664779011+665252990+665414950+665634421+665680475+664461188
3538+661552820+657774204+654580626+653681732+656312528+661652787+666526852
3528+668036858+666156805+662897562+660035395+658279915+657623262+657730134
3518+657926909+657459687+656612723+656845269+658909978+661366254+661761862
3508+659470409+656559471+655337319+655682465+655300520+652758085+649360460
3498+647533806+648091373+649314773+648919019+647042271+646226597+648137794
3488+651419366+653263355+652781736+651485693+650315471+648574313+646245327
3478+644895444+645544751+647505674+649477394+650349625+649351279+646843660
3468+644584746+644317164+646361747+649553049+652066544+652688086+651476217
3458+649083329+646155644+643327411+641005917+639465649+639487243+641778696
3448+645241545+647135701+646021228+643170520+640366673+638499841+637929200
3438+638474427+639311255+639611229+639141289+637974886+636163143+633802793
3428+631328374+629744402+630038280+632286176+635689089+639269314+641763344
3418+641581480+638425508+634266930+631505024+630495880+629923035+629321912
3408+629611089+631006659+631869561+630579908+628159255+627589422+630254740
3398+633991930+635281730+633093109+629576493+627323382+627182209+628431905
3388+629800813+630184962+629377000+628156611+627186984+626205163+624801734
3378+623400288+622819584+623411379+624876360+626235646+626316074+625183459
3368+624300871+624460627+624982864+625468743+626569627+628282653+629489454
3358+629868314+630088888+630064061+629238471+628039163+627172293+626368298
3348+625167667+624051064+623760859+624396064+625604187+626788512+627223342
3338+626669007+625583621+624599670+624117023+624183056+624298227+623595301
3328+621842979+620168515+620066051+621897700+624833538+627852597+630117680
3318+630692876+629142251+626341709+623876251+622915511+623618438+625058225
3308+625841067+625244056+623728100+622390630+622213980+623467055+625447075
3298+627171338+628381665+629338218+629523168+627940959+625125359+623230469
3288+623525228+624827662+625188307+624501393+624397753+625857079+627952270
3278+629066155+628863210+628582994+629273214+630381664+630560150+629469622
3268+628005449+626867986+625787594+624355886+623136085+623102150+623984077
3258+624256066+623246555+622293968+622898177+624650498+625949113+625961012
3248+625065130+624119741+624029911+625281076+627312291+628834344+629075043
3238+628300134+627013639+625375020+623575836+622082429+621117797+620263781
3228+618965901+617298636+616043651+615959733+617055293+618594312+619663760
3218+619693581+618756125+617763287+618017208+619902696+622101380+622741799
3208+621315968+618935933+617025692+616281486+616316449+615810334+613760903
3198+610997123+609574597+610339259+612049934+613210057+613515797+612901011
3188+610925545+608011963+605606000+604648602+605086040+606378007+607288800
3178+606366843+603920776+601983908+601596197+601809609+601489473+600539126
3168+599236619+597639609+595991405+594834587+594326490+593921334+593013038
3158+591668590+590494805+589924568+589745421+589306992+588397741+587696871
3148+587750784+587873521+587010324+585308390+583828535+583098248+582747556
3138+582251467+581502854+580740286+580082568+579305529+578247871+577213570
3128+576640909+576522910+576524673+576394921+575747524+573986792+571333924
3118+569329261+569244682+570393346+571100570+570896523+570391143+569696076
3108+568447738+566987935+566285853+566691707+567496143+567687483+566780987
3098+565120589+563758256+563680067+564653771+565207923+564259045+562366799
3088+560940380+560609887+560746689+560424680+559551861+558791973+558466145
3078+558080820+557126985+555722674+554253029+553044686+552480765+552666927
3068+552908654+552319944+551065621+550213589+550310985+550823783+550947144
3058+550323361+549037711+547542100+546531561+546367288+546542432+546051668
3048+544493184+542638765+541606778+541527524+541523154+541035806+540478974
3038+540398765+540668955+540680560+539951191+538620516+537350730+536402404
3028+535210808+533381730+531554892+530590847+530368841+530053295+529269940
3018+528488053+528324037+528807749+529349120+529297374+528483352+527325176
3008+526508180+526365318+526444315+525976064+524837646+523630442+522864017
2998+522432455+521789685+520528567+518967071+518000088+518028697+518336567
2988+517960755+516795932+515401610+514199657+513318208+512792923+512521448
2978+512306530+512086764+511889401+511565078+510822231+509560930+508014601
2968+506543340+505337935+504354242+503488364+502717789+502065397+501550064
2958+501226843+501138041+501131320+500854703+500097900+499055042+498084901
2948+497255088+496255235+494823123+493234304+492184725+492034371+492401810
2938+492682172+492639975+492317231+491740236+490915491+489898231+488789964
2928+487726760+486868889+486370046+486145102+485622131+484220354+482231226
2918+480568037+479613761+479088219+478836539+478931475+479204896+479261270
2908+478803119+477816782+476626103+475625516+474868750+474156202+473422132
2898+472766471+472262597+471831990+471186539+470089658+468790602+467837024
2888+467393784+467124071+466747231+466344278+466082058+465943823+465858290
2878+465814329+465671063+465201454+464514099+464002879+463716457+463319197
2868+462746169+462220222+461608338+460480020+458866300+457422510+456704599
2858+456545945+456275241+455513223+454550060+453814447+453276529+452599641
2848+451618114+450490310+449582896+449251007+449468753+449644668+449092500
2838+447787789+446426778+445641145+445354209+445006198+444208078+442991913
2828+441620508+440435375+439718052+439401956+439049685+438333353+437387451
2818+436538687+435889967+435304085+434621174+433779829+432858092+432056961
2808+431498549+431003453+430248192+429182050+428058323+427008523+425977565
2798+425103424+424565982+424042240+422994570+421549311+420432488+419994977
2788+419834853+419430028+418772788+418216690+417846607+417318273+416453093
2778+415597352+415063767+414613034+413862585+412850540+411856233+410971625
2768+410119336+409288164+408548953+407905962+407241561+406443111+405606503
2758+405007216+404730343+404440725+403759871+402806256+402051326+401656747
2748+401298122+400675808+399845627+398959808+398029734+397048244+396052836
2738+395020995+393965357+393115344+392719039+392655578+392521933+392136315
2728+391676108+391260595+390720657+389928267+389014940+388053135+386903552
2718+385655803+384791394+384543607+384447863+383854526+382643649+381236804
2708+380141832+379614821+379550955+379579197+379314076+378557457+377390650
2698+376200339+375448751+375214185+375107387+374793237+374328329+373806128
2688+373071471+372059830+371045397+370303946+369815680+369420072+369015651
2678+368597311+368256130+368016460+367645605+366884946+365855640+364934380
2668+364279454+363769483+363307219+362919581+362608663+362281255+361846204
2658+361315080+360751710+360143976+359410788+358538336+357633052+356861045
2648+356367858+356172515+356104903+355906879+355389416+354514137+353441531
2638+352460996+351740295+351226725+350857156+350664494+350607936+350518877
2628+350258787+349772247+349036672+348132636+347293384+346740628+346506540
2618+346447485+346382665+346212332+345939939+345580690+345087098+344451710
2608+343837366+343428537+343139911+342654657+341815809+340836082+340081777
2598+339760979+339798182+339897598+339787752+339485281+339204955+338965247
2588+338493288+337651906+336768694+336306613+336277196+336217333+335778243
2578+335110132+334576437+334313335+334185971+334012076+333720034+333352302
2568+332951626+332468465+331844792+331136063+330480182+330022398+329875019
2558+329997755+330141316+330082445+329857537+329619813+329387414+329079874
2548+328693559+328317049+328020012+327785336+327530461+327160121+326617171
2538+325954679+325374012+325085606+325088655+325183517+325200300+325074148
2528+324756142+324284696+323910757+323885012+324116640+324281501+324246098
2518+324145800+324096257+324066032+323985493+323809468+323541078+323286203
2508+323154064+323059386+322782769+322273643+321734219+321331450+320978885
2498+320556945+320203205+320111244+320143783+319985753+319626908+319345847
2488+319243347+319094645+318673770+318046792+317512803+317296453+317329983
2478+317394731+317415223+317451141+317447799+317228107+316767679+316290614
2468+316013924+315920201+315860228+315765843+315636019+315390398+314925894
2458+314343537+313955569+313955201+314180035+314324550+314264577+314033978
2448+313666980+313236667+312887297+312699923+312636021+312623534+312594484
2438+312491910+312314966+312120174+311985134+311963576+311984877+311861957
2428+311533888+311194250+311062148+311148417+311284742+311269464+311026671
2418+310697574+310490809+310441744+310436051+310416036+310422390+310486733
2408+310601977+310763900+310953147+311084808+311053040+310870955+310711603
2398+310734483+310888657+310961410+310824644+310569879+310374279+310279674
2388+310159986+309871727+309333698+308421620+306911374+304687956+301976419
2378+299194534+296575857+294103678+291799996+289816689+288153464+286542480
2368+284804665+283180093+282090520+281660905+281739442+282320624+283646066
2358+285904301+289086384+293248194+298784346+305894463+313538991+319676194
2348+322740718+322748210+321324509+320196264+319344048+317652801+314806205
2338+311400133+307914863+304380747+300849845+297768830+295708143+294757172
2328+294346636+293750636+292739527+291736075+291320379+291607701+292215252
2318+292776491+293271147+293858535+294579420+295308679+295976478+296724136
2308+297705056+298773053+299556390+299876086+299910277+299908257+299946874
2298+300022823+300169119+300406806+300723270+301091572+301408899+301527394
2288+301456477+301400452+301522803+301782067+302007176+302064138+301982350
2278+301932789+302031635+302206376+302295821+302210140+301973187+301670422
2268+301374120+301132466+301028074+301149984+301456257+301761005+301907870
2258+301888020+301781792+301668732+301606317+301631437+301746572+301926802
2248+302157347+302430144+302678097+302780304+302708065+302624312+302741595
2238+303096933+303566707+304072051+304620363+305168656+305649357+306129947
2228+306741813+307444298+308058055+308554346+309133434+309954249+310918331
2218+311835771+312721114+313773080+315107869+316655776+318288079+319940324
2208+321627237+323375262+325157809+326948252+328810052+330848502+333090596
2198+335434859+337670526+339598065+341214796+342719734+344308774+346026133
2188+347773975+349428239+350977762+352485088+353892520+355022124+355797180
2178+356339909+356851863+357432420+357974306+358234359+358009231+357279716
2168+356285996+355358163+354530333+353532757+352252359+350839013+349349353
2158+347660933+345660825+343305433+340634459+337732408+334627963+331414957
2148+328312384+325437474+323057990+322113630+323546329+327056996+331403902
2138+335795504+340215788+344768651+349442672+354192862+358913340+363586039
2128+368388489+373416397+378500789+383452234+388348739+393523402+399247552
2118+405418579+411650166+417629853+423271738+428703406+434339709+440838401
2108+448859109+459021576+472070339+488681220+508904424+531984030+556587010
2098+580661399+601476949+617189267+628333040+636708296+643353853+648131697
2088+650402583+649716698+645827318+638049953+625723618+609437280+590317017
2078+568776762+545378049+521618434+498990185+478351946+460099360+444090189
2068+429848729+417171408+406100829+396591452+388599243+382024934+376541409
2058+371953803+368354702+365591877+363197887+360938092+358883740+357169906
2048+356010445+355566580+355782930+356670696+358500288+361630295+366593088
2038+374287857+385692088+401420308+421515009+445350756+471766361+499385535
2028+526656955+551875455+573674772+591409601+605235146+616151918+625265210
2018+632740471+638144411+641370014+642426607+641000702+636795850+629816017
2008+620284201+608570080+595049321+580002323+563744300+546717723+529379382
1998+512150704+495544046+480049730+465638965+451711801+437945642+424807563
1988+412855498+402156140+392656900+384458587+377483088+371374458+365889170
1978+361070781+356958037+353331942+349905451+346755319+344338963+342846658
1968+341692999+340033629+337788268+335663623+334143516+333017622+331944833
1958+330922504+330024565+329160634+328280433+327482461+326865142+326488925
1948+326478826+327046786+328239631+329446322+329496819+327926105+325706635
1938+324072790+323347791+323171435+323122554+322956371+322694481+322567190
1928+322822690+323681626+325094494+326390354+326956588+327275439+328018286
1918+328438059+327301698+325131477+323696537+323833743+324870872+325572587
1908+325295199+324418046+323717434+323483419+323463624+323475816+323738551
1898+324526754+325585147+326225640+326406109+327060925+328532003+329542653
1888+328904841+327340847+326244627+325929889+325927796+325901427+325805977
1878+325746372+325864334+326292407+327490467+330330783+334955812+339346311
1868+340326001+337347929+333225158+330501923+329532039+329450655+329506111
1858+329459984+329411175+329523225+329833960+330387340+331404196+333188212
1848+336104512+340257802+344256110+345166058+342164298+338180386+335886767
1838+335377714+335430526+335582202+336934803+340636846+345523508+348397941
1828+348133150+346864210+345853230+344189967+341641583+339579665+338929917
1818+339233270+339708425+340439667+342128343+344710882+346770780+346983678
1808+345786793+344787602+345262022+347609114+351163190+354176188+355068986
1798+354310016+354231056+356817305+361626255+365028140+363486072+358691555
1788+355099431+354612010+356209460+358356324+360460770+362117863+362800370
1778+363143827+365106770+370149625+377257997+382356859+382052625+377988468
1768+373497340+370235673+369350367+371424295+374748432+376521247+376703038
1758+377137060+377989643+378932351+381504570+387179214+394213621+398389277
1748+398038732+395566149+393740303+393731415+395429053+397642867+398904426
1738+399990657+403902292+411399992+417285404+415988258+410495112+405479911
1728+402063445+400530632+401123896+403278693+406958664+413834417+425106949
1718+437664545+443911189+440940388+434247712+429075620+427360538+429669288
1708+435747325+443611068+450417961+456333121+464565771+475660406+484369276
1698+486845458+485017812+480240372+474450630+471808559+474118852+479950498
1688+488148737+499915411+514469370+523271082+520371272+513585533+510700890
1678+513374839+520024105+527292784+532969890+538746227+546166436+551931278
1668+552120451+550002417+551318990+556777542+562137963+563850841+563943169
1658+566936666+575900008+591484558+607829143+611315387+604472907+601805459
1648+605318109+607411060+602120380+593991736+589202691+589325208+594373572
1638+603815704+613726675+616013279+609051662+601405702+598844831+601027466
1628+605074729+608951475+612483626+614902149+614808278+613977363+616256072
1618+622196058+626994028+626025796+622151033+620169838+620878126+622343989
1608+622893182+622889803+623685205+625525227+627270057+627917381+627751014
1598+627803825+628640213+629905040+630922337+631492831+631868166+632173575
1588+632297708+632306522+632559634+633272109+634450484+636721885+641481366
1578+648843511+654920704+654772480+651406806+651649488+656518632+661180497
1568+661466001+659427367+658821322+661514919+669553549+685293815+704625544
1558+711177231+702073047+692490329+688506638+689153962+692786704+698124612
1548+704809245+713884416+726265399+741348645+757663592+770849084+771582566
1538+760857685+751771716+749754824+751220319+750778585+748563154+748733414
1528+752726654+758535530+764572765+771680917+779672318+785307850+786939638
1518+786208800+783705882+779883269+777691049+780188165+788215704+800872935
1508+814102277+817327513+805603550+791659309+784937289+785379979+790073795
1498+795081761+796328886+793661732+791855717+794644433+800673516+804426864
1488+802220468+796747777+792433189+791009708+791949220+793985945+796505022
1478+800090755+805675238+813154832+819853421+820853751+815250685+809031511
1468+807220428+809524514+812099561+812088103+811806565+815780414+825480286
1458+836538929+839216146+830889588+820252995+813452823+811598478+813319803
1448+815360788+814885266+812410920+810458738+810462411+812596311+816912515
1438+822585286+826248584+825084825+821844459+820456968+820690690+819880525
1428+817604203+816263501+817187148+819417195+822182774+825826828+829083207
1418+828451307+823388694+817484919+813443568+811465752+810563185+810033089
1408+810102133+810933819+811629034+811668844+812409745+814960626+818035434
1398+819765794+820130772+819530163+817515915+815012116+814565166+817002639
1388+819625209+818771193+814989272+812826726+815166730+820957097+827523033
1378+833345424+838336496+842303367+844443804+844851898+845161495+846628532
1368+849014002+851930964+855650966+859599106+861650668+860480666+857318084
1358+854166667+851820493+849833642+847727360+845959320+845241777+845297085
1348+845206226+844740620+844516521+845161127+846883187+849245153+851017086
1338+851037799+849539104+847937430+847405718+848070891+849363629+850765736
1328+852021308+852998501+853917521+855513759+858358592+861961880+864971683
1318+866521354+867103453+867775824+868908513+870070068+870760508+870829184
1308+870417124+870025263+870498581+872359978+875121590+877642063+879123718
1298+879461519+878942734+878084312+877403714+876911152+876134774+874750442
1288+872764546+870177012+866947517+863230967+859453747+856283599+854360431
1278+853728384+853649645+853248088+852351618+851645386+851967322+853336523
1268+854780791+855310153+854859163+854128986+853772088+853812633+853778478
1258+853441338+853145403+853189401+853476300+854097402+855408651+857086566
1248+858084840+858049510+857870583+858446953+859675789+860890009+861764443
1238+862553087+863643909+865146791+866995407+869194531+871652717+873971200
1228+875825765+877402466+879072816+880927014+882928923+885155958+887574555
1218+889898766+891959876+893979633+896203217+898421659+900183235+901490297
1208+902912897+904969820+907881640+911771314+916354365+920554737+923353883
1198+925104956+926953425+929056990+930679377+931692781+932813717+934625755
1188+936913461+938772875+939498204+939490344+939774306+940658510+941766299
1178+943189192+945497538+948733351+952215959+955257861+957691074+959795300
1168+961760776+963198654+963555038+962909183+962215585+962865113+965948955
1158+971201440+976511510+979604607+980243411+979815411+979438534+979660650
1148+981224864+984463394+988072191+989959663+989835677+989692374+991184606
1138+993703316+995511974+995764719+994859729+994064695+995200689+999204946
1128+1004849659+1010001589+1013551405+1015264431+1015195460+1014309053
1120+1013975291+1014640905+1016105372+1018111908+1020296415+1022428038
1111+1024274598+1024910243+1023362042+1020315219+1017923726+1017711232
1103+1018946018+1019402369+1018090754+1016798676+1018209304+1022577217
1094+1027587827+1031123247+1033152406+1034902230+1036963193+1038694361
1085+1038994261+1038224201+1038916477+1042934176+1048319900+1050503380
1077+1047799279+1043908871+1042949600+1044516899+1045797959+1046400918
1068+1047173623+1046113357+1041261769+1036135693+1036417525+1042435002
1060+1048849115+1051546091+1051266389+1050429708+1050627439+1052959436
1051+1057607418+1063269833+1068348019+1072018221+1073741823+1072991814
1043+1069979073+1065784871+1061567973+1058037989+1055813523+1055819840
1034+1058344353+1062040557+1064530474+1064227194+1061633417+1059120730
1025+1058897586+1060251362+1060386365+1058570876+1057216218+1058019920
1017+1059428050+1058500436+1054031528+1048303741+1045471689+1047485423
1008+1052077215+1055647304+1057306343+1058139792+1057957119+1055897184
1000+1052977358+1051222245+1051420049+1052845440+1053730746+1051982831
991+1047117213+1041100103+1036295890+1033528548+1032123356+1030763043
983+1028771565+1026952549+1026293987+1025931727+1023976900+1020360318
974+1017006836+1015034602+1013363958+1010578694+1007024398+1004041404
965+1001572714+997853300+992085483+986447968+983948722+984635122+985103520
955+982316787+977295894+973404310+972040324+971678945+970452239+968341476
945+966478390+965356279+964318195+962348385+959373764+956767207+956293815
935+958671278+963054984+967379267+969254473+967505823+963203795+958755526
925+955950945+954922483+954806357+955164137+956124436+957249486+957402191
915+956077428+954162412+953205198+953916939+955038022+954212799+950984993
905+947920468+947432974+948738052+949074825+947248685+944762073+943493133
895+943684620+944434408+944988302+944917569+943686750+941031421+937610365
885+934623257+933031867+933240688+934756204+936026393+935672946+934092353
875+932885332+932895689+933723556+934653079+934966641+934072668+932595862
865+932357586+934172341+936727263+938186294+937848787+936174103+934493690
855+934520867+936980228+940682381+943186768+942542970+939047361+935359457
845+934138627+935639673+938159411+940226838+941430921+941783192+941292319
835+939972624+937828147+935201023+933285493+933374369+935149534+936689656
825+936960323+937153059+938449323+939932006+940157280+939610510+939994292
815+941947502+944607532+946558392+946643081+945019960+943777682+945193892
805+949436498+954582772+958362637+959420552+957586259+953958218+950475977
795+948900819+950173726+953862144+957615493+958690963+957203285+956209199
785+957442148+958947381+958363445+956512184+955623280+956195831+957329988
776+958112095+957438108+954666800+951162891+949088120+948899718+949350266
766+949100239+947523318+944962594+942695822+942152651+944179312+948443293
756+952960753+955357681+955285478+954495659+954358526+954436531+953700772
746+952431538+952022636+953022305+954477664+955280631+955477553+956092485
736+957605577+959016645+958810835+956670031+953821158+951982972+952294625
726+954749873+958144487+960233655+958837865+953669923+947355924+944029325
716+945368779+948495663+949144383+946561477+943782530+943729425+945999356
706+947743304+947026055+944155735+940457621+937001676+934580289+933149462
696+931331402+928460714+926229198+925723928+924861539+921619190+917978074
686+917226964+918995224+919789965+917672371+913698522+909341259+905424041
676+902891669+902515159+902819394+900181105+893260768+887383582+889533861
666+896240089+901712853+906196526+909845574+910099568+906556583+902028179
656+897261206+890409986+882092756+875455499+872391415+873063198+876770052
646+881823778+885526739+884615065+878219829+871183733+869951297+874535745
636+877745556+873838327+865183076+857341001+852504249+849923326+848692140
626+848044448+846230868+842102258+838101673+838464081+843498049+848971254
616+851940586+853601094+855610861+857181832+856721294+853672415+847768786
606+839033473+829641288+823947215+825390235+833515096
##END=
