##TITLE=<SNM>
##JCAMP-DX=4.24
##DATA TYPE=INFRARED SPECTRUM
##DATE=3/5/2025
##SAMPLING PROCEDURE=Instrument type and / or accessory
##ORIGIN=Admin
##XUNITS=1/CM
##YUNITS=ABSORBANCE
##RESOLUTION=4
##FIRSTX=4497.3318
##LASTX=599.83466
##DELTAX=-1.4281778
##MAXY=1.7132142
##MINY=0.18257736
##XFACTOR=1
##YFACTOR=1.595555e-09
##NPOINTS=2730
##FIRSTY=0.20027073
##XYDATA=(X++(Y..Y))
4497+125517907+126052126+126670734+127047075+127031469+126685126+126087727
4487+125383993+124939131+125052247+125657182+126539818+127425666+127789894
4477+127256553+126233465+125513350+125348635+125399244+125281635+124858347
4467+124331730+124136476+124517859+125292404+126053649+126449135+126401766
4457+126245335+126374561+126632528+126450479+125684546+124810502+124252664
4447+123983098+123811202+123643760+123360279+122762067+121958413+121607045
4437+122288945+123635943+124475842+124059428+122829674+121720740+121098761
4427+120708710+120318417+119994974+119764539+119334965+118448351+117419118
4417+116957231+117402382+118369519+119155093+119382912+119220429+118957382
4407+118600916+118172780+118019674+118265032+118405932+118075400+117666634
4397+117625467+117693933+117368920+116725283+116328042+116464590+116788733
4387+116802443+116477450+116141837+115949702+115759146+115396384+114881880
4377+114500338+114580757+115032484+115315507+115144507+114892695+115030579
4367+115545503+116080245+116292497+116013003+115358850+114719472+114428744
4357+114486731+114685860+114855432+114916398+114884234+114870776+114953624
4347+115081925+115211581+115429473+115847560+116452318+117046102+117287557
4337+116965104+116330124+115895610+115816890+115806318+115730307+115841424
4327+116279263+116742766+116851334+116613232+116367565+116319879+116286697
4317+116064266+115922283+116311969+117111458+117698584+117850000+117973351
4307+118317565+118599935+118602270+118531890+118578567+118606631+118445913
4297+118078753+117537445+116996848+116825520+117189776+117815155+118370920
4287+118749978+118871770+118702367+118535728+118733635+119226313+119728013
4277+120189583+120593923+120668627+120231012+119519059+118919110+118660042
4267+118843127+119387012+119888274+119899312+119459391+119161854+119623928
4257+120883493+122301282+123067215+122818691+121908364+121180946+121292334
4247+122074237+122777682+123033202+123123297+123239075+123160663+122873297
4237+122793708+123122531+123499320+123483359+123042485+122472805+122070165
4227+121999804+122330850+122967305+123599585+124002318+124310726+124704615
4217+124986471+124878034+124514086+124250722+124202139+124273799+124457183
4207+124878342+125628866+126593593+127454431+127958503+128146137+128189060
4197+128114187+127866522+127549410+127384630+127459894+127664534+127816305
4187+127767583+127528472+127331892+127345462+127382351+127246354+127163843
4177+127422015+127850038+128098059+128132371+128125460+128184670+128408726
4167+128908381+129622081+130293100+130670935+130681479+130403956+129906626
4157+129202845+128411873+127811738+127626953+127853727+128342922+128919429
4147+129371707+129518014+129431141+129435447+129683448+129920560+129916433
4137+129870680+130083622+130488373+130801282+130934664+131027532+131194778
4127+131423485+131671786+131933002+132157936+132230287+132108504+131927997
4117+131941436+132355133+133065536+133591602+133535632+133081776+132761845
4107+132801377+132980026+133118265+133439485+134249630+135316509+135897667
4097+135560981+134689608+133938038+133534549+133412420+133627119+134246847
4087+135085813+135830238+136271757+136329445+136041481+135622815+135381940
4077+135524250+136057610+136793611+137415030+137649537+137400162+136747140
4067+135965544+135461537+135457288+135833264+136403075+137063336+137561824
4057+137558247+137117643+136778968+136960512+137510729+137914032+137848172
4047+137524121+137454647+137882493+138509945+138827711+138617327+138064486
4037+137488175+137165357+137374284+138215388+139274207+139880525+139827908
4027+139486571+139277859+139393851+139815702+140301367+140628957+140949318
4017+141509220+142082692+142150018+141542346+140578021+139776739+139600107
4007+140123866+140889902+141403155+141691549+142101996+142748575+143410685
3997+143793880+143727133+143264928+142676010+142224283+141994717+142032877
3987+142477543+143290443+143985128+143983886+143262547+142397898+141999938
3977+142260781+142942139+143603567+143906081+143838185+143665271+143634059
3967+143794487+144137581+144740368+145606072+146458645+146898249+146802718
3957+146478397+146345575+146540512+146991949+147755725+148779746+149441819
3947+149173971+148474533+148286124+148612939+148668479+148177995+147700222
3937+147891834+149017493+150744932+152099355+152066051+150690372+149274965
3927+149119982+150241308+151398160+151595880+151337418+151780142+153119827
3917+154255648+153904878+151920089+149360811+147489979+147015922+148163875
3907+151021922+155263185+159515469+161963994+162118427+160781151+158500861
3897+155740772+153827381+154102962+156212232+157811163+157284416+156401602
3887+157453884+159676775+160784905+160944605+161661125+162042574+160519411
3878+158540852+158465279+160392921+163172613+166116731+168177158+167886653
3868+166050161+164950511+164890106+164314925+162594537+160853884+160409414
3858+162225080+167068355+173970768+177580732+173672158+166763114+161822804
3848+160086765+161191047+164197008+167921563+171598750+175033940+177653073
3838+178221511+176554824+174172121+172259459+170781329+169564435+168971118
3828+169187656+170058814+172166646+176329862+180934577+182228986+180207990
3818+178390083+177332366+175004409+171592231+169480028+170146864+173306286
3808+177021465+179317425+181008674+183828637+186305796+185549267+182684122
3798+180636807+179466142+178004039+176627949+176456258+177559569+179267890
3788+181376264+184129788+187334674+190518472+193711310+196855604+199053298
3778+199899856+200720806+203245876+208224102+215177731+222411199+228160150
3768+232537158+236825575+241587039+247191980+254425877+263083196+271362595
3758+278254847+285496776+295618514+309606874+325802696+339679359+348526841
3748+355657037+364675463+374541924+381558854+386333898+393092842+403967523
3738+418487954+434720329+449845826+460888388+466562718+468611957+470329505
3728+473857844+478702483+482600018+484414656+485257535+486688184+489501067
3718+493912144+500001135+508246203+519082742+530724355+539267754+543797924
3708+547354766+552576745+559911954+568079881+574981192+579543190+582525225
3698+585135374+588330155+592667564+598102140+604245111+610123708+613743272
3688+614027444+612541358+611291665+611467166+613759074+617923074+623154018
3678+629001759+633852524+634609893+632087047+630153017+629536034+627648027
3668+623720906+620008921+618256744+618827404+621265264+624697596+628046324
3658+630406669+632086001+634900006+640214741+647521783+654653174+658442487
3648+657557955+655097196+654419022+655926962+658284020+660446299+662923570
3638+666591623+670199009+671400624+670908487+672713861+679117767+686556081
3628+688962449+687411624+687201978+690302882+695006910+698091974+697709890
3618+695808734+695879413+698652474+702350636+705891602+709387814+711393569
3608+709680018+705391844+702542575+703752857+708065462+712201295+714088032
3598+714533025+714460852+712721300+708699853+705213429+705943303+711157101
3588+716859599+718430970+715428763+711147239+709354268+711921568+717058038
3578+721202164+723130890+723263207+721164957+717544347+715939205+718894567
3568+724471995+728888675+731100863+731910233+731640219+731001121+731111174
3558+731966492+732634505+732382870+730748665+727319545+722562620+718369556
3548+716535119+716748724+717164280+717107647+717596796+719269927+721367430
3538+722621270+722588844+722304037+723173626+725151886+727008364+728111507
3528+728861554+729572153+729897605+729538084+728660949+727539950+726438152
3518+725980457+726814707+728519292+729837460+730086331+729509693+729122976
3508+730335649+733077256+734576679+732148270+727178038+723795913+724246360
3498+727333666+729705666+728269600+723110493+717839689+716135552+718657352
3488+723327087+727354885+728623816+726645257+723574463+722849071+725515292
3478+729323283+731708283+732021631+730644215+728234634+726176505+725468521
3468+725289882+724188084+722191070+720380765+718988556+717341874+715666725
3458+715807635+719181242+724558811+728975791+730831970+730901304+730712204
3448+731077553+731364602+730056371+726669240+722579580+719600534+718717496
3438+720304184+724112100+728681645+731888791+732884869+732480969+731365573
3428+730117038+730285516+732591096+734724835+733939299+731251411+729483468
3418+729049757+729026671+729641188+730801487+730772498+728947774+727328884
3408+727574915+728908923+729505957+728626431+726999548+725845824+725820272
3398+726365231+726264891+725402923+725239301+726564118+728156858+728605512
3388+727953936+727075980+726705924+727336953+729127907+731660242+733967092
3378+735358554+736366139+737882895+739407197+739657038+738871502+738639816
3368+739283770+739104832+736714303+733068291+730764653+731908590+736405662
3358+741468837+743369023+741064489+737245291+734755169+733744895+732843702
3348+731465614+730233964+730198027+732029775+735293180+738687707+740939493
3338+741051339+738995750+736447501+735411078+736043526+736708176+736262212
3328+735474435+735512987+735723081+734625018+732955922+733142182+735548177
3318+738361807+740891378+743448667+744932923+743974574+741332411+738901836
3308+737457701+736355455+734530132+731871308+729802793+729633418+730979604
3298+732466997+733099521+732720948+731593673+730335425+730158354+731759985
3288+734210583+735819984+735998474+735250444+733732791+731421533+729414134
3278+729329932+731277187+733651652+734964292+734849084+733572830+731937728
3268+731320595+732266243+733403305+733152941+731816468+730990811+731879900
3258+734346786+736823833+737336964+735351307+732144833+729285702+727890804
3248+728779220+731789123+734931492+735624907+733507007+730870672+729911501
3238+730560163+731272854+730882252+729447083+728203554+728751352+731289216
3228+733794056+734206773+733068739+732611867+733853677+735660097+736008785
3218+734001460+730933879+728805519+728072880+727661135+726810000+725742869
3208+724607823+723098613+721330671+720114561+720196373+721586639+723258276
3198+723966559+723547192+722841226+722613948+723167126+724631134+726494411
3188+727314016+726108964+723720378+721956769+721948326+723461123+724821728
3178+723944668+720595865+716956278+715267083+715738674+716921536+717306983
3168+716333841+714393908+712413705+711220309+710768517+710203086+709043086
3158+707914167+707555319+707595365+707239431+706702989+706810053+707527376
3148+708192251+708911815+710102074+710901283+709967515+707653941+705397597
3138+703492481+701363897+699309653+698255074+698174607+698068739+697503607
3128+697180546+697641079+698141136+697476187+695569128+693550074+692465311
3118+692639542+694013148+696169301+697984387+698214803+696778663+694709700
3108+692779779+690995176+689341171+688078814+687296490+686812423+686392907
3098+685816717+685173734+685165292+686432953+688448496+689615444+688680481
3088+685928190+682862626+680888848+680493689+681016757+680935170+679290281
3078+676960643+675619090+675835385+676963109+678160839+678868300+678782379
3068+677756714+675840690+673599289+671941847+671125903+670588116+670137146
3058+670153508+670366740+669849350+668546573+667403683+666778182+666093360
3048+665162954+664661329+665075166+665850242+665822598+664514741+662475290
3038+660479098+658822628+657154802+655231455+653852546+654203400+656119274
3028+657982999+658616270+658267134+657493328+656251741+654468408+652587574
3018+651083295+649921427+648882687+648077576+647602847+646931772+645272836
3008+642611322+640068079+638957689+639441906+640355426+640539445+640038193
2998+639521251+638930269+637567123+635477988+633809564+633337973+633327140
2988+632495804+630702235+628914867+627922151+627798276+628270763+628950057
2978+629305170+628932574+627992530+627052188+626343569+625514064+624290408
2968+623031189+622214012+621865586+621809140+622040378+622485296+622672976
2958+622061036+620526610+618430527+616385547+614919970+614080490+613343331
2948+612177802+610660225+609406385+608902779+608792465+608088105+606458905
2938+604831274+604024519+603454755+602163447+600372343+598805081+597519114
2928+596660919+596886740+597987082+598553185+597739706+596017936+594028618
2918+592211141+591154992+590960812+590788710+589857483+588283870+586515815
2908+584653584+582741371+581175789+580320545+579931774+579385732+578440309
2898+577469745+576965317+577000022+577111606+576653314+575436383+573997478
2888+572986121+572386172+571604895+570266965+568740310+567751403+567431929
2878+567049060+565994332+564609370+563553670+562941693+562566893+562244244
2868+561587028+560210583+558388212+556847734+555873771+555215584+554767976
2858+554708317+554932383+554876833+554155251+553022074+551886692+550747201
2848+549538563+548597175+548177323+547880860+547147511+545994609+544761241
2838+543510950+542203205+541077424+540340899+539681890+538576207+537021758
2828+535568807+534604071+533966093+533381610+532833849+532222619+531138192
2818+529445374+527698949+526593415+526342640+526673172+526950097+526422508
2808+524944940+523261461+522078449+521228659+520107398+518553883+517045010
2798+516233286+516287790+516561390+516168883+514986992+513650594+512521451
2788+511279379+509714844+508302537+507539489+507090686+506119935+504381355
2778+502514642+501179103+500325503+499491253+498434694+497237188+496107746
2768+495320790+495006621+494800636+494059629+492596068+490948228+489847887
2758+489486984+489278459+488400689+486670738+484684296+483088269+482057823
2748+481430118+480950085+480316964+479234666+477616076+475748802+474066070
2738+472672292+471364360+470184785+469489017+469310713+469111826+468317735
2728+466779387+464722678+462609223+461018202+460313991+460321687+460456993
2718+460204088+459401517+458145697+456622889+455049202+453607009+452375135
2708+451324516+450338785+449326979+448403074+447800847+447505169+447141203
2698+446300715+444865658+443123080+441695644+441099581+441188340+441295106
2688+440969393+440224799+439130622+437664372+435978839+434400631+433133567
2678+432189264+431505264+430951077+430355014+429714459+429281943+429230578
2668+429255383+428734257+427394422+425641460+424092241+422981328+422164673
2658+421469577+420842994+420293402+419826257+419395347+418911877+418338265
2648+417713960+417057753+416326869+415492097+414582536+413646565+412707492
2638+411762069+410826060+409970592+409277850+408753511+408281809+407711372
2628+407065139+406594332+406409081+406129429+405266751+403927626+402718352
2618+401970285+401492792+401057325+400688390+400492454+400545538+400837070
2608+401083250+400821231+399914173+398726679+397669522+396827427+396105248
2598+395477955+394950403+394409142+393712664+392968071+392518782+392511535
2588+392651660+392556625+392148353+391563310+390952080+390465136+390144877
2578+389769666+389089289+388230048+387590651+387338381+387243944+387003964
2568+386529236+385926822+385381975+385059810+385007212+385130938+385283689
2558+385347158+385286715+385182938+385116966+384986703+384582131+383867759
2548+383067280+382472300+382235981+382301057+382467817+382554186+382497254
2538+382309126+382012290+381664798+381401545+381363852+381551308+381793604
2528+381915200+381882251+381756994+381584556+381363030+381060479+380645222
2518+380152001+379707270+379431951+379333554+379360040+379502742+379705701
2508+379745299+379434380+378909705+378509951+378415028+378535316+378621461
2498+378422798+377922928+377407929+377121366+376952476+376641332+376163989
2488+375744062+375535948+375413941+375125361+374625043+374156552+373980715
2478+374118299+374363621+374465455+374292381+373879179+373356298+372874284
2468+372589664+372615477+372882316+373097640+373005855+372708682+372529445
2458+372544201+372501203+372225473+371818286+371453498+371225584+371138767
2448+371080454+370899946+370568294+370173844+369805657+369492272+369160694
2438+368680137+368074473+367630302+367659814+368160282+368751563+368971519
2428+368652792+367995090+367307092+366763926+366380012+366138052+366115115
2418+366376276+366713158+366749357+366428314+366121242+366143133+366427903
2408+366727167+366879284+366843384+366679948+366571315+366720966+367121168
2398+367494137+367577032+367403547+367195246+367057662+366906928+366624250
2388+366166518+365533995+364686633+363500110+361785625+359369021+356197999
2378+352397330+348219284+343939702+339796248+335978582+332581776+329474746
2368+326338503+323194228+320807771+319931047+320250895+320998141+322471936
2358+325747146+330982051+337380167+344657660+352924508+361133489+367241756
2348+369827324+369000097+366338434+363725782+361606985+359029075+355296321
2338+350751693+346151218+341882245+338070556+335103277+333441428+332939989
2328+332879808+332697470+332366116+332188671+332454987+333233127+334425889
2318+335929308+337601095+339198952+340534416+341629116+342635543+343696622
2308+344918372+346332921+347773731+348893796+349487917+349761704+350091937
2298+350568123+350971351+351155781+351241440+351437674+351794543+352143678
2288+352291984+352253059+352185480+352152046+352103707+352039565+352008148
2278+351992159+351913299+351725433+351476712+351299492+351272109+351254888
2268+351005308+350526619+350127239+350031755+350099446+350062014+349907769
2258+349857711+350022827+350259482+350382796+350371365+350300313+350241438
2248+350311071+350612801+351041880+351349064+351454896+351494680+351574736
2238+351711947+351929027+352184210+352327847+352326464+352373086+352586990
2228+352785018+352768954+352681577+352820731+353214433+353630437+353925181
2218+354172968+354513213+354980582+355420905+355601600+355527372+355532564
2208+355928583+356682067+357516429+358205360+358713449+359115631+359441082
2198+359664998+359845879+360120862+360522259+360937516+361288632+361650020
2188+362160948+362856230+363593315+364169617+364530781+364823209+365211196
2178+365686634+366128003+366530111+367059455+367846635+368834719+369862701
2168+370816940+371733897+372795835+374124276+375621345+377209864+379121144
2158+381644812+384690988+387896229+391073788+394282317+397533170+400690034
2148+403604640+406178590+408392123+410404976+412498108+414812168+417269192
2138+419782998+422403718+425222094+428235545+431377242+434661567+438176607
2128+441847350+445380246+448548578+451297320+453520454+455050285+455852221
2118+455926635+455148832+453478913+451169411+448604688+446043252+443503820
2108+440803305+437777077+434510048+431283440+428294569+425488409+422658603
2098+419641042+416376292+412880902+409259508+405673415+402227075+398958589
2088+395923620+393172599+390696561+388477125+386496661+384680379+382959431
2078+381393289+380119875+379189917+378522204+378002685+377556310+377109486
2068+376587016+376023117+375569195+375287153+375042616+374676707+374179714
2058+373664042+373253978+372997300+372857399+372789410+372750447+372645363
2048+372433886+372294733+372485028+373010263+373595119+374022180+374398699
2038+375034733+376126146+377629267+379390672+381265044+383108409+384788713
2028+386222724+387325232+387944045+387928468+387264938+386102062+384651427
2018+383075573+381446597+379777015+378094059+376498182+375117105+373972944
2008+372954788+371949183+370913619+369842416+368800538+367925383+367217997
1998+366501047+365817943+365572397+365903490+366235217+365891125+364907785
1988+363807817+362918803+362279070+361862020+361595293+361334468+360972034
1978+360513705+360044206+359662757+359436749+359409852+359620058+359990973
1968+360217354+359988358+359392855+358837286+358527599+358339583+358189633
1958+358178725+358311341+358380750+358200280+357766942+357223440+356787674
1948+356697271+357134643+358055448+358956603+359061239+358124184+356782669
1938+355786291+355300990+355088020+354970197+354962203+355088879+355254332
1928+355439360+355904413+356814609+357780615+358329908+358655172+359115855
1918+359306150+358560398+357188773+356251942+356338348+357077189+357626818
1908+357539141+357094111+356743743+356533201+356264345+355929031+355738288
1898+355848789+356142412+356322061+356393935+356779269+357532529+357909832
1888+357355944+356357437+355620016+355221645+354977967+354871912+354887415
1878+354928432+354979947+355158699+355796602+357409738+360026947+362401786
1868+362714648+360764107+358238421+356598948+356039569+356065084+356215893
1858+356300767+356353776+356473766+356667087+356941136+357464353+358524910
1848+360427261+363143802+365555998+365722833+363368577+360639298+359350791
1838+359520801+360140549+360597757+361464993+363599591+366474262+368233762
1828+368145899+367354461+366582821+365462008+364061506+363174584+363122397
1818+363433540+363655364+363995609+364979547+366612856+368144144+368830647
1808+368756420+368679017+369406389+371308329+373906636+375965288+376587539
1798+376330039+376744885+378908958+382316634+384714560+384246966+382177406
1788+381114011+381966789+383931825+386101427+388286606+390342755+391916705
1778+393314442+395667577+399837405+405228572+409448570+410449019+409076124
1768+407280126+406144633+406497504+408817242+412083262+414437331+415666851
1758+416902648+418409430+420112035+422944419+427691482+433120604+436573968
1748+437106562+436291925+435928146+436859709+439094984+441803642+443857587
1738+445667033+449242105+455126642+459996497+460396886+458249549+456471034
1728+455747622+456321122+458459307+461801385+466125981+472213216+480606628
1718+489370767+494208084+493642280+490902690+489104003+489380891+491996382
1708+496877406+502999681+508588241+513549731+519861778+527915991+534354080
1698+536929412+537393756+536831687+535809533+536289380+539479491+544766844
1688+551562175+560660096+571684016+579605613+580651376+579053220+579586673
1678+583705024+590737569+598293182+604290499+609699896+616039923+621677196
1668+624171427+625366542+628811613+634946029+641105474+645170927+648322561
1658+653035630+661086817+673421994+687663184+695453024+695700026+696971722
1648+702125077+707381835+708386431+706713225+706273761+708733698+714409972
1638+722683207+730331913+731927866+727346517+722641442+720935138+721266193
1628+721950717+722592057+723321110+723037722+720714360+718054340+717436834
1618+718164020+716633217+711236970+704927725+700149058+696689978+693501735
1608+690150392+687101862+684942048+683555966+682279114+680678978+678950335
1598+677605569+676899154+676528277+675940357+674894520+673483707+671762984
1588+669813039+668068258+667053501+666754199+666804556+667487885+669811769
1578+673965310+677699484+678064683+676560927+677182243+680852761+685055239
1568+687411923+688979857+691821655+696698570+704455686+716714281+732106729
1558+741851818+742879351+743555582+748281576+755890983+763981395+771457588
1548+778924218+787637141+797890132+808516166+818135661+824973429+825874920
1538+822132901+819740878+821000022+823717123+824842605+824670316+825976306
1528+830039369+835779074+841435324+846321354+850287140+853107046+855519466
1518+858371275+860871633+861939735+862245089+863576033+867441478+874475891
1508+882866053+886480910+881752226+875153541+872339388+873737424+877863844
1498+882237489+883963742+882604257+881188738+882615763+886925156+891115978
1488+891940290+889896357+887781446+886820930+886371455+886111602+887208170
1478+890882573+896805102+903384809+908440514+909547317+906651876+903335947
1468+902581192+904288243+906319700+906989431+907279841+909419632+913957125
1458+918167148+917526556+912563496+908209649+906513955+907065638+908764471
1448+909746204+908495727+905720125+903479994+903158801+905103665+908798914
1438+912470030+913567569+911919317+910400694+910450303+911007740+911026418
1428+910876618+911217460+911859771+912459570+913430321+915386167+917701983
1418+918300063+916232670+913138341+910870267+909585645+908099372+905868431
1408+904098546+904108782+905521388+906974637+907889577+908398375+908422433
1398+907880014+906754980+904465165+900774175+897266308+895625303+895003539
1388+892882800+888881824+886253781+887768520+892452226+897375090+900866521
1378+903374798+905952932+908760137+911051073+912376787+913216640+914200391
1368+915650279+917862093+920716219+923147616+924088631+923843197+923524321
1358+923632506+924040217+924621262+925508932+926914515+928606473+929891245
1348+930541550+931315431+933089724+935895435+938909596+940963840+941446040
1338+941098474+941106169+941546978+941832832+942018569+942589529+943523446
1328+944359638+944796188+944909603+945124703+945905756+947227734+948625846
1318+949870869+951018765+951701870+951431109+950702877+950587146+951161094
1308+951469437+950975208+950048687+949186420+948532155+948000570+947561853
1298+947537421+948343803+949659729+950381087+949761414+947853758+944821366
1288+940996191+937381185+934741786+932497097+929631317+926355136+923680098
1278+921637883+919225239+916130462+913331923+911568015+910246859+908549222
1268+906825061+905891219+905376294+903934027+901039333+897461982+894038765
1258+890953103+888129162+885635229+883704860+882658948+882616361+883208016
1248+883810579+884068341+884165468+884551661+885310899+886024486+886480312
1238+887098192+888173541+889206379+889475198+888912158+888180863+888105029
1228+889080263+890893556+892979329+894743760+895836443+896475840+897438597
1218+899296270+901696736+903750681+905089320+906098100+907053236+907725432
1208+908196350+909350224+911960709+915693912+919455804+922557082+925148141
1198+927495934+929350544+930479388+931399857+932796623+934578985+936235157
1188+937618549+938910119+940451083+942725507+945727864+948552627+950357776
1178+951364987+952514228+954369137+956333501+957285349+957365517+958179220
1168+960648646+963921316+966865023+969327500+971572936+973522880+975001383
1158+976290637+977870003+979425983+980037288+979787073+980021897+981509963
1148+983445563+984777104+985617854+986860262+988992731+991721562+994591602
1138+997543303+1000350508+1002174934+1002667818+1002749031+1003509838
1130+1004905782+1006255106+1007414806+1008696664+1010269604+1012216784
1121+1014582508+1017135688+1019837473+1022802697+1024851188+1023795264
1113+1020094263+1017861230+1019682741+1023353783+1025776214+1027002111
1104+1028165996+1029076976+1029466158+1029534820+1029030355+1028121318
1095+1028122737+1029187328+1029573970+1028690633+1028381768+1030485024
1087+1034926734+1040039146+1043474317+1044081961+1043287758+1043701595
1078+1046468679+1050056938+1052289374+1053158215+1053731865+1053167480
1070+1049850356+1044831261+1040968804+1039517198+1040095704+1043017968
1061+1049146556+1056984362+1062378742+1063100323+1061620550+1061475681
1053+1063191324+1064770615+1064868565+1064249863+1064633292+1066332648
1044+1067826243+1068545284+1069801066+1071466876+1071062527+1068106194
1035+1066076530+1067860686+1071891397+1073741823+1070871261+1065240861
1027+1060985188+1060499103+1062783688+1065012238+1064982054+1062483938
1018+1058955300+1056281309+1055911627+1058169764+1062122325+1065952207
1010+1067639833+1066093266+1062371719+1059142457+1057977377+1058112758
1001+1058004573+1056912263+1055010061+1052973300+1051518108+1050668766
993+1049674182+1047947481+1045543130+1043090888+1041513763+1041020730
984+1040603680+1039114194+1036544503+1033714510+1031053892+1028447441
975+1026049889+1024140365+1021922648+1017826936+1011987115+1006907129
967+1004290368+1002929987+1000547677+996381360+991417628+987017982+983572650
957+980184473+975867610+971266985+968294065+967526834+967057783+964771703
947+960902522+957151762+954445195+952806582+952193409+952374963+952872778
937+953515985+954297487+954823469+954714761+954053249+952877634+951260090
927+949991307+949884392+950393564+950176671+949188662+948802319+949621850
917+950737619+951435068+951881406+951767468+950518111+949177753+949412727
907+950506456+950028963+947398679+944119733+941023686+938040829+935960137
897+935995476+937948409+940265345+941504018+941089135+939441556+937567520
887+935888711+934138774+932753439+932795129+933792926+933541516+930988410
877+927510130+924916156+924039395+924746108+925838941+926042311+925971034
867+927353530+929816083+930864610+929837675+929227566+930852432+933169443
857+933708649+932388688+930908168+930291783+930377479+930768828+931355776
847+931955425+932028196+931261562+930107390+929252669+928728705+928242844
837+927836552+927653504+927575803+927590446+928150124+929402843+930512486
827+930493957+929396044+928223717+927948548+928741854+929627058+929222709
817+927661947+926783916+928028341+931293241+935341435+938264895+938413948
807+936009223+933540021+933559596+936298962+939852479+942268186+942921107
797+942120329+940360754+938283199+936858117+937031526+938828009+940875604
787+941580823+941250590+941755055+943626998+945559460+946815018+947754090
777+948213876+947685952+946479779+945007253+943013676+940540888+938454517
767+937290334+936573832+935813101+935443419+936163357+937725389+939193806
757+940347082+941935039+944312269+946564280+947448662+946831604+946036579
747+946356427+947162659+946741948+944824654+942778479+941261200+939260525
737+936071758+932917136+931751533+933388801+937062757+941561771+946241593
727+950619871+953814390+955042006+954162330+951337941+946976100+942645713
717+940515859+941001197+942217232+942403119+941664129+940434646+938018789
707+934049641+929919636+927476882+927138281+927821161+928180159+927589176
697+926661909+926402877+926542741+926068087+924610653+922287067+919000127
687+915029560+911318996+908232960+905032912+901076764+896769165+893033721
677+890382965+888666799+887130244+884336188+878844980+871407488+867691619
667+873941765+885561188+893065250+892390214+885150414+876202293+869152713
657+864500611+861752952+860971375+862343038+864773613+866245765+865716347
647+863872944+862100070+860955461+859498924+856536091+852770537+850345939
637+850238875+850676471+849759588+848669296+848672135+847682333+843162099
627+837077891+834538757+837298445+841066016+840793461+836872130+832688331
617+829029916+824360405+819087061+815626861+814169726+812266179+809146597
607+806748522+805922865+805363037+804721399+805434389+808080363
##END=
