##TITLE=<SNM>
##JCAMP-DX=4.24
##DATA TYPE=INFRARED SPECTRUM
##DATE=3/5/2025
##SAMPLING PROCEDURE=Instrument type and / or accessory
##ORIGIN=Admin
##XUNITS=1/CM
##YUNITS=ABSORBANCE
##RESOLUTION=4
##FIRSTX=4497.3318
##LASTX=599.83466
##DELTAX=-1.4281778
##MAXY=1.7237875
##MINY=0.1772666
##XFACTOR=1
##YFACTOR=1.6054023e-09
##NPOINTS=2730
##FIRSTY=0.19898003
##XYDATA=(X++(Y..Y))
4497+123944035+124398235+125205443+125499048+125088185+124456182+123964557
4487+123600243+123420666+123737216+124688934+125930386+126800489+126772745
4477+126041695+125586984+126206290+127652241+128975690+129326155+128446650
4467+126947811+125898104+125758672+126059015+126176672+125944411+125578371
4457+125369306+125279253+124885534+123983966+122995844+122526598+122774879
4447+123405472+123774798+123395345+122385012+121393911+121014300+121234671
4437+121502537+121394394+121043510+120741051+120500873+120310984+120409428
4427+120994864+121886658+122570121+122504099+121576402+120316989+119378479
4417+118874315+118557144+118408336+118510567+118560374+118146105+117373638
4407+116650793+116075724+115576387+115300269+115329702+115363915+115116460
4397+114713737+114449111+114437713+114632957+114905538+115028356+114842839
4387+114550924+114547842+114805739+114843210+114481588+114078578+113835764
4377+113556806+113190673+112931689+112791050+112628135+112489853+112604707
4367+113122739+113841314+114178033+113704787+112724805+112013553+112048175
4357+112709203+113592012+114373139+114839758+114779954+114204914+113600477
4347+113462186+113618735+113472712+112847763+112226025+112159232+112641482
4337+113112380+113091431+112638475+112007724+111247742+110538346+110418804
4327+111138243+112193139+112950587+113313574+113435993+113299234+112933676
4317+112663981+112814515+113322429+113805458+113987560+113961784+113968885
4307+114046128+114123688+114312528+114766820+115397924+115949973+116140363
4297+115679805+114597417+113549789+113333456+114124106+115485285+116835790
4287+117623859+117495370+116619179+115576981+114823310+114437100+114253263
4277+114021207+113660726+113507742+113977535+114909771+115660323+115906116
4267+115894950+115899703+115921060+115879802+115742495+115573621+115594431
4257+115947272+116433857+116778651+117018188+117348085+117754223+118029691
4247+118047930+117860055+117596292+117386206+117353831+117534558+117788139
4237+117943453+117979114+117919859+117671410+117175414+116698743+116727860
4227+117421394+118316854+118851918+119083130+119513076+120275945+120896829
4217+120880140+120290155+119666849+119412200+119358644+119124824+118737853
4207+118591542+118990970+119994137+121400130+122639837+123012356+122337916
4197+121210622+120429115+120309016+120607976+120887955+120814730+120388172
4187+120106699+120600672+121827431+122883496+122931780+122168466+121614189
4177+122062559+123376466+124712436+125351976+125319481+125170181+125258935
4167+125451200+125524694+125482127+125334675+124947045+124358880+123984931
4157+124179489+124743242+125130306+125086468+124843375+124693259+124683931
4147+124785930+124971790+125060562+124889553+124617362+124454019+124265392
4137+123900215+123665486+123997174+124828924+125686783+126312670+126815980
4127+127228263+127290851+126823629+126032979+125315072+124987811+125190314
4117+125740395+126205901+126373866+126445206+126577965+126565323+126181424
4107+125572338+125120143+125111761+125652635+126681662+127888456+128773382
4097+128997307+128619794+127925296+127154519+126408385+125660460+124960606
4087+124672598+125179166+126274679+127252935+127650868+127550215+127260212
4077+127123536+127411581+127954692+128132495+127628870+126859373+126317450
4067+125977668+125681112+125569702+125744145+125941172+125905195+125747431
4057+125672137+125645191+125604351+125742679+126253517+126907491+127204474
4047+126966273+126520946+126275914+126353278+126684233+127202302+127789186
4037+128164527+128074734+127698326+127655833+128336558+129331019+129888638
4027+129877527+129886289+130357029+131008219+131239765+130827333+130082889
4017+129506085+129359319+129509677+129615750+129465699+129172262+129045935
4007+129243621+129575030+129758301+129818123+130023271+130424212+130695558
3997+130560377+130201586+130054774+130279656+130687901+131119119+131560147
3987+131921621+132048235+131954126+131778263+131587817+131449489+131550160
3977+132004471+132624130+133029312+132970781+132536713+132075348+131882498
3967+131997807+132339445+132843517+133357102+133648563+133685514+133668389
3957+133676974+133549803+133244411+133129594+133689505+134842102+135778793
3947+135906326+135717838+136070773+136909893+137384290+137037184+136211728
3937+135533807+135633355+136923500+138970119+140358011+140114965+139117988
3927+138972894+139917994+140682803+140365975+139690495+139882649+141050570
3917+141980290+141388644+139365007+137187133+135899559+135735010+136858619
3907+139886055+144986266+150685632+154526560+155397331+153857763+150581638
3897+146591986+143890344+144014815+146241920+147723364+146808662+145695068
3887+146907746+149511696+150968377+151359209+152057718+151892908+149453749
3878+146862460+146894622+149549585+153392778+157469336+160251860+159898424
3868+157673036+156529860+156674509+155955609+153577302+151101312+150310588
3858+152448847+158451916+167247487+172337767+167806777+158710844+151592983
3848+148353066+148648833+151384010+155326854+159836161+164673435+168510177
3838+168989530+166106836+162833449+160918912+159604615+158099372+156999654
3828+156897609+157764295+160340613+165588332+171431372+173132816+170589783
3818+168139866+166441615+163018010+158336282+155484692+156192798+159906573
3808+164178784+166792322+168895505+172688622+176660582+177145802+174766651
3798+172638258+170920998+168617457+166597328+166371129+168081019+170863617
3788+173950253+176889437+179543926+182618013+187262538+193186275+198070515
3778+200424068+201894838+205087566+211157288+219634138+228743808+236621011
3768+243329271+250134713+257469093+265654770+275874108+288567440+302029368
3758+314362006+326444275+340855220+359041925+379510601+397211344+408829295
3748+418030652+429384032+442181674+451031656+455054128+459939891+469773381
3738+484505331+500577511+513003098+519600069+522283499+523558310+524300639
3728+524569368+524295515+523398588+522203638+521047746+519461137+516925660
3718+514308428+513830151+517777923+526713038+537476685+544502924+545997679
3708+544800093+543886867+544996757+548880150+554703420+560043289+563061759
3698+564316892+566021455+570107713+577085798+586221773+595158633+599642044
3688+597788117+593323381+590487245+590407903+592151264+594700776+598416055
3678+603643502+607258982+605247004+600766934+599162467+599136664+596077799
3668+590214914+585394571+583416638+583859718+585823468+589265118+594933677
3658+602110097+607269824+608466778+609198711+613538921+620785438+625398201
3648+623747882+618992623+615302516+613937931+614000194+613999637+613851832
3638+615020236+618014832+621696734+625905809+632038908+639427735+643310905
3628+640879571+636918507+636300111+639630155+645648901+652367427+656995376
3618+658281994+658599360+660646870+664261014+667662194+669992393+671330989
3608+671774812+671761966+671847285+672187448+673184768+675610533+679120645
3598+681976125+683297123+684457062+687217495+691486346+695513719+697266510
3588+695937641+693360990+692358323+693266983+694213141+694264154+694326603
3578+694392913+692536610+688296570+684318279+683126039+684638021+687552459
3568+690564691+692033828+691358107+689702961+688347657+687766834+687326278
3558+685813182+683405090+682358464+684399366+688083086+690145150+689080184
3548+686154607+683434272+681893033+681411712+681697149+682519227+683814161
3538+685575418+686639493+684700321+679810772+676127126+677546660+683051116
3528+688139891+690234182+689961295+688067418+685167237+683455806+684905340
3518+688377731+690917477+691187395+689540491+686307647+682635287+680668567
3508+681112761+682820702+684597552+685686652+685453936+684068411+682704270
3498+682391582+683150840+684149868+684441023+683997497+683753421+684158482
3488+684550549+684479561+684786235+686285890+688076997+688492752+687478501
3478+686500116+686005132+684493744+680792870+676213633+673291101+673095959
3468+674518092+676171976+677665691+678560539+678580514+678685214+679649564
3458+680384764+679793397+678875752+678675857+678088722+675950102+673484536
3448+672968908+675223516+678947631+681551237+680974424+677761777+674474504
3438+672756019+672143637+671712586+671556354+672304177+674030682+675920994
3428+676935912+676944006+676824307+677022048+676834628+675905623+675114732
3418+675226708+675378263+673762398+670187907+666906723+666371492+668824509
3408+672293187+674441090+674092239+671606773+668571967+666782791+666792444
3398+667552148+668036514+668382394+668727680+668470015+667556974+666797122
3388+666272955+665294273+664096762+663724744+664193219+664359847+663568288
3378+662446145+662091651+662844672+664070104+665023614+665226998+664392965
3368+662989989+661985838+661508378+661029135+660869932+661926879+664042630
3358+665983064+666755317+666322781+665475456+665095715+665291006+665509762
3348+665726884+666980458+670039099+673767076+675674912+674387106+670958229
3338+667498387+665379889+664859584+665462907+666385155+666892020+666697992
3328+666006602+665189574+664453928+663896199+663533759+662812520+661015844
3318+658777944+657828370+658870688+661057649+663406263+665258185+665828539
3308+664933542+663512003+662371964+661269202+659789818+658528818+658865936
3298+661321997+664375070+665798391+665177841+663936371+663145554+662761209
3288+662746136+663387328+664233688+664032234+662554335+661547584+662616783
3278+664742632+665365038+663943350+662722374+663413021+664743152+664588033
3268+663404630+663312479+664660432+665780867+665461719+664010923+662416814
3258+661426994+660851963+659906918+658574262+657671394+657317198+656768675
3248+655864842+655318325+655657373+656717068+657782851+657887402+656655807
3238+654895813+653703425+653228861+652925900+652576307+652460692+652878154
3228+653702088+654054355+652785929+649829240+646684982+645104166+645632417
3218+647451146+649102060+649554496+649115277+648955926+649511651+650035372
3208+649763079+648890878+648212632+648171198+648528514+648770956+648512474
3198+647704950+646685799+645711795+644536708+642831812+640838582+639177347
3188+638213739+637942188+638244629+638980943+639977075+640963331+641315151
3178+640166351+637491682+634876121+634128595+634981192+635207447+633496387
3168+630939042+629050364+627996536+627225693+626357280+625185980+623890006
3158+623030058+622651543+622102723+621114722+620161732+619483598+618539964
3148+616946227+615456484+615081273+615560182+615849628+615738097+615418689
3138+614138865+611233746+607749660+605441366+604984438+605875981+607015797
3128+607265183+606463822+605506080+604809641+603857060+602713605+602439270
3118+603276905+603741370+602283334+599175350+596143849+594505151+594178985
3108+594204381+593679434+592374958+590977960+590721037+592151821+594205531
3098+595081556+593980279+591463105+588638665+586658801+586126689+586299109
3088+585870398+584852843+584394986+584787498+585139282+584906232+584399033
3078+584022374+583981200+584283641+584417337+583635282+582014219+580549649
3068+579947552+579965707+580018874+579802754+579222042+578284498+577300915
3058+576629240+576027960+574763433+572658041+570631322+569710485+569928387
3048+570510064+570786033+570470783+569248247+566920202+564093385+561994379
3038+561326714+561685960+562109066+561844866+560730297+559219986+557894755
3028+556842226+555838929+554920653+554216901+553577601+552995664+552807873
3018+552886435+552500197+551513904+550684883+550388791+550168402+549718230
3008+549180066+548401984+546988650+545088982+543350188+542263242+541968301
2998+542239258+542359476+541552621+539831573+538066084+537092674+536956490
2988+536992950+536609608+535992808+535748175+535753484+535010747+533150212
2978+531329365+530753814+530975763+530619932+529298934+527811828+526863664
2968+526482587+526329028+525886802+524694710+522903900+521295349+520444386
2958+520174135+519933028+519417958+518730541+518128964+517715697+517239611
2948+516326681+515011252+513738929+512779887+512078251+511718225+511867255
2938+512116566+511652286+510310720+508782141+507677486+507021925+506591394
2928+506181023+505593925+504763010+503817001+502879827+501974509+501147716
2918+500491152+499974522+499361918+498446056+497397722+496661112+496352062
2908+496013719+495188002+493951358+492677772+491575900+490680384+489996161
2898+489418604+488739059+487865299+486849490+485710194+484535850+483686631
2888+483470103+483641855+483606436+483095227+482295202+481345888+480124689
2878+478649352+477379738+476814286+476866821+476911857+476417466+475307353
2868+473885145+472708759+472238167+472309675+472281978+471834108+471209994
2858+470702015+470348449+470004054+469374111+468249926+466862470+465639600
2848+464686462+463943836+463548020+463494593+463336875+462717588+461779857
2838+460698555+459385428+457983677+457025935+456767008+456816721+456604686
2828+455876986+454738915+453505019+452464556+451612813+450709723+449637182
2818+448529779+447640871+447221293+447329334+447615773+447511853+446789908
2808+445749223+444732597+443723433+442576414+441363903+440268009+439327346
2798+438512730+437884235+437479619+437147142+436609647+435712459+434612779
2788+433640965+432876286+431993356+430721107+429307401+428255392+427709766
2778+427384528+426987895+426419918+425657800+424765960+423894353+423015210
2768+421938623+420800923+420044227+419685426+419197311+418306212+417292816
2758+416373427+415412529+414370767+413464743+412720299+411854670+410799765
2748+409903284+409355912+408872326+408179971+407327560+406350512+405160797
2738+403861073+402737185+401959994+401480009+400996311+400078518+398688352
2728+397381499+396625582+396220669+395695574+394949088+394205052+393572287
2718+392964658+392348044+391708744+390809293+389433234+387891959+386791015
2708+386299372+386060382+385688661+385013646+384058205+383022013+382105148
2698+381308948+380574751+379984831+379607838+379249000+378570494+377490603
2688+376326505+375441905+374846713+374286050+373625551+372951426+372324453
2678+371638485+370805602+369956236+369278398+368714245+368027237+367153663
2668+366291264+365643574+365200940+364776943+364236960+363661037+363181201
2658+362704261+361988701+360996505+359993504+359261275+358806759+358422007
2648+357986538+357558271+357148235+356615120+355867335+355007386+354216681
2638+353588669+353075603+352588378+352173886+351974029+351937273+351771201
2628+351269794+350477640+349535900+348652116+348140313+348115660+348216498
2618+347976060+347376488+346705556+346040676+345264784+344477161+344004713
2608+343975642+344120068+344059364+343635925+342887211+341914246+340957989
2598+340372599+340252566+340259657+340036112+339602537+339196473+338949612
2588+338834628+338718530+338403243+337786591+337014301+336346748+335875822
2578+335482196+335058719+334634983+334268497+333978011+333822186+333865032
2568+334006822+334018999+333816060+333567380+333510166+333730110+334089059
2558+334311676+334216295+333880180+333502481+333180734+332917648+332688720
2548+332408852+332014483+331598766+331279618+331041333+330876413+330857218
2538+330909382+330787715+330423865+330067700+329974510+330090348+330120979
2528+329880763+329499463+329230549+329145229+329099266+328923133+328599677
2518+328293672+328176275+328227659+328326493+328458407+328651136+328792778
2508+328697917+328318288+327774926+327198855+326612834+326010848+325496854
2498+325228793+325218212+325271676+325165714+324864795+324520994+324241609
2488+323959291+323593956+323185256+322771507+322314021+321812762+321346663
2478+320986711+320750989+320578791+320336905+319976731+319653053+319549801
2468+319633746+319688287+319549467+319250887+318954758+318762994+318601229
2458+318312526+317878356+317482354+317299723+317297793+317312607+317231780
2448+317039979+316786361+316557618+316404393+316311314+316279978+316315435
2438+316296760+316054837+315624380+315211447+314901284+314618818+314356029
2428+314194264+314100666+313919669+313598441+313291396+313237079+313545163
2418+314032871+314321983+314226936+313962774+313833421+313852505+313827295
2408+313681013+313544012+313585669+313825847+314104304+314260648+314334977
2398+314485084+314698196+314746648+314486124+314061125+313732175+313566103
2388+313363535+312864058+311944335+310554688+308542616+305692557+301957192
2378+297562795+292905552+288356760+284058300+279925484+275937540+272249531
2368+268955167+266119421+264058749+263093582+263179662+264296217+266848012
2358+271172647+276986338+283814854+291731320+300842623+309986302+316953212
2348+320114957+319597696+317296233+315206287+313326816+310391494+306134802
2338+301472734+297184595+293371447+289906724+286857475+284463157+282943081
2328+282320025+282304246+282430090+282468777+282661599+283421971+284854778
2318+286654926+288415440+289942570+291289984+292597431+293979244+295514784
2308+297221017+298964452+300455365+301476335+302140881+302765273+303454936
2298+304023155+304341189+304533900+304799659+305221947+305745167+306210895
2288+306480645+306598915+306748966+307004960+307219168+307194274+306905830
2278+306505781+306135990+305805258+305466228+305159220+305014813+305088585
2268+305239304+305263085+305148862+305076574+305119921+305097217+304828321
2258+304421552+304140979+304059874+304030580+303947619+303847151+303793391
2248+303828291+303962748+304116196+304174579+304153862+304194739+304396379
2238+304726610+305080770+305429119+305880349+306493213+307101474+307517413
2228+307813487+308212794+308824730+309622137+310534806+311485884+312438911
2218+313429882+314492770+315603403+316756584+318036037+319528416+321212818
2208+323015026+324924607+326985483+329214732+331564683+333926738+336205626
2198+338407512+340580179+342737550+344932567+347242903+349604883+351858822
2188+353956083+355921504+357720110+359343067+360872276+362315535+363513455
2178+364348194+364996441+365788149+366746039+367481610+367643004+367246296
2168+366549783+365813061+365148998+364507768+363825995+363090239+362270128
2158+361402049+360642085+360054579+359526366+358944020+358300340+357697091
2148+357216438+356784979+356701999+358235998+362623100+369459209+377129983
2138+384648236+392040702+399394592+406579032+413553887+420405738+427242924
2128+434045804+440644037+447045123+453438894+459635742+464967072+468837247
2118+471047412+471761895+471410928+470541587+469793244+469975058+471927150
2108+476286480+483421318+493442005+506055829+520154828+533570013+543593856
2098+547853017+545185217+536765989+525721918+514438894+503156353+491336799
2088+478711800+465072217+450565037+435904706+421745745+408532869+396709528
2078+386425643+377602022+370345035+364605525+359898792+355910997+352686544
2068+350128604+348032940+346293180+344667291+342930650+341243166+339846910
2058+338756103+337921996+337238626+336574303+336082845+336089640+336732392
2048+338068649+340185105+343120409+347143587+352897317+360982656+371827352
2038+385858223+403157617+423103871+444605138+466214928+486063982+502288794
2028+513413506+518505734+517801536+512794144+505221090+496430995+487312173
2018+478097711+468602155+458868612+449220723+439856525+430715315+421586617
2008+412340039+403156615+394384378+386177557+378498281+371382899+364953633
1998+359264802+354389398+350509459+347552027+344872569+341819348+338527063
1988+335606759+333315358+331495366+329973694+328651767+327460381+326417023
1978+325590861+324983343+324477592+323896694+323230329+322784724+322839636
1968+323155443+323127226+322501627+321649475+321030151+320682191+320387547
1958+320083547+319858962+319709078+319538700+319294661+318987839+318702662
1948+318643258+319077799+320067211+321086696+321188054+320057446+318549065
1938+317627151+317380773+317372233+317361986+317391131+317485250+317557054
1928+317638995+318071234+319074754+320207367+320904474+321389471+322052309
1918+322341124+321507351+320036655+319095471+319152425+319816303+320410158
1908+320475539+320042966+319486796+319089605+318878906+318831272+319048951
1898+319661555+320516788+321163773+321488119+322001964+322913742+323451758
1888+322893508+321677544+320675545+320192330+320113286+320276053+320498558
1878+320653752+320731868+320815071+321304672+322954211+326000229+329110664
1868+330010524+328060511+325025557+322809414+321938365+321912969+322064858
1858+322074548+322022681+322097011+322328909+322701521+323328011+324448892
1848+326460500+329553781+332609378+333267983+330956163+328045066+326557551
1838+326428867+326646323+326863668+327892917+330545124+333981983+335990064
1828+335831900+334962707+334179502+332877142+331058598+329758688+329531282
1818+329963261+330515793+331251475+332607856+334521187+336049245+336324063
1808+335685209+335276324+335981524+338041138+340936789+343389992+344286325
1798+344021086+344304703+346541192+350368114+353191849+352567884+349753319
1788+347886435+348194333+349814951+351709235+353653753+355423623+356516584
1778+357275025+359132257+363233291+368934523+373382217+374075871+371942596
1768+369275688+367431525+367442107+369782776+373118426+375265697+376103109
1758+377021459+378282644+379728985+382432873+387346815+393087513+396604494
1748+396818237+395514355+394661944+395129305+396888297+398981845+400155112
1738+401024046+404021835+409723995+414111245+413144258+409280395+406046177
1728+404184157+403783105+404926856+407133903+410379964+415914530+424483493
1718+433597934+437908739+435707967+430937077+427265126+426132550+427976973
1708+432564415+438434428+443608746+448288376+454715785+463038704+469427909
1698+471551790+471001449+468384514+464726114+463170655+465334597+470293352
1688+477197442+486907594+498857652+506805619+506159080+502260020+500927438
1678+503765690+509926301+516893396+522519148+527599904+533367816+537923403
1668+538911553+538637700+540965337+546282076+551514869+554167744+555809561
1658+559791936+568325405+581915980+596611768+602491880+600333099+600786203
1648+606168695+610868931+609486561+605087689+603070290+605044510+610806482
1638+619633445+628341747+630673209+625678737+620503306+619822609+623047731
1628+627530511+631813396+636333897+640887516+644186076+647026259+652222407
1618+660323489+666919569+667043278+662822618+658852273+656101864+653288339
1608+649761000+646387219+644413074+644488591+646757381+651082295+656811149
1598+662563468+666695615+668361306+668146931+667377945+666877318+666615494
1588+666218452+665433205+664251955+662890413+661881509+662297412+665379741
1578+671073324+676362514+677527280+676667034+678893648+685224859+692224144
1568+696639946+699961673+705312346+713938783+726639968+745368512+769412236
1558+787944525+794337814+797808571+804324826+812929655+821216226+828279221
1548+834992624+842816437+851878380+860746888+868163264+871858346+867379502
1538+857251107+849760551+847372062+847332484+846507881+845179383+845546426
1528+848121518+851705217+855374830+859068501+862038481+863218543+863642614
1518+864723917+865483769+864845324+864069804+865245336+869696260+877901968
1508+887736906+891463695+884137836+874160328+869066577+869263576+872299421
1498+874659693+873605865+870275896+868605156+870688308+875176138+878374007
1488+877612893+874189510+871092553+869804450+870009543+870954439+872705671
1478+875718571+879588598+883106433+884844002+883299050+878841740+874827139
1468+874008848+876095267+878481677+879072005+879103118+881574105+887847991
1458+894957471+895344860+887237466+878284753+873568886+873274465+875303634
1448+876538273+875117402+872200810+869941079+869215681+870220501+873037442
1438+876311869+876834625+873475696+869571735+867879090+867815973+867596549
1428+866891349+866723458+867317350+867942429+868594983+869804896+870452846
1418+868388703+864361329+861240536+860029881+859580489+858451812+856598479
1408+855460074+855996048+857077499+857095543+856591648+857138388+858788113
1398+860370341+861026088+860117651+857368876+854234123+852709146+852590189
1388+851543341+848136443+844285500+843232563+846182421+851957462+858588664
1378+864599911+869181227+871980273+873399659+874713825+877003852+880157169
1368+883375310+886324648+889086715+891027520+891053658+889494598+888043876
1358+887494537+887230783+886664811+886045820+886014856+887081233+889287278
1348+891923779+893968096+895177266+896420445+898667552+901789979+904423955
1338+905373975+905116087+905216406+906774500+909962568+914246344+918569550
1328+921832690+923613921+924444019+925433319+927462859+930377297+933195055
1318+935310880+936933279+938282791+939266597+940179712+941794240+944272801
1308+946523101+947197932+946113510+944063179+941779835+940001203+939671733
1298+940953821+942580750+942996356+941839165+939979817+938471548+937556205
1288+936616581+935184275+933442325+931495579+929252407+927289028+926423288
1278+926117803+924767251+921751826+917998083+914792416+913091306+913381792
1268+915229259+917394166+918978176+919933542+920173163+919122156+916586642
1258+913311621+910162389+907130479+903614946+899602349+895897986+892968548
1248+890378159+887683145+885051619+882692164+880525103+878651053+877358272
1238+876589063+876012398+875566051+875470039+875701864+875816662+875543774
1228+875409893+876346546+878534695+880989197+882517961+882994085+883622431
1218+885822907+889679345+893624072+896018131+896978175+898040913+900118868
1208+902498966+903942114+904269802+904501255+905854331+908856836+912923713
1198+916800942+919888543+922746696+925732419+928093582+929302678+930339576
1188+932620395+936115062+939309442+941081540+942005867+943425253+945923195
1178+949051562+951814816+953324348+953674015+953967249+955233966+957426422
1168+959437695+960129753+959469402+958900088+960149653+963438485+967322843
1158+970333739+972215808+973552623+974893521+976476937+978342076+980303450
1148+982002778+983467756+985512222+988815385+992569054+994831681+994801014
1138+994003811+994243952+995148453+995280479+995136498+996793278+1000894832
1128+1005849726+1009676090+1011579991+1012341403+1013574780+1015927181
1120+1018426607+1020255287+1021862613+1023481374+1024128656+1023526150
1111+1023135271+1023555406+1023335908+1021789769+1020422287+1020344022
1103+1020618989+1020138187+1019851265+1021730885+1025635217+1029006324
1094+1030181040+1030312323+1031442040+1034245837+1038138364+1041727335
1085+1043316617+1042832845+1042344840+1043677348+1046325878+1048364255
1077+1049042501+1049142003+1048894288+1047938476+1047182931+1047744670
1068+1048707982+1048831468+1048975226+1050017322+1050619456+1049657779
1060+1048301435+1047970777+1048771693+1050618936+1053934352+1058829470
1051+1063975125+1066843154+1066647343+1065707571+1065903975+1065552823
1043+1062182162+1057419589+1055570711+1058249538+1063186982+1067347049
1034+1069463839+1069765908+1069046822+1068244422+1067914952+1068516938
1025+1070637812+1073373221+1073741823+1070172307+1064939625+1060988511
1017+1058932611+1058335006+1059137109+1060499987+1060480012+1058414607
1008+1055971169+1055130156+1056258685+1058343099+1060216184+1060922498
1000+1059625559+1056634044+1053553572+1051401214+1050013163+1049340932
991+1049554415+1049796487+1048518780+1045379349+1041651817+1038507189
983+1035665743+1032162314+1027993782+1024408375+1022631376+1022471208
974+1022383290+1020846655+1017445401+1012812700+1007892929+1003283692+999044989
964+995081846+991744600+989475513+987582602+984528862+980178850+976373425
954+974332153+972932667+970657120+967858074+965814054+964700302+963814810
944+962946917+962261913+961357561+959532445+956845227+954185113+952293762
934+950988357+949650949+948523979+948509945+949474222+950289691+950807323
924+951851275+952955077+952408263+949910990+947113281+945455388+944937458
914+944931963+945081662+945251557+945307323+945182871+944990773+944934265
904+945121240+945482713+945797258+945644218+944606355+942888315+941252846
894+940270006+940121422+940889294+942265240+942979500+941615360+938331503
884+934927649+933141963+933298344+934379870+935275980+935878783+936646803
874+937587095+938099010+937656821+936337902+934691147+933324408+932489780
864+932023904+931648842+931104032+930053248+928147417+925445274+922783007
854+921385080+921849323+923836167+926952356+931093933+935453672+938167696
844+937843201+935200834+932626855+931941110+932614826+932781974+932023236
834+931827128+933241390+935660770+937700483+937983989+936040733+933255425
824+931642456+931406770+931140268+930302597+929931767+931111606+933977630
814+938285316+943797568+949504963+953565380+954691830+953055025+949706640
804+945776838+942596567+941803893+944012611+947375327+948963792+948033227
794+946368874+945374449+945324550+946573595+948337376+948302922+945882874
784+943664578+944072461+946689804+949648647+951775164+952971414+953505679
774+953206431+951885804+950242910+949127822+948025876+945462070+941351160
764+937929931+937694840+941163295+946814033+952387991+955920380+956326407
754+954105512+951159367+949064853+947973229+947548639+947764795+948189905
744+948242478+948579225+950083262+951528266+950677154+947551832+944260475
734+942473452+943000069+945747136+948762115+950105984+951001277+953313581
724+954978826+952519497+946733837+942088216+941356655+943334291+945718622
714+947840164+949491597+949749782+948604100+947489160+947172388+946735026
704+944559797+940071077+934853691+930889138+928431369+926887308+926480539
694+927586197+929243348+929219735+925922735+920303406+914896670+911147976
684+908449844+905825446+903798802+903726551+905790694+908095795+908123270
674+905547955+901660626+895586708+885083326+873810735+871391801+877774917
664+885117409+890317419+892996394+891305383+884876080+877497055+872773688
654+870766573+870385867+871602983+874184461+876556688+876580598+872945366
644+866952832+862021403+859743628+859365595+860876538+864151336+866990850
634+867454054+866466981+865342684+862730910+857106904+849967945+844885110
624+843894993+844286020+840790759+832901304+825872837+824323282+829764769
614+840114221+849995939+854880588+853501968+846543672+836515522+828260658
604+826723206+832620842+840554999+842614761
##END=
