##TITLE=<SNM>
##JCAMP-DX=4.24
##DATA TYPE=INFRARED SPECTRUM
##DATE=2/5/2025
##SAMPLING PROCEDURE=Instrument type and / or accessory
##ORIGIN=Admin
##XUNITS=1/CM
##YUNITS=ABSORBANCE
##RESOLUTION=4
##FIRSTX=4497.3318
##LASTX=599.83466
##DELTAX=-1.4281778
##MAXY=1.8471988
##MINY=0.39119256
##XFACTOR=1
##YFACTOR=1.720338e-09
##NPOINTS=2730
##FIRSTY=0.41490716
##XYDATA=(X++(Y..Y))
4497+241177699+241485400+241816297+241486786+240509600+239471765+239042644
4487+239492034+240466447+241463919+242496505+243648779+244237554+243565488
4477+242192338+241172624+240572900+240100245+240273792+241450597+242686094
4467+242989585+242885886+243510087+244828044+245744129+245594766+244669083
4457+243526129+242594348+242130476+241776747+240565815+238226966+235952906
4447+235148038+235934439+237259689+238007667+237921448+237769867+238372951
4437+239381579+239591679+238552475+237208446+236846246+237807702+239266291
4427+240189964+240425356+240538201+240677188+240275819+239101128+237862756
4417+237363561+237658875+238379655+239244862+239876391+239769297+238868317
4407+237683440+236684895+235990775+235623742+235735253+236436648+237407216
4397+237847459+237216172+236052257+235522087+236030897+236740884+236632647
4387+235741819+234951797+234737730+234720978+234525777+234336812+234195313
4377+233593078+232371371+231301366+231143237+231776394+232776603+234132706
4367+235752404+236813972+236381282+234515001+232302077+230881547+230632972
4357+231136844+231717546+232042778+232205498+232254350+231955537+231235121
4347+230562067+230548104+231199313+231848356+231977850+231825056+231812600
4337+231637702+230687559+229273595+228592815+229368459+231097018+232635018
4327+233131198+232587447+231866096+231852115+232488824+232958205+232650747
4317+231643679+230440716+229527714+229086241+229026024+229223149+229562101
4307+229854124+230033613+230248511+230505540+230600750+230570833+230674133
4297+230843366+230807992+230758273+231178421+232005065+232535026+232256204
4287+231412600+230652080+230299234+230112244+229769637+229408095+229459234
4277+230034756+230706303+230968650+230822076+230728182+230959919+231274861
4267+231322501+231082882+230787256+230617346+230581764+230591586+230594427
4257+230589057+230524839+230341019+230159347+230270755+230813847+231575407
4247+232255147+232800249+233258543+233435624+233023913+232058023+230993925
4237+230288996+230006692+229868745+229679572+229557043+229610434+229708866
4227+229912296+230642656+231939859+233082276+233344503+232693450+231599608
4217+230543669+229770278+229280992+228998116+228951273+229265020+229980845
4207+230939651+231814749+232338629+232530158+232557148+232462926+232205827
4197+231808616+231350807+230955675+230730521+230607004+230461175+230400387
4187+230593613+230905177+231072747+231043574+230809049+230278238+229648303
4177+229459459+229911257+230507411+230739061+230811301+231319763+232423272
4167+233661714+234451338+234476838+233729293+232485689+231276472+230627411
4157+230634116+230886086+231000162+231048702+231213241+231347568+231265472
4147+231083453+230927178+230792712+230835138+231127022+231183046+230498663
4137+229497900+229243400+230214990+231801669+232929968+233044303+232524268
4127+232086243+231923887+231660742+231006537+230171266+229572807+229354548
4117+229341001+229360334+229462040+229844856+230596038+231422527+231706615
4107+231186268+230554115+230848858+232229942+233784208+234459393+233824520
4097+232156282+230285254+229173933+229184136+229760681+230024587+229654609
4087+229100135+229051092+229800525+230986805+231854246+231900448+231307048
4077+230658819+230245999+229811473+229098957+228332824+227851229+227594339
4067+227393576+227392849+227650848+227784066+227568250+227393022+227641736
4057+228190303+228825383+229541642+230185176+230354341+229906909+229211282
4047+228781382+228857051+229282863+229663929+229690832+229383270+229008372
4037+228750026+228537051+228285963+228162187+228345227+228671932+228820550
4027+228737120+228632642+228689827+228945920+229319918+229653725+229829646
4017+229860031+229780568+229557839+229214366+228916003+228822923+228919849
4007+229054643+229117441+229213084+229677424+230748624+232114082+233030808
3997+233171181+233042692+233183550+233333814+232918413+231931821+230800110
3987+229857675+229428225+229836038+230897970+231885619+232297088+232332774
3977+232504606+233056846+233779444+234274187+234403126+234289744+233874585
3967+233000735+232097954+232027655+232965620+234155867+234909424+235152888
3957+234990758+234537609+234228609+234708834+236318900+238677291+240697942
3947+241553551+241696262+241972486+242021944+240843563+238614978+236603162
3937+235824903+236729866+239259431+242408640+244392288+244215934+242799320
3927+241803858+241874088+242390554+242682196+243080689+244279720+245955580
3917+246542501+244769906+241324897+238211530+236757515+236992959+238753826
3907+242536107+248643533+255756331+261138491+262833183+260654801+255369913
3897+248939419+244474297+244246597+247685508+251118944+251459975+250608472
3887+251766931+254120886+255016426+255376582+257160473+257788866+254261467
3878+249786574+249093252+252405459+257179563+261655304+264310620+263600407
3868+261284113+260771770+261943446+261439297+257832366+253712848+252263787
3858+255210519+263276942+274769786+281264359+275192723+263353114+254089184
3848+249854102+250579178+255180705+261725759+268290267+273673865+276705448
3838+276410948+273848244+271047116+268152684+264398173+260739600+259112037
3828+259590374+260953979+263934994+270479978+278442339+281203155+277817393
3818+273845871+270495951+265043804+258406467+254557353+255781191+261533104
3808+268237413+271985341+274153173+278436796+283223979+283480766+280049027
3798+277171711+274891467+271527168+267997309+266481726+267886092+271957831
3788+277840624+283988519+288915555+293036095+298437675+305746402+312644665
3778+317323854+321804099+329262813+340829905+355388841+369978057+381226535
3768+388418017+392966170+395531958+396867844+398697347+401373798+402965969
3758+402559455+402849312+407647305+418454449+432066238+441084901+443293928
3748+445150560+451206796+459166853+463632200+465446285+470407986+481748140
3738+499306124+519489662+535299494+541478727+540387380+538914499+542127736
3728+551015676+562889291+573655135+581425742+586540202+588798220+587817015
3718+585076918+583804748+587320176+596255791+605051985+604981859+595790411
3708+584828222+577199702+574204499+574951801+576697355+576414947+573702602
3698+570529451+569195159+571655377+579114299+590665419+601969714+607258517
3688+605675632+601376556+596934388+593376551+592265974+594448046+599654944
3678+607285473+613987322+614229227+610061464+608796916+610924938+609052472
3668+599655429+588405807+580577686+576516878+574109081+572778322+574009575
3658+577471231+579670557+579528123+581322841+588600662+598880236+603331689
3648+596181923+583178190+572057664+565379721+562229680+561067860+561519277
3638+563799642+566939289+569453452+572038088+577169248+584643484+588789835
3628+584836121+577232271+572269634+571899500+575848225+582143075+586421986
3618+585922029+583525562+583222192+585608958+588893569+591296758+592021297
3608+591192193+589585678+587779666+585919673+584564835+585171435+589108657
3598+595698666+601808674+604664908+605151353+606725299+611194561+616508103
3588+618080733+613733844+606932211+602152927+600493264+600832043+601808743
3578+602170597+601221406+599764636+599607547+601970614+606745879+612101136
3568+614506820+612042929+607355598+603925332+602206769+600797119+599016052
3558+597714986+598063674+599849106+601124325+600259535+598426359+598179949
3548+599655775+600162454+597900902+594298717+591347827+589028276+586782731
3538+585499058+586303632+588335335+589423530+588896617+588454798+589890641
3528+592765377+595131424+595673789+594330107+591625905+588290433+585218833
3518+582959082+581303022+579798647+578579452+578133025+578058984+577125488
3508+575205383+573567825+572490440+570660937+567796596+565655373+565491492
3498+566527786+567341403+567431173+567287908+567664140+568633772+569134041
3488+568094110+566042727+564584710+564486277+565088097+565262371+564509595
3478+563256238+562377658+562297554+562242188+560605426+556793557+552628288
3468+550842406+552141601+554474214+555239221+554010290+552359288+550984563
3458+548887515+545810960+543460989+543269322+544668439+546121848+546326266
3448+544795559+542601950+541370525+540882348+539604564+537521341+535973934
3438+535287299+534805497+534347913+534067965+533849619+533513750+532712122
3428+530957941+528573773+526725699+525915478+525293286+523923723+522169993
3418+521282335+521683375+522260075+521882838+520837329+520019415+519547419
3408+518881086+517595300+515632821+513473825+512179757+512622962+514475055
3398+516274034+516713567+515890803+514924531+514318589+513495029+512200476
3388+511210055+511102164+511443854+511614179+511439835+510902944+510228227
3378+510121549+511037755+512389268+513175375+512987207+512080043+511132377
3368+510808565+510841896+510124009+508521097+507527420+508173033+509505489
3358+509932099+509175095+508321773+508511812+509887161+511484044+512062546
3348+511245118+509730869+508434376+507623046+506767021+505349056+503774000
3338+502993298+503336408+504260133+505081234+505439276+505247782+504660896
3328+503958461+503273247+502622991+502181414+502144584+502278668+501948863
3318+500804471+499245734+498078198+497750714+497986799+498214673+498112914
3308+497740839+497428843+497486218+497859090+498240381+498514716+498657358
3298+498341273+497407292+496476257+496185256+496227075+496062016+496006962
3288+496620527+497534378+497916535+497666452+497289665+496992151+496633901
3278+496347473+496556014+497346660+498210480+498511182+498094655+497392844
3268+496918353+496602995+495890687+494603479+493182881+492024976+491217734
3258+490801450+490646474+490303988+489462619+488360011+487624177+487864870
3248+489055308+490140627+489904472+488381977+486723180+485753582+485346029
3238+485023776+484667639+484534768+484665491+484562624+483764668+482575685
3228+481819028+481941193+482645880+483188591+482901333+481628538+479821868
3218+478162274+476993940+476219128+475744082+475639795+475718894+475519188
3208+474986663+474575264+474459196+474261500+473730292+473129373+472702036
3198+472077974+470663404+468601765+466747074+465577528+464784907+464037293
3188+463360775+462620021+461432562+459804566+458264089+457229840+456558518
3178+455726746+454365741+452639174+451103755+450211975+449895509+449588743
3168+448842238+447907738+447315238+446969080+446268586+445029191+443693512
3158+442698588+442088106+441687621+441373268+441128556+440851657+440237365
3148+439103817+437726770+436562456+435781546+435272511+434850233+434255135
3138+433196356+431668698+430145301+429277254+429354552+430019013+430502235
3128+430280356+429549614+428839835+428152229+426960267+425143133+423416601
3118+422660221+423036592+423805271+423980585+423217415+421957821+420781865
3108+419946975+419472553+419281544+419209963+419014866+418400747+417220841
3098+415810463+414848349+414707509+415128540+415510524+415362962+414617842
3088+413708946+413202718+413228080+413371726+413170878+412599825+411964328
3078+411411361+410798455+410093561+409567237+409365280+409174721+408592373
3068+407689609+406891930+406336399+405756235+405037759+404441067+404098338
3058+403660746+402739273+401540693+400748488+400707223+400977297+400850904
3048+400053191+398789647+397458022+396426683+395759104+395167609+394489844
3038+393976963+393860723+393937119+393747357+392971021+391695593+390449547
3028+389753418+389547649+389302695+388652058+387653044+386576560+385761454
3018+385481194+385620787+385594801+384867975+383486078+381921798+380633239
3008+379940783+379952251+380338427+380513464+380241901+379771359+379336435
2998+378915473+378499985+378160756+377744576+376912734+375620954+374272421
2988+373239904+372441463+371571926+370600630+369838118+369579928+369785697
2978+370033527+369804164+368987740+368047419+367493898+367332651+367168112
2968+366644872+365711134+364715932+364225884+364408474+364710700+364495334
2958+363814138+363199811+362895714+362642687+362129806+361423769+360834976
2948+360406011+359840641+359074352+358485525+358257686+357979124+357252402
2938+356320812+355670937+355294358+354758299+353903244+353095552+352714434
2928+352680550+352638731+352364395+351819085+351023762+350091444+349246091
2918+348650716+348274380+347951642+347520079+346938562+346309372+345769086
2908+345422199+345368393+345560060+345605759+345127734+344378492+343984312
2898+344026581+343934975+343354429+342544831+341841114+341280768+340902907
2888+340886865+341135250+341134522+340555570+339701243+339065851+338744430
2878+338529791+338299666+338068050+337862593+337686240+337464810+337037577
2868+336343770+335544393+334825883+334198771+333623872+333170758+332849580
2858+332447120+331802477+331143143+330855226+330942190+330926738+330343247
2848+329279062+328349551+328053423+328229984+328315805+328066658+327764085
2838+327695034+327747940+327677918+327502881+327364709+327167151+326658567
2828+325792425+324792130+323957552+323514936+323465702+323512753+323322714
2818+322882696+322440080+322142947+321931773+321733038+321530595+321230586
2808+320691617+319982773+319391417+319053088+318767770+318299861+317680545
2798+317098544+316634585+316202328+315692947+315110704+314550599+314068867
2788+313632002+313201582+312828467+312620654+312590061+312576895+312395622
2778+311999675+311442759+310783183+310089410+309435239+308850951+308333809
2768+307867875+307390266+306814986+306137220+305440780+304776596+304113139
2758+303434923+302851328+302541376+302536144+302576889+302277088+301491535
2748+300502812+299744111+299342586+299055258+298636618+298107765+297644742
2738+297341823+297121918+296832199+296426621+296025165+295743589+295543745
2728+295324256+295047703+294702341+294249123+293682678+293045761+292346237
2718+291582685+290887562+290485777+290409294+290359073+289979272+289269336
2708+288639280+288468175+288655875+288764407+288584364+288320960+288165031
2698+287960440+287459651+286707221+285982630+285489776+285267376+285277112
2688+285370694+285250711+284705609+283896271+283233854+282959085+282948899
2678+282934174+282819492+282713455+282647556+282423858+281891662+281242705
2668+280814519+280691072+280693307+280672518+280605927+280460478+280151565
2658+279656407+279086792+278611123+278303647+278093132+277887519+277679914
2648+277452785+277107232+276636951+276234646+276064599+276058362+276046011
2638+275936768+275701931+275344442+274934585+274570929+274296750+274102882
2628+273966460+273851639+273701964+273456386+273112981+272797364+272681816
2618+272760274+272775692+272465359+271868511+271323617+271135795+271274626
2608+271432080+271358333+271093976+270872495+270844708+270918177+270892123
2598+270755509+270731256+270938463+271184509+271242907+271133145+270948770
2588+270658030+270274331+269980021+269898047+269945132+270009437+270077345
2578+270120325+270021338+269695431+269233325+268869393+268770094+268863485
2568+268938011+268902273+268873880+269012901+269340021+269736037+270064023
2558+270249333+270281156+270210979+270130268+270082819+270002455+269757587
2548+269258497+268572225+267929678+267521033+267298426+267075888+266763389
2538+266404930+266074935+265831608+265708906+265679438+265648689+265542340
2528+265416606+265403336+265494960+265511435+265360841+265169763+265069979
2518+265017229+264897247+264698113+264526714+264478641+264510239+264491581
2508+264386220+264284669+264260711+264292344+264304920+264229719+264065180
2498+263882521+263710741+263488878+263227397+263095426+263204530+263399697
2488+263421074+263224140+262984383+262809709+262624434+262356994+262069059
2478+261836093+261633650+261404494+261142216+260871137+260621176+260437166
2468+260352177+260356005+260420553+260510462+260538664+260409621+260152107
2458+259900985+259719954+259565515+259414835+259277304+259120058+258928390
2448+258779304+258730833+258721062+258661747+258539910+258371699+258145402
2438+257854903+257539303+257268502+257094366+257000906+256902750+256720801
2428+256468709+256237077+256087003+256009948+256008735+256134902+256377813
2418+256605479+256703478+256707809+256735059+256842378+256989559+257095301
2408+257130624+257158931+257227792+257262040+257178298+257076783+257188606
2398+257625020+258269594+259005948+260090591+262222078+266169642+272459209
2388+281515966+293889244+310114494+330438942+354738585+382512426+412863316
2378+444665362+476805980+508095666+537209171+563317632+586460722+606749275
2368+623797150+637066764+645952418+649795607+648417902+642316209+632565419
2358+620414350+605914766+586973844+561811317+533847713+510974559+499225119
2348+500274301+512494144+530823753+547391143+556833540+560021138+560823495
2338+561804214+563022716+563895233+564916975+566596733+567942425+567272386
2328+563960578+558515446+551485490+543244965+534528320+526088956+517797638
2318+508973900+499481750+489678089+479576566+468864633+457528982+445816337
2308+433758677+421250744+408534027+396251231+384979296+374863292+365650882
2298+356920656+348321742+339766033+331420978+323514555+316210436+309601233
2288+303694776+298437536+293799751+289781749+286356108+283460948+280993160
2278+278801318+276790836+274998180+273457373+272092089+270829689+269680532
2268+268639873+267647201+266671557+265747607+264918416+264170317+263429251
2258+262659740+261942944+261373399+260930956+260532047+260111483+259607819
2248+259010660+258446623+258069126+257859061+257647714+257309126+256848736
2238+256347809+255911775+255660446+255656894+255787133+255809948+255617778
2228+255356123+255206205+255184239+255226214+255295889+255316712+255164369
2218+254829401+254462091+254193663+254019630+253881943+253770345+253732042
2208+253826144+254026352+254177915+254175819+254145070+254254988+254408422
2198+254340739+254003416+253658469+253583822+253801233+254117387+254371939
2188+254551134+254651801+254606257+254440228+254335819+254410917+254564265
2178+254628743+254569999+254450900+254291263+254084022+253900375+253821432
2168+253784879+253668690+253496841+253382332+253329859+253256061+253124558
2158+252958945+252813844+252745710+252719915+252616425+252417117+252269712
2148+252277888+252355272+252381206+252416754+252667061+253248370+254069903
2138+254951861+255793508+256608718+257483383+258543011+259875433+261424780
2128+263045656+264716181+266591141+268791905+271270486+273929058+276715565
2118+279531019+282174364+284441720+286222110+287489361+288221471+288334299
2108+287736672+286455043+284639849+282473923+280138417+277808038+275591996
2098+273495138+271467541+269500991+267675351+266087927+264744522+263573798
2088+262530957+261626582+260875278+260262389+259740258+259259097+258827914
2078+258516610+258371803+258356333+258384362+258393977+258392886+258460274
2068+258681582+259029161+259327473+259410643+259285186+259069941+258878118
2058+258822111+258961115+259181799+259317356+259381470+259500587+259697191
2048+259922172+260202830+260627049+261210973+261797756+262125222+262089986
2038+261877028+261731320+261721203+261787777+261888254+262040891+262291580
2028+262634794+262982494+263256171+263482053+263799818+264388610+265252310
2018+266037793+266303033+266044462+265702635+265626879+265787953+265970976
2008+266026065+265938980+265799785+265723215+265775186+265952492+266160946
1998+266289746+266496832+267233203+268594486+269835716+270078904+269362594
1988+268413126+267727911+267387625+267333350+267440895+267585148+267766075
1978+268019085+268289626+268505651+268643148+268772728+269164655+270069134
1968+271197917+271816870+271635960+271162439+270950104+271041174+271295969
1958+271724830+272262743+272642890+272723306+272687204+272828789+273307992
1948+274171380+275537426+277497601+279520729+280342973+279290066+277319913
1938+275888020+275480519+275689614+276009856+276228306+276381896+276561247
1928+276884850+277699056+279253115+281002861+282156382+282976825+284094504
1918+284767696+283730104+281578660+280245909+280607417+281875793+282727799
1908+282563901+281821900+281250518+281110111+281179803+281276832+281545659
1898+282252805+283275205+284047159+284488354+285411006+287100517+288297573
1888+287831258+286392522+285301729+284850330+284709022+284770226+285068970
1878+285540135+286059858+286600543+287666425+290368913+295142601+300059746
1868+301652575+298969576+294763597+291809243+290714326+290760060+291176761
1858+291572291+291885778+292240910+292748143+293527425+294814979+296886526
1848+300062656+304400329+308456425+309285356+306199273+302308166+300272652
1838+300019936+300234194+300528070+302057391+305892716+310827843+313778871
1828+313706632+312607870+311542299+309649531+306991582+305079965+304690255
1818+305209060+305869606+306774172+308519656+310980636+312877493+313098472
1808+312131265+311480073+312344829+315092410+318957947+322103623+323086629
1798+322609851+322981891+325956341+330929683+334279187+332620736+327830261
1788+324388111+324053559+325644275+327635787+329622103+331294897+332043447
1778+332465240+334611695+340011092+347667294+353492884+353854322+350012865
1768+345258769+341603228+340549264+342733519+346277462+348202348+348432162
1758+348860296+349673947+350600479+353323218+359405682+366973014+371512333
1748+371291007+368946580+367379182+367656081+369550894+371938526+373478622
1738+374884600+378955456+386306036+391723831+389831513+383774307+378170665
1728+374160511+372130644+372245152+373707986+376424315+382277069+392720869
1718+404708612+410279269+406050042+397638430+390725718+387551771+388714907
1708+393712606+400190947+405189824+409211655+415779697+425371561+432516927
1698+433277430+429450766+422277787+414084520+409424284+409959199+413981515
1688+420291194+430133140+442629986+449222212+444255626+435633845+430979983
1678+431867676+436558887+441418483+444246549+447073125+451562656+454433684
1668+452116697+448128682+447905451+451745419+455351935+455528392+454627326
1658+457217228+466333838+482786789+501092284+507042188+501858018+500419126
1648+505438272+509294939+505597648+499094257+496480345+499330342+507254055
1638+519712893+533703997+541652586+540287596+537027170+538465681+545268457
1628+554927779+565377504+576729715+588627618+598551574+605964103+614466768
1618+626838192+640088819+648098248+651460121+655369764+661658205+668524835
1608+673867965+677664451+681127632+684570164+687185739+688697806+690121315
1598+692579454+696198893+700273040+704033978+707262044+710198244+713023780
1588+715789170+718675893+721837229+725036746+727889723+730833337+735549286
1578+743342032+752133861+757160456+758978872+763219533+772034575+781914114
1568+788471484+792913445+799182414+809106370+823687444+845217193+872300796
1558+889856528+889021673+882369923+877986794+876490110+876879959+877776486
1548+878727409+881066224+885672827+891417240+896439815+897264970+888794042
1538+874785822+864680869+860638182+858735504+854726286+849419396+846527891
1528+847226515+850187799+854562266+860547753+866385089+868451301+866637527
1518+863461640+858744997+852074123+846321672+845042503+849583207+859065206
1508+869262457+870614108+859502036+847346948+842016706+842981627+847010456
1498+849975204+848405069+843251320+839562448+840682171+845416899+849072025
1488+847731946+842307187+836334451+832318511+830760155+830898259+832182833
1478+834874077+839344656+845226895+850152251+849548699+842364078+834506888
1468+831410827+833223214+835863944+835544636+834262280+837113663+845940624
1458+856173424+857946175+849255169+838902213+832036137+828720830+827540335
1448+826524206+824246717+821222514+819032682+818654059+820466862+824572191
1438+829594698+831732282+828932038+825037363+824019848+825123010+824985877
1428+822608743+820537680+820681535+822289020+824387523+827363358+830356379
1418+829945187+825198679+819593479+815986582+814555312+814065333+813542024
1408+813085445+812925307+812350027+811023738+810501953+812316004+815672749
1398+818516233+819885207+819613436+817365604+814006988+811672192+811182629
1388+810811559+808446898+805203102+804632673+808340254+814699374+821329227
1378+827474229+833402756+838338644+840562431+840111188+839378333+840089845
1368+841951223+844494802+848045987+851960203+853878888+852521486+849712926
1358+848039820+848250682+849255585+849630466+848982497+847882037+846949615
1348+846496432+846652898+847459066+848924428+850906586+852860542+854137355
1338+854666415+854879010+855056472+855283202+855800899+856949587+858833347
1328+861292526+864123814+867140187+870159123+873109389+875938945+878397361
1318+880398021+882499157+885262953+888288541+890737811+892784690+895640716
1308+899977557+905057023+909631335+913115443+915538450+916991686+917757317
1298+918452129+919447261+920585417+921670216+922652461+923266614+922920490
1288+921118150+918110578+914939402+912443221+910556273+908974219+907837172
1278+907187055+906644135+906290042+906928588+908814981+910937390+912158075
1268+912478422+912688037+913345569+914580667+916462279+918951947+921621849
1258+923945419+925764320+927226149+928686869+930622530+933015117+934976002
1248+935578584+934944889+933850389+932569695+930824038+928585076+926266356
1238+924282535+923037320+923043556+924341366+926015858+926877946+926532168
1228+925374333+923851041+922260602+920854902+919777032+919300150+919723260
1218+920637180+921066180+920895578+921235604+922775804+924838205+926355607
1208+926958327+927107379+927751468+929531356+932079508+934640342+937088433
1198+939540613+941642719+943153747+944381915+945473991+946364905+947515603
1188+949612027+952590773+955722867+958473150+960663814+962114278+962806041
1178+963148631+963474799+963526007+963167687+963291031+964954990+967847396
1168+970817618+973617516+976866301+980533346+983518674+985104401+985698598
1158+985975497+986554588+987848240+989113689+988787452+986869114+985497229
1148+986107641+987916772+989958037+992492123+995553953+997987077+998835860
1138+998441854+998027960+999124401+1002658400+1007655129+1011791711+1013791123
1128+1014158520+1013783085+1013306480+1013510274+1015098911+1017745876
1120+1020024267+1020807290+1020572383+1020654843+1021285766+1021434055
1111+1020340040+1018143486+1015882211+1015710639+1019554314+1026325596
1103+1032201598+1034777468+1034908434+1034129429+1032932374+1031748414
1094+1031590840+1032965358+1034834289+1036036265+1037758431+1042121119
1085+1047721677+1049892938+1047085626+1042883701+1040859343+1041655047
1077+1044852485+1050196585+1056898919+1063572843+1068120269+1068061438
1068+1062766814+1055239533+1050714143+1051942312+1056148603+1059098661
1060+1060883261+1063675468+1066235539+1065265490+1061487853+1059922360
1051+1063625437+1070009296+1073741823+1072755283+1069408377+1066029181
1043+1062828278+1059889099+1058633490+1060042516+1062847403+1065188297
1034+1066720251+1067784331+1068306878+1068953461+1071047391+1073424110
1025+1072605538+1068213262+1063962345+1061735995+1059448319+1055575471
1017+1051883897+1050491155+1051522459+1054505917+1059150839+1064346027
1008+1068142651+1068926714+1066765777+1063308140+1060276384+1058217032
1000+1056786940+1055772474+1055124782+1054272950+1052590489+1050500509
991+1049337477+1049674038+1050524277+1051156586+1052319895+1054180789
983+1055012179+1053538709+1050833329+1048595961+1047099069+1045512026
974+1043430154+1041610699+1040902443+1040601222+1038810039+1035123384
965+1031884092+1031243676+1031787704+1029933324+1025135677+1020994869
957+1020147125+1020694757+1018826587+1013635073+1007300759+1001877802+998103837
947+995883446+994649318+994162250+994933701+996435304+995971519+991658238
937+985473323+981292462+980738110+982317322+983907969+984720304+984832699
927+984456570+984283751+984990412+986151573+986805571+986820331+986609400
917+985871209+983796960+980541661+977466873+975473836+973882774+971781499
907+969720900+968844261+969368679+970922945+973183735+975462888+976765201
897+976707341+975532528+973528820+971300598+970071598+970678199+972200867
887+972237732+969427579+965553830+963834574+965685212+970020528+974575438
877+977040645+975682689+970318146+962982880+957208879+955881273+958704454
867+962289454+963643599+962581113+960561189+959125970+959454493+961345321
857+962887323+962768553+961797951+961079371+960370215+959498079+960057282
847+963512287+968170168+970212750+968000813+963663071+960248118+959019257
837+959133453+958539395+955874898+952053189+949630390+950568840+954308435
827+957718329+957888030+955456985+953684719+954553113+957530473+961456053
817+965637329+968872879+969558544+967811848+965805160+965240205+966002648
807+967717608+970513625+973381085+974199864+972833592+971733686+972189780
797+972533410+971352846+970108740+970358337+970801611+970029329+969859350
787+972569166+977136964+980502094+980617676+977160524+971531556+966688452
777+965264596+967431770+970448350+971181551+969617929+968280900+968242580
767+967868115+965892955+963727168+963561694+965749101+968925473+972222834
757+975955846+979241357+979571751+976650311+973426957+971854743+970992170
747+969892611+969020961+968905309+969862399+972287277+975702853+978535042
737+979457762+978357649+976308137+974436434+973007174+971774362+970630663
727+969766427+969918943+972495714+978289533+985831850+990849991+989258167
717+981642744+972117091+963874279+957709459+953479331+951465367+951886468
707+953734957+955472715+957423483+961517587+967050167+969266193+965513709
697+959743657+957119489+958534614+962640290+968294828+972622383+971534535
687+964556757+955528358+947626681+941241021+936527705+934542983+936314418
677+941513001+947963243+953279002+956251650+955927007+951350408+945296459
667+944184843+946803537+945785398+939143974+930830690+924451128+920548968
657+919167521+919597699+919167313+915866211+911670453+909985012+911716533
647+916399845+922847316+926729657+922608597+911390990+900372949+893758410
637+889382972+886246028+887777566+895042292+903078330+906422533+903769469
627+895900499+884722112+874399022+869696932+872114534+878327582+882130166
617+879191403+872518934+870292099+877005520+888334553+894478238+891410033
607+885339176+883192098+887598649+896448893+901686765+896776238
##END=
