##TITLE=<SNM>
##JCAMP-DX=4.24
##DATA TYPE=INFRARED SPECTRUM
##DATE=2/5/2025
##SAMPLING PROCEDURE=Instrument type and / or accessory
##ORIGIN=Admin
##XUNITS=1/CM
##YUNITS=ABSORBANCE
##RESOLUTION=4
##FIRSTX=4497.3318
##LASTX=599.83466
##DELTAX=-1.4281778
##MAXY=1.7438161
##MINY=0.27815211
##XFACTOR=1
##YFACTOR=1.6240553e-09
##NPOINTS=2730
##FIRSTY=0.29262635
##XYDATA=(X++(Y..Y))
4497+180182500+180066782+181031783+182635438+183822976+183737040+182402349
4487+180605756+179294994+179153144+180259114+181845740+182734035+182302302
4477+180972235+179862210+179959725+181196882+182384035+182530858+181910150
4467+181384462+181367781+181832546+182601306+183337585+183693880+183638259
4457+183484390+183503988+183542818+183216031+182652889+182558182+183115415
4447+183535661+183209737+182414736+181578886+180872500+180606050+181023635
4437+181697302+181908224+181547764+181157979+181263789+181956889+182874711
4427+183375846+183024892+182027649+181060116+180669249+180909201+181447478
4417+181850107+181900828+181638507+180948966+179584272+177858365+176722337
4407+176805777+177806580+178876197+179280093+178941360+178565853+178836065
4397+179457048+179521385+178769342+177899287+177660345+178131440+178856838
4387+179324869+179259687+178663368+177780082+176990237+176535767+176324020
4377+176177968+176168609+176360226+176413534+175917757+174993715+174180308
4367+173858898+174053873+174585947+175185166+175552801+175501695+175071833
4357+174548879+174395138+174945453+175995967+176826660+176828349+176076343
4347+175149401+174431876+173754758+172793428+171730839+171270093+171823601
4337+172867839+173436927+173307941+173248742+173868844+174807200+175462315
4327+175929887+176573771+177155704+177068080+176152314+174826174+173695174
4317+173318217+173967662+175253210+176290457+176585773+176454750+176367603
4307+176346646+176265005+176205072+176173252+175978351+175714396+175794240
4297+176217183+176472384+176370961+176262821+176348555+176475449+176583699
4287+176672497+176491854+175915408+175364231+175248457+175343109+175329328
4277+175511311+176326736+177555893+178543410+178886969+178630539+178060607
4267+177508861+177198920+177117370+177043105+176788032+176459961+176372411
4257+176646586+177106947+177568683+177971497+178286814+178544181+178818980
4247+179056382+179133087+179179239+179537864+180258985+180837322+180645412
4237+179646462+178522270+177990269+178170472+178689077+179157346+179416621
4227+179492042+179472242+179417576+179338925+179260733+179311876+179736325
4217+180665891+181796322+182431710+182108079+181196607+180574945+180579827
4207+180649412+180254453+179635947+179217610+179042619+179194158+179865806
4197+180687012+180923569+180569550+180365859+180661156+180986714+180769131
4187+179979029+179121453+178828963+179285268+180004683+180484679+180878353
4177+181552608+182301641+182618941+182499056+182396422+182635163+183210966
4167+183887111+184311578+184250397+183704725+182793675+181805442+181266523
4157+181492675+182160929+182693756+182886492+182868582+182688306+182298320
4147+181915032+182023520+182769489+183582767+183762236+183244621+182484688
4137+181904920+181750244+182085618+182662872+183093798+183305508+183566141
4127+183953797+183987470+183071007+181440431+180301375+180598966+181930006
4117+183173972+183914380+184510847+185023928+184982548+184214577+183164099
4107+182312853+181855998+181981662+182876252+184224798+185210223+185312417
4097+184774250+184167838+183868687+183955760+184228523+184303926+183979121
4087+183515072+183382526+183705441+184110970+184230138+184164278+184219275
4077+184394174+184422067+184141431+183671712+183341439+183368249+183561517
4067+183604788+183596071+183897736+184558797+185291167+185764447+185638984
4057+184794821+183797946+183561719+184298274+185273000+185743233+185757547
4047+185893433+186473237+187158392+187322923+186857699+186332727+186176270
4037+186119401+185874715+185883578+186727080+188131192+189182513+189351577
4027+188887730+188360280+188130990+188231551+188543363+188950856+189319757
4017+189464635+189225564+188589240+187751867+187054271+186779544+186985621
4007+187526082+188205089+188903438+189558204+190119511+190631088+191207222
3997+191746123+191895240+191575389+191249796+191401555+192008958+192692003
3987+193180550+193524035+193850657+193998838+193671776+193060959+192867012
3977+193409381+194119933+194265049+193893634+193669225+193927362+194352288
3967+194641419+195056013+196001856+197298672+198236459+198362380+197929124
3957+197509868+197446008+197782448+198573338+199961044+201721028+202968297
3947+202989088+202306998+202033171+202320981+202265342+201310159+199984111
3937+199308480+200177966+202849862+206259011+208200041+207421188+205363430
3927+204469923+205346731+206467088+206641638+206836375+208449517+210834980
3917+211625925+209463294+205596978+202325862+200908924+201298029+203281541
3907+207350557+213902459+221550054+227139726+228630268+226557224+222065650
3897+216303538+211507197+210105123+212323926+215073573+215104164+213937931
3887+215149049+218547701+220807609+221182658+221660433+221643385+219239829
3878+216370407+216328127+219201146+223171987+227455814+231040945+231697528
3868+230015956+229285750+230048767+229383063+225761379+221583801+220065072
3858+223037862+231410617+243988603+252636909+248115919+236029838+225771307
3848+220560849+220363654+224008185+229707923+235879326+241770406+246284698
3838+247158277+243868499+239206264+235526849+232739839+230316263+228870184
3828+228861834+229850287+232401620+238270459+246221940+250428383+248893304
3818+246169879+243940984+239776214+234040655+230412328+231239553+236134234
3808+242120351+245936919+248521118+252895194+257734383+258367679+255018573
3798+251597057+248781824+245573082+242905535+242344723+243934726+246982295
3788+251336369+256814781+262411151+267600028+273430441+280354602+286310845
3778+289648114+292459970+298084416+307837867+320823841+334417348+345556504
3768+353425920+359114557+363300539+367217760+373233330+382035065+391277581
3758+398883814+406586351+418025281+435193660+455799722+472099276+479595295
3748+484665224+493971783+506323911+514762966+517884469+521618148+529937997
3738+542859066+557440640+568367957+571523445+568531314+564883626+564436643
3728+567039597+569988421+571456613+572195223+572790368+571971933+569479377
3718+567901963+570268598+577198686+585748174+590379599+588305949+583308651
3708+579752497+578637113+579640888+581617390+582373837+581136349+579970354
3698+580903333+584231024+589751716+597472677+606689758+614704952+617391400
3688+613726207+607804335+603854817+603488136+606328436+611178525+617869983
3678+626960850+635435358+637161631+633540479+630906440+629153815+623943651
3668+616437979+611772900+611108389+612293248+613864863+616412582+620555771
3658+624629595+626199301+626787327+631072182+640649265+651032672+653918334
3648+646827898+636347968+628418985+624793135+624540411+625579053+626452466
3638+627110590+628110329+629961019+633564482+640119888+649279753+656550831
3628+656483448+652048852+650225908+653211764+659086071+665079070+669518144
3618+672325706+674618645+677154398+679392506+680630361+681251124+681553834
3608+680776652+679091703+678470574+680232814+683392781+686084808+688030481
3598+690350358+693094647+694414787+693037100+690682723+690553535+693632466
3588+697040752+697453419+695955132+695290989+695004207+692907986+689207192
3578+686517514+686391629+688186313+691599664+697867774+707244249+717055852
3568+723047383+722967448+718289230+711804436+705450666+700210774+696687687
3558+695729861+697616445+700407565+700807167+697900732+694709056+694357019
3548+696514237+698605614+699488789+700259146+701135936+700589309+698210783
3538+695743220+694938145+696125426+698377406+699895071+699378172+697423544
3528+695555090+694296903+693388844+693467898+695435224+698255632+699562632
3518+698306059+695230212+691555770+688923639+689464907+693096923+696101570
3508+695430820+692888901+691688921+691655670+690915482+689946279+690642499
3498+693242553+696421530+698972698+700156970+699559549+697713777+695952784
3488+695120329+695003106+694983874+694549994+694075448+694895131+697081416
3478+698523844+697818815+695979502+694171458+692565858+691485817+691078802
3468+690150484+687749203+685086244+683732853+683838699+684988839+686975397
3458+689480175+691634897+692325319+691723714+691713731+693147130+693861260
3448+691376668+686665493+682957505+681573213+681195925+680321044+678712654
3438+676783864+674795250+673201908+672926503+674483438+677469661+681145498
3428+684545709+686294444+685670599+683482111+680884846+678106719+675269429
3418+673339244+672932522+673456687+674197609+674854413+674938825+674270718
3408+673832360+674173827+673685115+670941339+667711421+667118845+669754425
3398+673193320+674872176+674316668+672583861+670568236+668578081+667320627
3388+667867107+670062348+672135374+672714664+672242541+671329050+669143719
3378+665095512+660862479+658621215+658174562+657826783+657397600+658342874
3368+661240060+664849908+667427207+668098471+667408490+666749338+666759174
3358+666316338+663872558+659830590+656522278+655834793+657598281+660100270
3348+661662416+661733543+661081511+660815648+660819098+660093370+658665623
3338+657514529+656846349+656037823+654938698+654038493+653933455+655011733
3328+656858240+658274316+658574531+658014399+656900960+655664133+655661490
3318+658047797+661579839+663225957+661543431+658161644+655529293+654698526
3308+655449798+656972968+657979900+657357889+655368835+653661132+653703412
3298+655396214+657277514+658037007+657769896+657473351+657523411+657416097
3288+657166383+657916994+660183068+662420808+663006998+662852927+663986184
3278+666332120+667731607+666542270+662797435+657884770+654091416+652986052
3268+653945713+655035222+655155675+654489697+653638011+653373029+654331295
3258+656265664+658092058+658847954+658134191+655936308+653042278+651204213
3248+651565352+653278120+654693828+655306957+655343438+654577412+653086980
3238+651917169+651625175+651332960+650274867+648954948+647904636+646604168
3228+644495322+642321955+641370002+641766814+642513682+642781013+642498781
3218+642314762+643274496+645497116+647337310+647301049+646125072+645425549
3208+645498070+645627111+645197268+643749849+641269954+638659110+636833083
3198+635618643+634447290+633605660+633698147+634129605+633324970+630926479
3188+628647119+628033330+628348005+627710140+625798452+624077096+623692835
3178+624413425+625122491+624725752+623316796+622414976+623134244+624547751
3168+624820294+623451048+621485850+620020962+619243853+618735542+618353263
3158+618347024+618419325+617603313+615617562+613385290+611833714+611097122
3148+610963493+611178342+611181461+610348676+608849252+607666155+607385061
3138+607553886+607507679+607066936+606255217+605202996+604340557+603959342
3128+603773891+603204767+601943864+600346778+599294410+599264242+599739998
3118+599966187+599726235+599161405+598591473+598361614+598145004+597106693
3108+595306063+593743806+592699990+591370088+589489266+588152024+588370836
3098+589538409+590187909+590046462+590060629+590302489+589615848+587670432
3088+585683434+584568527+583830578+582870880+582140675+582213343+582588942
3078+582271074+580976626+579116062+577210540+575847498+575486395+575888676
3068+576335806+576533001+576646738+576510173+575634668+574127537+572848062
3058+572409264+572561096+572690211+572392675+571485753+570133134+569104732
3048+569280237+570569510+571593471+570835446+568363112+566043125+565555000
3038+566524019+567108338+566181525+564272736+562500513+561438419+561037533
3028+560929705+560713645+560292537+559774133+558875947+557050617+554648382
3018+553178759+553739589+555611273+556768752+555654727+552485438+548923375
3008+546565842+545904231+546449573+547298910+547608080+547013816+545806789
2998+544605231+543863759+543687116+543881229+544002599+543462065+541912911
2988+539720680+537783521+536757542+536646154+536996870+537249997+537117323
2978+536699884+536008252+534729071+532888767+531150272+530074268+529669015
2968+529723626+529993232+530144735+530006445+529663069+529128040+528308761
2958+527345283+526525894+525811984+524859407+523616854+522482092+521651766
2948+520762314+519458801+517968478+516900292+516667020+517075467+517416567
2938+517190745+516678544+516397487+516220147+515539672+514121687+512344473
2928+510745919+509661254+509117013+508813972+508343610+507609148+506913221
2918+506528300+506389606+506220524+505762347+505063485+504513152+504199687
2908+503550995+502205789+500720238+499735730+499132768+498511234+497747337
2898+496815019+495768156+494924728+494544431+494486773+494445631+494249427
2888+493864102+493398732+493045777+492791108+492372312+491632931+490638478
2878+489441067+488070244+486736195+485676817+484862603+484210607+483905291
2868+484095439+484423511+484227453+483242065+481939396+481004471+480504382
2858+479946158+479156607+478425337+477724639+476687943+475439224+474556819
2848+474209149+474014890+473645677+473073654+472417291+471822696+471309651
2838+470710872+469934827+469194382+468789385+468709193+468561985+467918761
2828+466692687+465146249+463589461+462169752+460916298+459871271+459089500
2818+458509219+457987403+457480487+456995481+456392078+455501819+454440974
2808+453543448+452969846+452532222+451895641+450900087+449707080+448672476
2798+448111132+448119793+448472418+448703121+448429844+447605574+446440938
2788+445154453+443797319+442359186+441105109+440541013+440767569+441168749
2778+441036148+440162000+438674137+436792141+434904198+433427345+432489522
2768+432014976+431973321+432238413+432425699+432218411+431667307+430882563
2758+429736204+428291611+427189550+426979033+427225224+426930807+425814249
2748+424509268+423513456+422687387+421875632+421273697+420912815+420408028
2738+419535092+418545960+417693834+416927624+416147322+415361367+414610756
2728+414004747+413708569+413780100+414120833+414462043+414338140+413468177
2718+412245773+411334227+410740330+409853264+408473962+407219922+406682728
2708+406650651+406495112+406010363+405443368+404908669+404258509+403423302
2698+402471788+401433037+400389661+399619634+399340302+399395207+399405630
2688+399136428+398553173+397691688+396727843+395998335+395623580+395280828
2678+394657093+393893563+393278012+392764416+392110806+391286719+390491700
2668+389891233+389496292+389240375+389089240+389044648+389019031+388794273
2658+388248197+387573447+387071119+386770170+386480157+386121257+385701029
2648+385092819+384189017+383172873+382349630+381810087+381458123+381213254
2638+381011691+380754453+380398709+379999988+379568787+378984909+378202441
2628+377442618+376964585+376715972+376426437+375971233+375443581+374971348
2618+374644451+374551047+374704788+374894386+374741085+374068684+373141283
2608+372357164+371830686+371459638+371196014+371028620+370883834+370697539
2598+370441586+370068849+369561530+368968366+368325216+367650429+367022326
2588+366530274+366182201+365971463+365959425+366158052+366364936+366285368
2578+365871526+365378960+365008389+364666151+364166796+363488192+362746463
2568+362081622+361595809+361285501+361060817+360873017+360709698+360481196
2558+360111212+359738990+359634024+359868214+360178412+360194267+359775874
2548+359112024+358483518+357990732+357600452+357352316+357292897+357273005
2538+357091371+356810534+356662335+356688319+356718231+356652940+356550580
2528+356455671+356298627+355989750+355547282+355083269+354683411+354375342
2518+354195323+354168494+354227289+354250374+354177192+354026828+353832312
2508+353580946+353233533+352822958+352469820+352247154+352112498+352004523
2498+351903815+351773526+351536804+351171775+350820178+350706368+350852805
2488+350984856+350849575+350480619+350065896+349772031+349710409+349830165
2478+349905990+349810860+349632750+349430930+349149763+348815710+348549370
2468+348389720+348288278+348195387+348039848+347749065+347368695+347054717
2458+346918776+346957569+347095712+347198989+347112044+346816893+346500089
2448+346351817+346377581+346472380+346543690+346513192+346359524+346184974
2438+346108599+346115902+346090028+345914560+345523840+344973763+344479730
2428+344281800+344429082+344703606+344791432+344609762+344419576+344475619
2418+344676961+344785927+344827473+344951596+345059350+344924731+344576951
2408+344273836+344200397+344355423+344602935+344749813+344699606+344531662
2398+344349808+344138446+343843956+343503737+343232295+343111439+343097015
2388+343013777+342632049+341760654+340312868+338312657+335791768+332685605
2378+328914713+324570071+319977844+315625311+311959347+309041131+306430140
2368+303703082+301079851+299213746+298447739+298643521+299647462+301605577
2358+304787306+309221150+314736961+321405150+329208101+336980554+342652968
2348+344780055+343599123+340955615+338751456+337180244+335391322+333155380
2338+330858991+328684853+326434488+323939876+321459688+319591344+318692938
2328+318541692+318656640+318704535+318598873+318519782+318826383+319679243
2318+320779616+321696520+322396484+323231838+324434497+325866244+327300267
2308+328667971+329917717+330889159+331500637+331921819+332424477+333098933
2298+333769022+334203233+334418449+334670952+335059581+335319278+335193870
2288+334835483+334614800+334700277+334990546+335297330+335471037+335467624
2278+335348418+335166124+334910354+334600706+334323319+334134896+334027251
2268+333994184+334043180+334144842+334272965+334495961+334897655+335378550
2258+335694510+335736459+335604519+335400387+335158123+334960231+334910390
2248+335006217+335174785+335364971+335524253+335606904+335658102+335752755
2238+335830414+335754112+335568735+335524033+335766407+336152283+336446956
2228+336577906+336604771+336570859+336518817+336556179+336746107+336968479
2218+337044157+336979966+336944366+337030981+337200650+337397809+337559073
2208+337588544+337483726+337393441+337436822+337559771+337630494+337593316
2198+337508793+337501232+337658974+337956069+338286123+338554481+338701102
2188+338692477+338586595+338579181+338848567+339317167+339685316+339768738
2178+339698051+339724806+339935728+340208307+340363920+340338559+340235796
2168+340199682+340260019+340378086+340576272+340877735+341172555+341305854
2158+341271061+341213000+341286476+341566248+342002367+342417787+342650216
2148+342726811+342818233+343024494+343278575+343431913+343387541+343199374
2138+343071141+343211779+343644449+344172101+344567225+344784642+344918565
2128+344974974+344861678+344637691+344549976+344724343+345007528+345203733
2118+345291081+345336113+345351822+345332884+345338683+345468274+345767058
2108+346175284+346576318+346911546+347235837+347618556+348007514+348288094
2098+348483124+348758896+349176665+349570872+349766892+349810163+349861398
2088+349950508+349989265+349992751+350099588+350316785+350404354+350141537
2078+349635759+349254141+349279538+349707620+350316932+350841318+351118228
2068+351184033+351209724+351278575+351274538+351072388+350764979+350590466
2058+350661409+350864660+351047835+351209834+351410736+351586240+351626465
2048+351581029+351601361+351743248+351953398+352139326+352173458+351990943
2038+351727209+351606059+351683865+351812356+351833312+351742514+351656743
2028+351646430+351680819+351761708+351963895+352305399+352754070+353318827
2018+353904320+354201305+354009468+353515324+353031090+352687310+352506264
2008+352511329+352665547+352886708+353142258+353413185+353600838+353559476
1998+353294053+353163581+353680920+354859613+355947948+356174687+355578111
1988+354730829+354022093+353541786+353275005+353153268+353114805+353174738
1978+353337507+353533308+353695160+353800309+353913788+354277423+355081471
1968+355981493+356231024+355587616+354661794+354114176+354018020+354173853
1958+354526293+355026346+355461988+355644099+355589561+355472411+355484082
1948+355775709+356564673+358044169+359762258+360456056+359407909+357557475
1938+356318189+356042123+356213737+356414603+356616642+356882028+357147964
1928+357421204+358090853+359507149+361162516+362200570+362796193+363607728
1918+364047627+362962118+360898525+359671166+360069006+361277170+362054243
1908+361943993+361411019+361065001+361020152+361051275+361091499+361373914
1898+362134912+363156414+363800519+363999549+364724139+366492913+368058913
1888+367898235+366429567+365194647+364845363+365001306+365174609+365243754
1878+365384759+365758303+366377121+367599158+370381836+375105417+379891316
1868+381337670+378524750+374272962+371385869+370269127+369921421+369615701
1858+369316220+369188279+369288070+369621389+370312104+371579321+373586138
1848+376585316+380742378+384788897+385745842+382645882+378472708+376074363
1838+375633656+375895812+376266494+377713288+381418743+386393653+389449865
1828+389196003+387623874+386172382+384226746+381731070+379985161+379659292
1818+380065206+380422822+381005085+382662214+385360773+387650079+388100916
1808+387004690+385960506+386434391+388978623+392819798+395972388+396802016
1798+395919832+395774532+398399212+403385830+407044417+405627460+400735495
1788+396998551+396470862+398012419+399822261+401312914+402422866+402886364
1778+403238071+405211196+410289860+417742976+423557754+423735461+419362450
1768+413999756+409837446+408341325+410165223+413529358+415425374+415600806
1758+415855658+416413368+417038021+419375112+424928835+431879733+435879164
1748+435184595+432268067+430038805+429709302+431107468+433043562+434102426
1738+435024468+438792461+446211005+451861142+449799493+443228452+437299350
1728+433314746+431459468+431752343+433433071+436467629+442760366+453718916
1718+466095854+471779242+467629447+459557770+453273915+450897554+452872405
1708+458618735+465804777+471420378+475831559+482637157+492630908+500498673
1698+502109852+499252083+493230494+486026469+482025203+483187380+487995227
1688+495081332+505639876+519251880+527641939+524185684+516019979+511245751
1678+512255215+517977727+524815622+529713056+534021877+539540844+543014532
1668+540540583+535891836+535178696+538966619+542843211+543551653+543410647
1658+546628711+555773675+571495479+588572289+593438783+587454740+585231973
1648+589617500+593028575+588403133+579890309+574532827+574592246+580108351
1638+590279001+600997929+603867736+596861052+588762070+585800143+587735944
1628+591588790+595478191+599675147+603494779+604767941+604441264+606514841
1618+612220653+617143521+616496554+613007709+611728969+613715857+617056980
1608+619745850+621552279+623447011+625885947+628371127+630517922+632812549
1598+635863586+639380434+642452905+644718905+646694013+648838459+650950975
1588+652749917+654498358+656653595+659247116+662127786+665883926+671961190
1578+680872515+689248664+691461154+689077563+689036458+693476266+698500428
1568+700091789+699843909+701225193+705893722+715564759+732416518+752489606
1558+759742408+751188699+741757906+737525240+737287857+738781372+740502728
1548+743200113+749710304+761746068+777682574+793927149+805249370+804484005
1538+794595623+787760407+788597119+793188796+795385652+795121697+797462715
1528+804220198+812262220+818571582+824166301+830343906+835352287+838121093
1518+839770221+839704159+836823194+833316990+833000406+838093861+848616878
1508+860770893+864178152+853927383+841945569+836999507+838803587+844233077
1498+849178479+849773918+846320856+843828410+846462890+854065966+861836547
1488+863797488+859445690+853414962+849618892+848755682+849544389+851224493
1478+854470780+859991655+867107195+873034572+873505814+867768695+861043876
1468+858154177+859708616+862925910+864488863+864820788+867479050+874493515
1458+882872012+884560631+877147446+867873220+861825977+859763668+860685306
1448+862343316+862384348+860250912+857071788+854522675+854484286+858203283
1438+864636622+869717011+870147809+868324864+868143047+869675979+870268042
1428+869077310+868340132+869397197+871129857+872943186+875803304+878597140
1418+877210939+871030324+864576579+861239860+861001964+862014915+862916294
1408+863973873+865588723+866630080+866096813+865491832+866978520+870458447
1398+873993058+876057569+876055147+873908646+870971162+869681851+871038178
1388+872899585+871847070+868263794+866591250+869365341+874780224+880043751
1378+884700976+889614888+894182489+896391456+895867364+894748127+894529608
1368+894605286+894626646+895821928+898570548+900652676+899754233+896470877
1358+893009668+890581082+889023193+887954603+887549056+887794880+887728157
1348+886526710+884707582+883303471+882774975+883167677+884189289+884955315
1338+884648493+883418492+882081030+881352806+881400665+881540056+880708702
1328+878889868+877635497+878426847+880724557+882401945+882327001+881586005
1318+881699412+882867168+884475851+886000709+886965655+887235555+887406435
1308+888024849+888811574+889274082+889505666+889925820+890642887+891167346
1298+890653090+888824860+886556511+884853653+883629670+882227761+880511837
1288+878415763+875184009+870475696+865634893+862404020+860783298+859431817
1278+857775569+856519656+856275007+856686059+857040739+857165669+857482400
1268+858318965+859375223+860076215+860311322+860443373+860694629+860958510
1258+861217840+861800947+863079687+865054428+867241888+868931313+869711653
1248+870017593+870987237+873271734+876067552+877957146+878758111+879728855
1238+881878073+884905548+887829379+890029391+891664059+893396058+895642313
1228+898052328+899831011+900461096+900109940+899682372+900375729+902627710
1218+905629347+908373857+910969874+914228126+918151622+921854838+925062002
1208+928473811+932227675+935131100+936133114+935780783+935797812+937730860
1198+941623014+945585707+947619536+948049526+948675500+949974720+951107683
1188+952094576+954027551+957112059+960168822+962327068+963949184+965589871
1178+967230337+968742790+970178758+971543526+972757672+973860027+975117774
1168+977007955+979740500+982565312+984332324+984932827+985264899+985973671
1158+987168586+988789160+990299632+990783940+990167287+989578528+990084343
1148+991752702+993920857+995775071+997103725+998784856+1001575022+1004468391
1138+1005872283+1006250451+1007248354+1008586771+1008302043+1005864282
1130+1003215782+1002778525+1005502996+1010376684+1015036918+1017289486
1121+1016676724+1014825080+1014414100+1016997712+1021193824+1023968869
1113+1024163238+1023548788+1024326705+1026764907+1029079940+1029349106
1104+1028016562+1028016856+1031541044+1037163068+1041254288+1041908375
1095+1040045720+1037468568+1035451107+1034808104+1035905027+1038161778
1087+1040324502+1041466641+1041716061+1042106561+1043439105+1045140789
1078+1045487909+1043352344+1039862215+1038116856+1040213151+1044592622
1070+1047865040+1049267830+1050929657+1054221967+1057817502+1059362692
1061+1058849464+1058633368+1060306645+1063117877+1065092985+1065080873
1053+1063829732+1063228127+1063812556+1063436443+1060041516+1055241891
1044+1052789669+1054042131+1057022629+1059492761+1061442912+1063850211
1035+1066035543+1066531008+1066003392+1067181205+1070824231+1073741823
1027+1072927719+1069548647+1066551781+1065355251+1065622875+1065820327
1018+1064260897+1061096160+1058873687+1059949543+1063969563+1067967636
1010+1068614897+1065413459+1061609315+1060623449+1062075125+1062567728
1001+1060205056+1056811965+1055035557+1054925527+1054610779+1053354206
993+1052074511+1051238680+1050212076+1048471196+1045979777+1042832509
984+1039704547+1037539768+1036049629+1033847709+1030636581+1027919451
975+1026984820+1027268153+1026935421+1024532305+1020299198+1015874878
967+1012481787+1010224888+1008488045+1006239954+1002777131+998501230+994594763
957+991677465+989222160+986394046+982816494+978469247+973776495+969714783
947+966990238+965458114+964584040+963592816+961726417+959418945+958125084
937+958344850+959196389+959985463+960458467+959953754+958244215+956425969
927+955379400+954678629+954082456+954184485+954866612+954918360+953753834
917+952200716+951350278+951482916+951934853+951353361+948729745+945048843
907+942933904+943787939+946293891+948254025+948791256+948274137+947308530
897+946270476+945066092+943446545+941828907+941134448+941675496+942785705
887+943325065+942313875+939718886+936887909+935562044+936071162+936869852
877+936082833+933393669+930392325+929058166+929664762+930371405+929535721
867+927865894+927118145+927441262+927471210+926488501+925206384+924707175
857+925266794+926221610+926944916+927527436+928128380+928518146+928771090
847+929274923+929678562+929142946+927713217+926535992+926939778+929376145
837+932734590+934996554+935200318+934317656+933934497+934752344+936048921
827+936024699+933806043+930884487+929425104+930149951+932396867+935178518
817+937513443+938642002+938829765+939331323+940756280+942491509+943979079
807+944950851+944510878+942060418+939029933+937598663+938270220+940051031
797+941890345+942843546+942035314+939585514+936871173+935203841+934843804
787+935745917+938239978+941968591+945023446+945530435+943636364+941144284
777+939971317+940932372+942999526+944127498+943288584+940982946+938196891
767+936158364+936198075+938415556+941236331+942863511+942404674+940144179
757+937762643+937177114+938189477+938351036+936124966+932999719+931953224
747+934788018+940638763+946349824+948565764+947056467+945022345+945031373
737+946655177+948159042+948818268+948384020+946774529+945243432+944921343
727+944708183+943200354+941293805+940330621+939627941+938397499+938305086
717+940977514+944309535+944747894+942762730+942059610+943817961+945763927
707+946304388+945822502+944085145+940190716+935359821+931847524+929014932
697+924348532+918764457+916467407+918394510+919792235+916030077+908770156
687+903810293+904110729+906473180+905370531+900820547+899196963+904366609
677+911820459+913349794+906332174+895066766+883873219+874405872+869347284
667+871398803+876187418+877966688+876804731+875960091+877312748+879393848
657+879380562+876813025+875094532+877004091+880154588+880072965+875806240
647+869560738+862819403+856487506+851657419+848506114+846519483+845532737
637+846376055+850157885+856600692+862698877+864258380+860483671+855341697
627+852593591+850792007+846046919+838882421+833998823+833772010+836256970
617+840075501+846383395+854283898+858743157+855710764+847195444+838655608
607+833225604+829994438+827037135+824431943+823941763+825913494
##END=
