##TITLE=<SNM>
##JCAMP-DX=4.24
##DATA TYPE=INFRARED SPECTRUM
##DATE=2/5/2025
##SAMPLING PROCEDURE=Instrument type and / or accessory
##ORIGIN=Admin
##XUNITS=1/CM
##YUNITS=ABSORBANCE
##RESOLUTION=4
##FIRSTX=4497.3318
##LASTX=599.83466
##DELTAX=-1.4281778
##MAXY=1.8455013
##MINY=0.33843842
##XFACTOR=1
##YFACTOR=1.718757e-09
##NPOINTS=2730
##FIRSTY=0.35420159
##XYDATA=(X++(Y..Y))
4497+206080080+205694797+205609192+205978176+206194624+205896385+205473424
4487+205344886+205513287+206018438+207018960+208238964+208998276+208911475
4477+208199153+207373205+206878787+206907970+207262041+207360634+206730587
4467+205717841+205444207+206717288+209054664+211002354+211419507+210374388
4457+208965886+208356959+208737352+209174376+208714343+207532000+206572052
4447+206149576+205649992+204739739+203976161+203888250+204267880+204808941
4437+205764467+207290010+208625253+208812918+208014435+207218277+206865297
4427+206674338+206545263+206699861+207089600+207401485+207573267+207860131
4417+208435507+209114208+209503912+209419833+208982896+208354948+207775203
4407+207637354+207936130+208002523+207439025+206772167+206614846+206831901
4397+206987714+207021942+207055234+206977900+206555510+205750300+204884524
4387+204500212+204826055+205368104+205339268+204486774+203211092+202052261
4377+201487290+201928596+203247644+204448540+204508604+203549298+202626926
4367+202395097+202514219+202391889+201955819+201491052+201127149+200835308
4357+200715684+200968493+201624462+202407252+202853726+202637902+201892201
4347+201168244+200950720+201209685+201559595+201804758+202098748+202542552
4337+202831393+202496412+201433451+200031919+198789009+197895420+197265859
4327+196908822+197027129+197620763+198270993+198676927+199076827+199673877
4317+200171519+200379853+200640083+201137102+201413302+201017789+200116241
4307+199203110+198659293+198633856+199041402+199698221+200445292+201013263
4297+201073709+200714539+200512760+200855509+201479105+201838483+201727909
4287+201433676+201319305+201291076+200854156+199829516+198779923+198495383
4277+199199174+200409937+201461506+202009017+202126648+202072878+202018467
4267+201977962+201968980+202079848+202167898+201784783+200862358+200168502
4257+200519990+201776685+203073382+203810726+204088885+204345076+204751530
4247+204973215+204586077+203698036+202898548+202682031+203175980+204178079
4237+205199270+205805804+206023674+206026466+205631092+204636673+203362119
4227+202358580+201883444+201912540+202315873+202902641+203558800+204266805
4217+204816380+204854214+204407758+203911398+203627933+203520047+203675062
4207+204356121+205550515+206777525+207422362+207227692+206506613+205873965
4197+205669238+205667834+205436924+204870912+204284630+204046716+204189645
4187+204421092+204487207+204356346+204056478+203701001+203720023+204565564
4177+206033731+207295437+207760152+207598340+207371124+207426472+207639435
4167+207613079+207178621+206637682+206401259+206555562+206888966+207101790
4157+206923280+206358985+205930960+206293112+207433251+208611867+209247895
4147+209410470+209245919+208542665+207300483+206163482+205704334+205660482
4137+205425255+204997958+204885720+205292435+205981262+206766376+207581677
4127+208193448+208331349+208028775+207581036+207266550+207162010+207114188
4117+206947053+206750510+206782657+207096640+207512562+207924357+208331453
4107+208603856+208582303+208454077+208634460+209065380+209005264+207917161
4097+206269929+205016824+204573939+204722122+205164573+205733845+206315966
4087+206920523+207620500+208281654+208636437+208626605+208393753+208058790
4077+207805235+207965729+208645609+209483209+210045146+210174759+209903466
4067+209408112+208974487+208653447+208156012+207319556+206426852+205920851
4057+205942959+206198924+206311770+206330826+206710993+207705689+209005455
4047+210070375+210642318+210856009+210874007+210568347+209812069+208932837
4037+208453800+208456384+208614728+208795006+209221539+210026403+210913437
4027+211399462+211336121+211100738+211207463+211765429+212386719+212610520
4017+212360676+211892614+211391018+210887446+210505197+210480575+210924361
4007+211736663+212688842+213475898+213847361+213805001+213538389+213127479
3997+212489941+211704117+211211676+211462873+212333314+213139703+213498110
3987+213895218+214873510+215955215+216192246+215667935+215490674+216255830
3977+217422984+218278443+218686944+218714132+218226408+217208356+216057761
3967+215308592+215272231+215950170+217017795+217955270+218483170+218727969
3957+218824602+218785016+218872823+219701441+221715038+224425976+226321023
3947+226350604+225453062+225219534+225487342+224883027+223327070+222111054
3937+222090888+223463775+226280744+229751515+231802391+231041206+228806965
3927+227641770+228441085+229889641+230515543+230656964+231489345+232958205
3917+233617469+232404019+229938694+227617980+226210710+225922510+227377187
3907+231651365+238850085+246859807+252419307+253960542+251802039+246418656
3897+239348664+233963755+233083604+236399066+240092562+240649176+239882685
3887+241615521+245418325+247601537+247664063+248064345+248034538+245158892
3878+241405905+240697570+243741669+248836384+254489500+258441302+257947717
3868+254831659+253823820+255457024+255546565+251720422+246943279+245162222
3858+248184767+256455777+268261003+275439593+270273699+259091931+250350067
3848+246617315+247515776+251502171+256588788+261595940+266549009+270744379
3838+271748420+268791504+264570524+261348904+259059298+257253705+256291867
3828+256154816+256486642+258650052+264767674+272867682+276353712+273876544
3818+270850600+268754745+264460661+258063163+253502243+253524975+258084612
3808+264352931+268951027+272523147+277702583+282736784+283022209+279498778
3798+276333217+273767340+270473293+267709279+267633800+270375291+274613246
3788+279366131+284151459+288549665+293131479+299573749+308006588+315456453
3778+319587060+322542606+328011021+337662721+351040948+365708052+378185078
3768+387562398+395664297+403109099+409530040+415981153+423177445+429230374
3758+432489049+434990717+440111580+449341792+460945707+469889194+473852544
3748+477503576+485017181+493813490+496805969+494591269+494949606+502542834
3738+517394777+535314625+549310519+554923372+553836119+551265751+551503476
3728+555970780+563367344+570918437+576456904+578894763+577534620+573124606
3718+568362704+566381566+569297266+576702742+583822118+584350555+578380578
3708+571084861+566066716+564451962+565641171+567347686+567156467+564949812
3698+562766809+563353645+568681022+578449693+589826010+598274282+599605744
3688+594223853+587420819+583248459+582348125+584233618+589013691+597631612
3678+610258208+622194971+624758160+618597172+612731232+609933822+605639669
3668+597380606+588822055+583502378+581212633+579524220+577367919+576162341
3658+576696778+577451946+578362719+582737153+592601157+604169630+607661034
3648+598654224+584951610+573919897+567145127+563448492+561473389+560726786
3638+561073367+562177579+564135204+568048166+575221571+584967008+591857502
3628+589456333+580777759+573471984+570864754+573017413+578706179+585170781
3618+589718644+593137570+597341211+601252855+602704168+602188769+601238081
3608+599409254+596181339+593522367+593839610+596955165+600213042+601677047
3598+602427083+604512119+608152018+612295179+616808849+622318220+627553698
3588+628579639+624012147+618514636+616367456+616705020+616262240+613918153
3578+611385967+610337346+611088075+613552221+618028437+624755663+632508830
3568+637826288+637557943+632919498+627717451+623591630+620239080+618281940
3558+619131643+622581988+626451324+628622641+628675491+627641435+627072978
3548+627591983+627563824+624598013+619305801+615254054+614476345+615360449
3538+614807043+611600768+607667762+606116366+608389569+612847892+615940558
3528+615650087+613194750+610393664+607569898+604957188+603348502+602548667
3518+601586674+600595481+600604914+601790447+603184332+603564829+602322699
3508+600239259+599218173+600414942+602591669+603357588+602334560+601364590
3498+601537638+601946641+601444698+600242380+599033195+597594922+595568979
3488+594018207+594526808+596699859+598068150+596968828+594335935+591968682
3478+590432337+589383993+588630350+588048369+587204076+585840986+584391962
3468+583583665+583595872+583980045+584331343+584491629+584369282+584062096
3458+583649278+582555990+580008164+576538815+574032985+573858516+575514538
3448+577079252+576990578+575698337+575048801+575701284+575965607+573991475
3438+570442989+567862564+567802951+569283291+570045013+569030239+567152201
3428+565718089+565218227+565811341+567490043+569161325+568945483+566394398
3418+563356628+561907881+562411835+563882222+565227764+565590748+564281168
3408+561424665+558335813+556284104+555150866+554039060+552851653+552391048
3398+553113410+554670424+556549745+558194115+558555712+556587163+552510239
3388+548217474+546032702+546761167+548901412+550189664+549938416+549246259
3378+549004165+548688761+547451105+545725897+544980543+545805659+546864927
3368+546499584+545014633+544147521+544660006+545713898+546311451+546194098
3358+545329275+543670755+541883785+541392800+542913922+545268621+546306006
3348+545014875+542378098+540233033+539684898+540530578+541751346+542464899
3338+542504711+542169504+541521112+540228941+538427440+537135096+537044688
3328+537422341+537228590+536781336+537029013+537821773+538172897+537790076
3318+537344209+537383431+537706119+537856556+537785637+537686490+537583980
3308+537651603+538350592+539536507+540214445+539904069+539370256+539515596
3298+540366755+541248779+541371958+540469925+539214721+538695058+539381458
3288+540576563+540828921+539438019+537698559+537683612+539753909+542250480
3278+543471663+543023161+541637703+540537653+540504188+541061790+541008558
3268+539745309+537740832+536153335+536183610+538050931+540448736+541611902
3258+540919676+539139954+537441657+536490865+536181460+536003973+535702613
3248+535447897+535370944+535329017+535194636+534952543+534492596+533817918
3238+533324541+533251472+533111369+532358316+531390566+531073497+531333346
3228+531083623+529788469+528340035+527871488+528333619+528723931+528141047
3218+526363336+523899572+521670376+520268793+519547228+519239834+519511197
3208+520445031+521498126+521890449+521322685+520287519+519706821+519904213
3198+519987408+518824624+516572054+514525581+513563657+513314524+512872506
3188+511998910+511281645+511194671+511452335+511435377+510849477+509778418
3178+508472791+507276022+506391709+505596036+504414282+502531910+500014810
3168+497443749+495797991+495666142+496485154+496988449+496490807+495303574
3158+493832667+492067094+490282551+489378714+489716487+490178445+489424803
3148+487792882+486791493+487012224+487671956+487855859+487177678+485612965
3138+483704098+482621144+483095517+484339450+484729762+483660125+481941958
3128+480453469+479450901+479059341+479233534+479286974+478567837+477385147
3118+476396104+475668575+475069670+474773685+474767721+474647940+474268067
3108+473900435+473584822+472975618+471976414+471011195+470487648+470311444
3098+470034602+469282208+468013515+466492948+465067852+464050789+463692937
3088+463933227+464255325+464192209+463868412+463673863+463589767+463199698
3078+462333766+461458920+461149723+461191199+460752580+459629607+458593089
3068+458244115+458267038+457970221+456977190+455493487+454288255+454026256
3058+454417642+454578795+454213037+453679675+453072169+452152484+451028540
3048+450069633+449303333+448492124+447637462+446971522+446581003+446317270
3038+446008350+445690622+445571153+445599485+445292508+444391098+443370810
3028+442781684+442483307+441971723+441062060+439991487+439149899+438653505
3018+438033793+436794541+435387791+434805289+435036528+434887408+433669762
3008+432213663+431678255+432084207+432563504+432513497+431935538+430995150
2998+429830285+428676482+427814711+427378416+427297059+427332709+427162297
2988+426582950+425659971+424569908+423411632+422335268+421631771+421421617
2978+421437326+421336584+421025410+420563175+420071670+419753457+419665199
2968+419498983+418874589+417777105+416524849+415418452+414504420+413677917
2958+412987702+412633769+412566839+412404438+411964570+411576929+411609493
2948+411887097+411793846+410933843+409578487+408393057+407796510+407649749
2938+407453987+406815270+405834932+404993170+404547199+404256382+403838847
2928+403344811+402847446+402184073+401290467+400414720+399744723+399116722
2918+398331210+397552946+397100490+396931465+396725402+396488996+396568064
2908+396932990+397025895+396540806+395815740+395198593+394557241+393646469
2898+392579086+391742492+391362411+391251993+391037816+390572390+389976190
2888+389347773+388700907+388153778+387878462+387823045+387700559+387293116
2878+386610011+385749315+384778201+383793111+382982561+382581222+382737416
2868+383300324+383761831+383631820+382901239+381957625+381110142+380411119
2858+379852511+379456026+379177242+378928178+378677034+378388054+377952730
2848+377344080+376747706+376351292+376065086+375608122+374842897+373917178
2838+373067440+372381699+371864602+371642969+371838662+372225401+372303706
2828+371802769+370882737+369848785+368902293+368156454+367657771+367304323
2818+366859982+366139562+365186447+364240336+363545787+363196362+363084904
2808+362982185+362755107+362479375+362245674+361963179+361495811+360857858
2798+360131855+359368710+358685362+358218688+357874395+357397005+356785200
2788+356316167+356081877+355878797+355593597+355277672+354847862+354165068
2778+353364540+352684140+352059988+351269448+350378303+349742847+349596883
2768+349775167+349852918+349554263+348983205+348380242+347765489+346971411
2758+345922166+344757266+343768292+343221475+343089418+342991866+342568679
2748+341861922+341198098+340813821+340716651+340748798+340664598+340287569
2738+339674029+338992137+338228438+337235338+336121277+335298589+334991611
2728+334957245+334849775+334622524+334410705+334241888+334018451+333669373
2718+333254648+332907061+332617700+332187716+331518690+330778920+330152480
2708+329641416+329211744+328921343+328813908+328815503+328760190+328482967
2698+327915932+327102399+326157051+325277871+324712501+324573022+324696098
2688+324751688+324488336+323900251+323234450+322823124+322819933+323044791
2678+323111132+322775926+322152676+321508446+320949317+320455143+320077108
2668+319866953+319719464+319487531+319159226+318806784+318488848+318250465
2658+318082515+317886821+317558100+317035870+316304318+315495398+314875373
2648+314534722+314300535+314117153+314148329+314327828+314244667+313682765
2638+312912130+312321062+312060138+312056254+312110006+311990087+311630085
2628+311226040+311019736+310989287+310844711+310353137+309587288+308832466
2618+308349632+308241572+308404251+308576050+308535962+308265952+307883512
2608+307494796+307165451+306928594+306745697+306516053+306166247+305728703
2598+305350633+305184660+305196451+305149461+304883820+304509947+304203212
2588+303951477+303641760+303260257+302904867+302694089+302671721+302717428
2578+302629621+302374557+302116060+301935591+301714340+301373689+301038066
2568+300851459+300770622+300642484+300399211+300097955+299825656+299628749
2558+299491837+299344382+299137661+298939991+298898550+299067193+299307831
2548+299398308+299232855+298895290+298543784+298271867+298099062+298026444
2538+298017185+297945018+297676499+297259346+296930105+296850170+296922233
2528+296956495+296916060+296889426+296916441+296945884+296905309+296760490
2518+296539273+296317294+296169006+296137414+296231741+296404130+296540522
2508+296520755+296303040+295951951+295601312+295370316+295274810+295224353
2498+295127668+294986629+294878950+294899654+295111299+295444806+295655516
2488+295536810+295175143+294819511+294558760+294347392+294239298+294308829
2478+294431800+294415605+294248973+294015757+293719322+293391190+293201739
2468+293269189+293463634+293532957+293386855+293185717+293117955+293136889
2458+293055255+292870763+292760103+292773246+292801024+292789268+292739781
2448+292632380+292528032+292535765+292578559+292477747+292290793+292221817
2438+292221504+292051127+291744149+291627559+291808409+291989711+291944801
2428+291852902+291941195+292100648+292121040+292038643+292010206+292062675
2418+292141292+292233816+292366393+292585980+292922539+293294366+293534483
2408+293562226+293438665+293252405+293062676+292936480+292925487+293004901
2398+293108834+293218974+293376139+293604257+293841843+293983437+293997239
2388+293943417+293838513+293567740+292958154+291874993+290246852+288092840
2378+285564139+282927033+280445166+278190602+275970579+273583455+271173704
2368+269188959+267989398+267594873+267744235+268157036+268843107+270212439
2358+272797839+276770847+281903085+288073714+295090318+301747909+306148387
2348+307263453+305878724+304118040+303472180+303321985+302406566+300732025
2338+299097260+297824266+296615775+295193003+293666922+292376277+291525672
2328+291004933+290565274+290149421+289925014+289955480+290075122+290193134
2318+290422691+290789386+291091388+291162063+291087226+291081227+291270782
2308+291654400+292144136+292563231+292716234+292583552+292363653+292221123
2298+292101828+291901869+291687172+291607133+291681172+291786596+291815033
2288+291759755+291669936+291581852+291500322+291398678+291221989+290933044
2278+290574221+290244424+289996054+289811961+289697018+289688625+289731315
2268+289664506+289422274+289137057+288962345+288886276+288793788+288639935
2258+288489775+288410273+288394997+288422532+288514952+288662615+288765871
2248+288759039+288715587+288716055+288684809+288475574+288078569+287667954
2238+287461181+287546421+287811784+288051034+288178289+288306098+288563433
2228+288897512+289124711+289133814+288984747+288841575+288826941+288915146
2218+288968743+288875682+288628213+288311248+288067403+288021020+288180803
2208+288448264+288714668+288903113+288968986+288927111+288831570+288700865
2198+288535170+288407707+288428064+288592407+288770362+288867047+288905402
2188+288921527+288886432+288786418+288674041+288575709+288451090+288309635
2178+288271800+288437739+288746191+289012958+289096621+289012681+288885028
2168+288818462+288859799+289028130+289269791+289435920+289438157+289378717
2158+289401206+289495446+289563504+289580843+289580774+289560556+289495221
2148+289417939+289432192+289619007+289936736+290254481+290482998+290623118
2138+290706972+290761002+290809309+290871801+290978438+291166537+291409497
2128+291611121+291755628+291962834+292278794+292540447+292594858+292529315
2118+292540863+292707495+292994220+293342605+293683256+293993216+294342849
2108+294753725+295086469+295221960+295252789+295352214+295551583+295752478
2098+295871253+295898684+295902707+296020546+296349059+296787470+297087651
2088+297115706+296962252+296770686+296599268+296488122+296529320+296793851
2078+297213605+297584739+297753070+297788304+297873129+298055644+298272040
2068+298537889+298881973+299155451+299161069+298948175+298773463+298800963
2058+298989062+299226786+299437703+299570731+299621259+299668908+299794688
2048+299975851+300175740+300490486+301023397+301619597+301937187+301844871
2038+301582144+301472212+301619562+301930285+302304506+302728039+303203453
2028+303666590+304046081+304385900+304816300+305434383+306290883+307359757
2018+308360140+308808122+308532632+307998889+307860590+308308607+309009780
2008+309570087+309892879+310117459+310397249+310813951+311356190+311865728
1998+312195941+312592945+313611292+315324257+316918204+317524323+317200872
1988+316603008+316123259+315822905+315756460+315959055+316339240+316771513
1978+317178955+317513919+317739401+317845241+317957289+318401665+319352179
1968+320317363+320395356+319321072+317848675+316866082+316590281+316736903
1958+317010312+317215507+317215992+317020022+316773177+316615076+316635779
1948+316970500+317868684+319458817+321174626+321748320+320516386+318364212
1938+316636646+315823217+315655441+315745537+315849469+315885813+315877975
1928+315992555+316716096+318418415+320494052+321896468+322687529+323517777
1918+323784458+322376979+320008270+318595416+318901007+320087823+320899588
1908+320801481+320207431+319779597+319679444+319667446+319683571+320007091
1898+320902882+322177159+323236254+323979943+325168737+327040878+328312589
1888+327848204+326476964+325640439+325563452+325721241+325905005+326182194
1878+326528116+326888222+327411180+328740597+331915833+337181793+342449557
1868+344104019+341136127+336497301+333270184+332159349+332257490+332589645
1858+332774172+332868360+333041685+333400646+334096964+335412301+337613962
1848+340978026+345587098+350068274+351321189+348301348+344134155+341920391
1838+341909814+342635783+343298531+344916928+348788379+353886215+356977044
1828+356826849+355557254+354391314+352355141+349399699+347223700+346792953
1818+347345805+347828882+348368868+349881701+352424360+354544109+354825598
1808+353658201+352668881+353229258+355843736+359789678+363096660+364078906
1798+363305913+363175728+365703128+370586961+374214931+372691555+367526927
1788+363483573+362693760+364022206+365809419+367605683+369111719+369646642
1778+369782687+371723493+377195307+385185713+391192623+391156765+386564859
1768+381136220+376933794+375417596+377361662+380923430+382820888+382741230
1758+382667295+382842111+383007114+385121141+391125346+399116722+403884624
1748+403037972+399418672+396554227+395881768+397139399+398929699+399680220
1738+400233002+403866521+411578143+417766077+415949803+409101374+402458453
1728+397507447+394838487+394875767+396855622+400299343+406696287+417451019
1718+429577441+435011663+430343082+421429836+414134153+410699379+411703611
1708+416715513+423435595+428719068+432793842+439194288+448608506+455702219
1698+456580463+453045709+446071049+437597809+432265578+432118366+435695011
1688+441861132+451960849+465292537+472843942+467811579+458035382+451878001
1678+451536656+455769600+461060078+464620945+467853679+472327781+474694756
1668+471282281+465979145+464665576+467653062+470413816+469710493+468066851
1658+470109370+478850297+495117105+513156735+517914545+510766906+507576168
1648+511301655+513940097+508424934+499438273+494166070+494567860+500430333
1638+511034454+522480753+526086078+519353997+511376978+508863623+511656074
1628+516473219+521064813+525616942+529485757+530489435+529787429+531841982
1618+538148032+543842312+543164477+538768126+536419288+537655973+540681258
1608+543291090+544924988+546462235+548554172+550755971+552350300+553543775
1598+555206422+557631588+560201609+562273501+563839740+565161146+566333501
1588+567457376+568794665+570545291+572672982+575168512+578665570+584493710
1578+592983734+600523557+601505178+598064544+597515299+601874925+606790385
1568+607738438+606251059+605999567+608936803+617378901+634340571+656081135
1558+664108544+653611233+641573416+635284601+633656841+634506475+636314218
1548+639354103+645838715+657340050+672713217+688997469+700885473+700196750
1538+689710537+682489622+683513344+688766785+691802716+692332472+695475145
1528+703332834+713179499+722100999+730787029+739924787+746738987+749785115
1518+751481885+752586686+751913291+750719018+752422169+759449229+772163286
1508+787226493+793831371+784723437+771407771+764517554+765293252+771418313
1498+778531862+781323169+779021598+777181326+780661772+788736968+795319513
1488+794880617+789196256+783562179+780753117+780632087+782085134+784874637
1478+789829978+797328949+806114091+812819539+812865801+806013245+798681982
1468+796488956+799834224+804776595+807122138+808006728+811972055+820964786
1458+831072791+833153595+825084434+815392230+809523099+807699404+808056111
1448+807877723+805578441+802326667+800154102+799753352+801253493+805220901
1438+811051815+815003271+813795473+810158764+808395548+808948539+809497367
1428+808799627+808252741+809311072+811780697+815313786+820126319+824322469
1418+823516322+817373436+810684357+806525453+804472322+803185248+802756062
1408+804395681+807784783+810017135+809137469+807454571+808218617+811521854
1398+815299359+818034417+818715996+816606269+813273347+811940497+813866288
1388+816833902+817326828+815083795+813669172+815830155+821068060+827344598
1378+833482768+839391918+844576486+847701612+848449845+848530785+849435489
1368+850797261+852017682+853752530+856363228+858403875+858307329+856581706
1358+854692259+853144677+851703768+850431190+849672416+849450470+849490975
1348+849588284+849703904+849919538+850460737+851614366+853453597+855435498
1338+856295050+855069566+852364540+849897274+849002072+849936183+851984529
1328+853942917+855080871+855763075+856822585+858700935+861359005+864317187
1318+866759554+868318718+869488646+870818236+872292160+873711776+875073826
1308+876391417+877595192+878678978+879766578+881052334+882567872+883996020
1298+884823459+884743420+883982009+883129254+882499693+881827200+880726699
1288+879149432+877402793+875789391+874112387+871870742+869152538+866753381
1278+865173617+864198515+863649062+863691856+864105437+864107656+863378081
1268+862615006+862672157+863623539+864950285+866193871+867191792+868063273
1258+868882806+869091920+868091086+866853880+867556961+870973112+875433654
1248+878920967+881140141+883016617+885071413+886833102+887688354+887894694
1238+888473693+890167966+892633430+894846084+896390891+897956992+900224924
1228+902756832+904516579+905029481+904633933+904243309+904959915+907200381
1218+910309763+913389113+916171195+918851460+921506131+923961746+926013351
1208+927653733+929075916+930446497+931815482+933109491+934155962+935185233
1198+937159157+940598127+944248778+946254260+946732136+947644122+950053683
1188+953044324+955486969+957637964+960420809+963849861+966755330+968061616
1178+968086099+968249229+969682231+972286757+974823174+976186611+976752362
1168+977458911+977767761+976440599+974380948+974203878+976879218+980993734
1158+985152153+989098476+992388118+993771946+992792960+991289906+991967324
1148+995343942+999227080+1001559445+1002344992+1002509717+1003085249+1005302966
1138+1009345974+1013805128+1017530408+1020198119+1020704986+1018367626
1130+1015534913+1015206989+1016664198+1016326286+1012771419+1008645945
1121+1007199695+1008894177+1011590671+1013191173+1014109471+1016302635
1113+1019906400+1022831012+1023653666+1023337602+1023984294+1027012805
1104+1032343788+1037999643+1041417459+1042193296+1041549447+1039594735
1095+1035969331+1032676220+1033143068+1038004290+1044042584+1048078448
1087+1049862332+1049989812+1048264258+1045832433+1045093286+1046048552
1078+1046453324+1046191498+1047319881+1049551956+1050429540+1049435434
1070+1048205928+1047505691+1047311766+1048571998+1052144066+1056945641
1061+1060503352+1061287095+1060349100+1060371572+1062751309+1066116621
1053+1068063080+1067861248+1066536652+1064870954+1063137563+1062436632
1044+1064087002+1067407648+1069814088+1069909386+1068833368+1067937265
1035+1067159139+1066261856+1065657264+1065444336+1064630699+1062302702
1027+1059667867+1059044409+1061272877+1065172106+1068623283+1069702422
1018+1067859445+1064356042+1061116198+1059524088+1059617097+1059921994
1010+1059047877+1057336611+1057122365+1060526170+1066568973+1071830321
1001+1073741823+1072123774+1067904042+1062139711+1056196229+1051531082
993+1049258849+1049602864+1051432386+1053116047+1053665500+1052304075
984+1048281320+1042950753+1040006443+1041402200+1044689346+1045948052
975+1044351296+1041961155+1040246074+1038934934+1037097575+1034187944
967+1030804529+1028261732+1026614344+1024679537+1022127099+1019864577
958+1018181609+1016046081+1013257340+1011331689+1010814904+1009534211
950+1005193866+998870372+993973500+992192737+992013725+991218884+989740244
940+988700708+987715411+985594517+982997204+981675105+981546030+980785452
930+978473200+975416738+972947530+972192986+973778645+976870826+979066626
920+978723235+976844192+975309581+974085137+971690488+967726132+963618344
910+961095244+960701639+961912904+963853745+965450293+965743399+964998357
900+964697136+965349516+965736463+964886344+963113974+960934750+958631029
890+956686443+955260862+953926764+952911920+953475660+955932870+958439671
880+958879400+957186028+954860598+953252606+952996675+953688866+953954160
870+953029689+951868639+951632059+951728328+950812180+948719723+946122966
860+943670611+942293025+942980916+945598690+949055623+952601752+955587052
850+956631651+954956242+951944655+949889860+949536343+949613954+948803854
840+947541056+947462682+949267373+951698504+952854492+952052923+950337287
830+949182340+948996669+949403939+950048897+950528784+950159315+948939588
820+948154596+948801774+950322791+951742269+952619923+952792416+952875507
810+954737280+959816702+966743401+971780376+971654630+966636798+960407145
800+956414144+955651277+957242693+959500499+960698517+960040381+957993076
790+955811980+954874261+955923507+958549048+961362272+962859361+962254145
780+959781815+956717585+955169518+956882102+961277447+965301798+966544760
770+966006266+965741735+965167313+962401946+957783546+953540094+951117286
760+950763283+952588990+956313645+960567154+963454660+963734241+961787089
750+959703094+959559384+961102666+961895426+960309836+957178537+954237210
740+953430023+956763777+964081100+971754367+975867426+975780174+973125363
730+970546569+971256169+975429847+977981869+974294875+967100524+962926916
720+963887522+966114672+965226961+961782511+959902983+962347500+967864293
710+972674606+974479090+973975968+972547890+970452867+967699845+964390089
700+959502788+952061801+943668253+937830749+936955314+940841920+946646062
690+949393257+946048822+939482992+935094651+934915015+936257644+934849472
680+929120444+922082287+918529292+920042264+923227246+923264699+918506196
670+910680689+903897907+902123248+903630602+905075812+905920244+906294221
660+905482595+903168055+900591480+899690175+901571853+905112918+906514363
650+902887710+896916069+894428966+898072888+905013736+909841112+909533579
640+905020880+898501381+892932015+891592993+893963991+895555337+893921613
630+892984935+896500130+900466567+897559571+887317983+876440106+870538516
620+869605861+868880864+865719464+865149758+873034220+886932007+896607843
610+894488405+884672397+876527983+873221208+870898830+866524569+862275014
600+860709261
##END=
