##TITLE=<SNM>
##JCAMP-DX=4.24
##DATA TYPE=INFRARED SPECTRUM
##DATE=2/5/2025
##SAMPLING PROCEDURE=Instrument type and / or accessory
##ORIGIN=Admin
##XUNITS=1/CM
##YUNITS=ABSORBANCE
##RESOLUTION=4
##FIRSTX=4497.3318
##LASTX=599.83466
##DELTAX=-1.4281778
##MAXY=1.8486125
##MINY=0.35366863
##XFACTOR=1
##YFACTOR=1.7216546e-09
##NPOINTS=2730
##FIRSTY=0.39498064
##XYDATA=(X++(Y..Y))
4497+229419211+229359006+229006655+228627837+228654079+228985692+229042210
4487+228490826+227755970+227607102+228247703+229213236+230263312+231613462
4477+232955511+233239451+232065139+230429750+229499617+229355647+229268819
4467+228795089+228366469+228699311+229769952+230798823+231174785+230856328
4457+230138834+229608378+229856001+230804241+231772111+232250844+232242067
4447+232105593+232311412+232809568+232787826+231778186+230385834+229292413
4437+228487121+227882993+227791802+228439726+229555702+230580956+231019096
4427+230683190+229753265+228601300+227661317+227301610+227442585+227401057
4417+226590296+225402049+224916946+225659505+227046872+228119468+228481669
4407+228447204+228503393+228776913+229013579+229016903+228890330+228762545
4397+228512308+227962828+227182290+226390483+225764665+225485138+225693675
4387+226144798+226157123+225336408+224189343+223585941+223751548+224142709
4377+224240183+224065436+223922626+223989236+224230351+224565720+224866555
4367+224893594+224630062+224566291+225102460+225694818+225317367+223860343
4357+222358348+221792302+222307317+223470499+224591685+224864755+223949647
4347+222540885+221737203+221742465+221778384+221348622+220862895+220831927
4337+221144603+221411839+221582640+221936998+222500984+222721760+222165148
4327+221305277+220897481+220892427+220777988+220531161+220380025+220179849
4317+219838698+219796894+220519788+221863326+223071670+223300287+222453520
4307+221473706+221312097+221800870+222045239+221786987+221828047+222829187
4297+224027786+223922591+222400031+221133144+221404153+222625549+223465583
4287+223473545+223133502+222992648+223122787+223149272+222692886+221857336
4277+221187117+221106901+221533271+222106795+222651515+223172502+223517340
4267+223430512+222911065+222190888+221486948+220990628+220833520+220930682
4257+221057705+221086250+221009115+220904544+221029541+221662890+222665155
4247+223480089+223659458+223144771+222135513+221011245+220264479+220246892
4237+220952303+221976933+222650216+222493957+221785447+221422312+221968849
4227+223060037+223940629+224314479+224433850+224618828+224956863+225315948
4217+225465110+225290346+224954128+224663263+224289638+223504981+222290768
4207+221115279+220656176+221330394+222797163+223979715+224047519+223346817
4197+222930106+223295509+224081465+224810972+225273243+225221710+224455505
4187+223352200+222640228+222504291+222465983+222232606+222112680+222446561
4177+223113993+223780456+224272449+224553672+224636329+224702229+225022971
4167+225557045+225881405+225671051+225017363+224205753+223453206+222881187
4157+222450594+222022701+221742292+222038108+222939160+223850615+224354517
4147+224663471+224899306+224663090+223824927+223033345+222915877+223339702
4137+223829427+224205787+224531913+224808064+224989995+225189998+225606656
4127+226069135+225876541+224598471+222844299+221592714+221053793+220877886
4117+221101154+222103489+223820305+225531218+226341859+225794508+224283718
4107+222843867+222250280+222418103+222809021+223116417+223308665+223289122
4097+222904072+222251163+221667598+221335397+221118620+220907573+220910395
4087+221398527+222335342+223433403+224355591+224773911+224578824+224100195
4077+223751150+223473528+222954808+222296083+221950552+222025160+222099057
4067+221795227+221206279+220688806+220515824+220769299+221278204+221630693
4057+221533651+221217046+221249417+221888737+222808640+223509326+223809365
4047+223859738+223811546+223618103+223220019+222830572+222792940+223120069
4037+223442127+223486511+223369770+223418931+223861624+224564612+225008136
4027+224832696+224410083+224372208+224653172+224649623+224286315+224213681
4017+224875539+225914745+226633364+226708958+226294896+225603731+224731622
4007+223925672+223587031+223852640+224527499+225399781+226253818+226767137
3997+226807142+226601218+226352124+226027694+225669008+225481053+225539683
3987+225733973+225977650+226262058+226539802+226692496+226719292+226959818
3977+227854864+229312891+230594440+231024168+230589005+229743467+228914893
3967+228365967+228322968+228905909+229887333+230850823+231655301+232283958
3957+232326109+231404752+230121472+229778122+231006044+232975850+234090182
3947+233731167+233043931+233341772+234290843+234501734+233541463+232306652
3937+231824716+232614723+234583629+236845598+238035247+237477302+235961094
3927+234937555+235099648+235835716+236216508+236404982+237278666+238798093
3917+239572625+238470652+236175863+234320322+233663639+233858519+234697392
3907+236882382+241098612+246457148+250548934+251796659+250547532+247613544
3897+243831023+240820298+240352937+242533219+244875836+244812013+243594616
3887+244123376+246233689+247298791+246941109+247066902+247620987+247049609
3878+245921550+246064291+247788568+250316890+253126729+255115853+254694660
3868+252685005+251523988+251576974+251064296+249176887+247270991+246805517
3858+248500193+253103256+260590731+266811717+265821534+259450001+253188181
3848+249830765+249803675+252081604+255189128+258331463+261346740+263752004
3838+264663546+263879494+262150422+260198203+258223187+256300898+254770894
3828+253990512+254266005+256395585+261068132+266558537+268903041+267569440
3818+265868012+264714403+262410232+259020170+256631490+256825572+259849522
3808+264195839+267436272+269475284+272093966+274791358+275149109+273560493
3798+272398887+271889030+271044807+270162381+270227225+271529807+273941163
3788+277370122+281374561+285123154+288490349+292526518+297977594+303913255
3778+308981358+313701041+320039926+329408804+341643363+354985296+367234292
3768+377783107+387318578+395826927+403237250+410526228+417814063+422981251
3758+424623512+424971864+427451527+433353224+440887558+446635713+450067857
3748+454247909+461096548+469087492+474867256+478752444+484156748+492777267
3738+504317373+517420008+529869907+538861594+542677610+543042649+544178411
3728+548827606+555663886+560878157+562685489+562344927+561470654+560937359
3718+560960243+561191439+561497485+562300058+563446553+563505996+561378182
3708+557690677+554419104+553508860+554869240+555950475+554596430+551655206
3698+549468017+549638662+552456049+557444110+564243380+572012095+577727568
3688+578440405+575768806+573536472+573953823+576754073+579822700+581975822
3678+584639459+588520493+590294727+587701370+583173624+578597098+573893618
3668+569214753+565114225+562075302+560770626+561359972+562420122+561745056
3658+558155008+552728616+548868112+549983829+557032333+566822404+571670736
3648+567582429+559974007+553987454+549780953+545872499+541968754+539253602
3638+538924222+540707008+542672936+543123384+542865323+543993641+546117578
3628+546054292+543231262+540717948+541065123+544597493+549432635+552789410
3618+553929153+554450781+555186226+555976475+557776709+561818694+566901511
3608+570175716+570704892+569923713+569324951+569491406+570136318+570526215
3598+570665320+571812888+575047660+579465105+583010838+585403258+588428817
3588+592571306+595246713+594823789+593083829+591747752+590559782+589187354
3578+588660637+589771610+591790405+593814392+596230284+599862742+603999829
3568+606165622+604768475+601444832+598703022+597208176+596529890+596590614
3558+597630270+599398757+601002035+601591554+601005359+599707503+598279613
3548+596989997+595534064+593637758+591792966+590867767+591311394+592781037
3538+594163021+594219660+592768851+590921429+589913209+590077172+590779484
3528+591039415+590391803+589242193+588443220+588572562+589450816+590099398
3518+589430944+587358350+584646798+581707582+578717751+576642490+576685697
3508+578722701+581350852+583207829+583578546+582383098+580050885+577280963
3498+574887851+573417551+572485635+571152431+569431028+568456044+568814367
3488+569710000+570114369+569865655+569327478+568645003+567543446+565811760
3478+563803145+562121762+561036373+560513914+560372870+560062601+558977835
3468+557385566+556382055+556618444+557569748+558153762+557672813+556280305
3458+554715490+553465376+552291428+550782456+549050632+547704723+547334214
3448+548022401+549164014+549720782+549089788+547655735+546156388+544872484
3438+543745793+542769285+541969100+541462913+541375012+541299850+540490076
3428+538992113+537780809+537533307+538001446+538509780+538588091+538231396
3418+537834263+537721642+537530987+536426314+534261975+532030819+530752801
3408+530524928+531002969+532015136+533160626+533626515+533035750+531815860
3398+530562457+529502272+528347364+526602592+524390788+522875585+523153934
3388+524674262+525534271+524654839+522918480+521797016+521768454+522401595
3378+523139740+523726247+524260650+524913386+525500447+525610713+525316473
3368+525102691+524921626+524181161+522897327+521998958+522140729+522886248
3358+523376752+523331469+523084693+522847819+522350530+521491144+520823694
3348+520792605+520931537+520552476+519936992+519978675+520908272+522034756
3338+522517366+522057951+521043050+520238226+520200524+520744067+521002924
3328+520251208+518799776+517688456+517367177+517367593+517272767+517046799
3318+516350268+514612315+512079510+509955054+509241420+509702601+510233542
3308+510278479+510256980+510602043+511322670+512432917+513774498+514545982
3298+513965257+512312299+510741875+510284365+511140912+512646214+513907199
3288+514483319+514332339+513526753+512594352+512554850+513767401+515198511
3278+515603814+515027589+514535769+514984244+516433842+518200944+519187561
3268+518699688+517149483+515435696+513924820+512681873+512033257+512189603
3258+512807615+513347800+513482993+512963304+511692452+510177214+509238408
3248+508977439+508585880+507566408+506538489+506233967+506404508+506431754
3238+506348388+506485693+506606103+506112795+504939539+503734120+503085920
3228+502844337+502477879+501900858+501517054+501573278+501848373+502022203
3218+502061740+502092379+502058797+501715257+500891045+499512178+497567749
3208+495351410+493584619+492866242+492898716+492699025+491776629+490651392
3198+489903380+489243616+488100653+486696962+485858522+486011198+486821769
3188+487529344+487355307+486004586+484089411+482685478+482121336+481594411
3178+480281150+478426422+476901802+476037812+475386114+474376544+472914691
3168+471352854+469994828+468881984+467990020+467354283+466936343+466601563
3158+466315839+466126499+465925146+465437135+464481884+463229243+462283687
3148+462322254+463222077+463768805+462896297+461025541+459438119+458623220
3138+457979451+456873878+455322704+453754462+452569296+451892291+451551382
3128+451299553+451050561+450847304+450731395+450721355+450730771+450483892
3118+449776213+448811996+448044701+447720929+447636143+447237488+446092170
3108+444388804+442854525+442092388+442094015+442413182+442620767+442510639
3098+442064034+441369995+440495826+439402232+438132627+437082966+436781006
3088+437176442+437406495+436656406+435129778+433817936+433374377+433486756
3078+433412910+432916936+432354144+431903973+431244797+430245579+429512177
3068+429699163+430461784+430689553+429860217+428597398+427728976+427358259
3058+427022232+426359352+425481651+424847437+424771099+425033384+425094178
3048+424613264+423654067+422577817+421819593+421537608+421426407+421013730
3038+420104975+418889585+417747488+416941902+416407084+415949504+415620297
3028+415584118+415666792+415414858+414601656+413418948+412220662+411236261
3018+410489876+409956339+409720469+409766064+409727324+409264724+408562757
3008+408000831+407537331+406874624+405998135+405135530+404401678+403766010
2998+403190304+402694642+402356780+402160585+401887567+401395090+400867472
2988+400471967+399986829+399148666+398212768+397784373+398078440+398583831
2978+398554265+397728565+396471181+395308899+394505183+394032751+393766311
2968+393581541+393329504+392894842+392363486+392018977+392022439+392137414
2958+391866612+390870578+389284991+387660249+386561253+386182816+386276326
2948+386366547+386088371+385442802+384744540+384260648+383947332+383621691
2938+383260460+382944271+382616275+382169185+381717283+381499278+381533379
2928+381610687+381542311+381166332+380284269+378895569+377370291+376111661
2918+375128368+374134827+373014298+372034778+371626152+371976824+372722135
2908+373069552+372549898+371596690+370974524+370802217+370633407+370244169
2898+369795348+369433113+369162968+368913008+368481151+367675427+366644738
2888+365851824+365642819+365944468+366374248+366585364+366474509+366079558
2878+365418755+364537835+363608861+362850775+362364702+362086526+361874337
2868+361606893+361208826+360649323+360004896+359498328+359339246+359465473
2858+359546173+359314354+358806055+358198049+357519313+356662385+355638101
2848+354735612+354383625+354720968+355276454+355333163+354709577+353883115
2838+353292870+352898230+352464988+351911336+351304749+350769654+350418255
2828+350215379+349939488+349399199+348682173+348093000+347778784+347464775
2818+346725800+345568815+344538230+344136286+344308592+344576036+344516835
2808+344049769+343345414+342567836+341800402+341204305+341002329+341194161
2798+341479573+341527107+341151301+340315145+339223247+338327371+337978881
2788+338077965+338164274+337859232+337209162+336554452+336083544+335660342
2778+335101531+334434116+333830749+333428735+333232298+333096932+332813355
2768+332260049+331506879+330780713+330286712+330021968+329771108+329295179
2758+328566485+327852575+327472822+327400777+327279189+326932430+326579819
2748+326394115+326183933+325700942+324984850+324232753+323542038+322910594
2738+322334196+321816238+321373891+321024812+320675283+320132883+319361052
2728+318575234+317994094+317688152+317663779+317804165+317781904+317361022
2718+316698350+316084804+315560407+315001285+314391271+313823978+313369029
2708+313068315+312960022+312971239+312870112+312506423+312044793+311745117
2698+311569487+311250355+310697707+310104899+309669165+309387319+309124860
2688+308775193+308333400+307870973+307473494+307173230+306918596+306626122
2678+306265652+305868381+305465640+305063073+304678784+304366230+304168200
2668+304063335+304004895+303985577+303995617+303954245+303757947+303350670
2658+302708459+301853331+300917607+300110186+299588697+299376265+299348153
2648+299301311+299111833+298831233+298602807+298508604+298496210+298397646
2638+298028487+297375889+296718341+296421158+296540564+296751715+296733089
2628+296467480+296114697+295769460+295404560+294960897+294487323+294155311
2618+294042622+294014994+293934709+293804951+293615542+293276295+292783056
2608+292272334+291894624+291726229+291745063+291844493+291912384+291876725
2598+291690639+291372511+291014742+290651953+290213051+289710187+289345962
2588+289282831+289379700+289304625+288904931+288356039+287921724+287659629
2578+287427671+287122681+286804605+286575209+286439497+286369857+286411558
2568+286592208+286791449+286818107+286583830+286154483+285691156+285357535
2558+285229820+285282876+285428334+285513587+285369721+284955192+284396087
2548+283865683+283512138+283455135+283685241+283970064+283999492+283678524
2538+283220564+282886787+282687857+282478091+282286934+282296904+282490503
2528+282621576+282580187+282520571+282590556+282725507+282748841+282601548
2518+282417228+282324255+282256745+282105868+281937197+281847876+281743304
2508+281471446+281068896+280731501+280636693+280821411+281128236+281300404
2498+281231422+281067892+280989009+280964913+280828006+280515677+280137914
2488+279844436+279708325+279694373+279675453+279537144+279300737+279101669
2478+279062894+279192219+279352997+279392240+279353724+279412406+279544397
2468+279506557+279209893+278843867+278582707+278416009+278287134+278194593
2458+278135236+278067813+277968365+277881468+277874820+277952024+278063295
2448+278175777+278255993+278238215+278098850+277900474+277704210+277502182
2438+277267835+277045398+276963157+277083377+277248033+277246440+277122810
2428+277082512+277145556+277167921+277128799+277139722+277243947+277376821
2418+277471145+277534137+277644022+277843870+278044617+278106293+277997516
2408+277820241+277711619+277746101+277903434+278114343+278317583+278478655
2398+278617120+278794360+279009630+279173576+279236499+279244566+279213217
2388+279011673+278395687+277142353+275142531+272315503+268496976+263582086
2378+257771735+251529648+245281416+239190102+233184075+227230516+221595588
2368+216697281+212721594+209567176+207133870+205584981+205423684+207284764
2358+211516435+218005557+226556350+237245534+249580511+261235712+268870273
2348+270448624+266696396+260879121+256380854+253954593+252456925+251226649
2338+250389160+249918338+249320908+248199272+246870742+246099379+246211636
2328+246823312+247411775+247850764+248445528+249615477+251506106+253884712
2318+256352638+258568544+260392546+261951475+263487745+265110930+266769982
2308+268389947+269913719+271279604+272460702+273490109+274389482+275093959
2298+275506930+275646780+275688965+275796635+275941245+275981578+275919971
2288+275966726+276272754+276670735+276825125+276633812+276315787+276066346
2278+275833367+275534661+275262388+275098771+274936366+274649846+274282262
2268+273964653+273788798+273764373+273788348+273734236+273633023+273625649
2258+273738391+273874207+273968271+274002372+273961866+273877825+273826708
2248+273870070+274030259+274249806+274379823+274326404+274160156+273984543
2238+273816893+273684573+273685456+273867352+274155274+274429417+274601066
2228+274616437+274459520+274182399+273906525+273742251+273708132+273758886
2218+273842460+273888003+273844987+273791360+273859251+274017432+274097354
2208+274038153+273916773+273773375+273620040+273565686+273706488+273927350
2198+274007964+273918816+273853850+273959581+274158182+274266233+274201510
2188+274045077+273949005+274000001+274150566+274275927+274277744+274124168
2178+273861172+273634892+273609827+273782532+273951446+273947049+273816598
2168+273711941+273688952+273720371+273826552+274054771+274348041+274560889
2158+274628070+274634250+274684986+274769512+274805794+274790025+274810711
2148+274897972+274972008+274990149+275012998+275063112+275065466+274999427
2138+274956411+274983917+275025046+275062402+275166766+275349493+275512487
2128+275611328+275755021+276056497+276449094+276740668+276841518+276864939
2118+276980381+277224871+277498703+277709680+277862911+278011727+278175413
2108+278336139+278489405+278654164+278837635+279028360+279223083+279419417
2098+279583033+279669862+279696502+279745092+279866697+280008243+280085966
2088+280114269+280184998+280320347+280438127+280475586+280470531+280515729
2078+280689489+281004536+281367464+281624677+281715141+281762484+281962712
2068+282370594+282821458+283084609+283084245+282953362+282893590+283016527
2058+283274901+283508659+283597547+283595833+283675772+283920713+284222465
2048+284416981+284480077+284531887+284660935+284814685+284887699+284864711
2038+284834782+284888617+285031756+285204201+285377355+285581045+285807654
2028+285974144+286045705+286104300+286232293+286439583+286740540+287142034
2018+287510380+287635014+287511990+287418220+287623018+288110977+288627810
2008+288957969+289102424+289177948+289242256+289320048+289491870+289769752
1998+289997850+290133095+290483940+291318711+292336624+292918423+292870300
1988+292532888+292264025+292189418+292324161+292644990+293077816+293522551
1978+293873431+294059482+294115082+294144267+294236739+294505879+295061158
1968+295755231+296140904+295942494+295397843+294926346+294710106+294748154
1958+295040836+295524624+295998925+296274782+296331317+296288423+296300124
1948+296526820+297167716+298309121+299547117+300032463+299368960+298196673
1938+297414387+297272097+297462129+297656800+297745533+297782023+297872659
1928+298144638+298783076+299824566+300870731+301494593+301920287+302529125
1918+302884332+302263446+301011602+300258466+300568216+301522740+302292874
1908+302406291+302052053+301692173+301544377+301571416+301772942+302267809
1898+303111304+304065343+304695991+304978910+305492610+306483866+307207331
1888+306933760+306102174+305590655+305574003+305704453+305804160+305969196
1878+306289090+306701941+307151696+307953370+309762363+312731907+315648551
1868+316594108+315156870+312899955+311367476+310927795+311176198+311614702
1858+311974756+312248847+312547033+312930941+313452880+314254762+315546143
1848+317610221+320566817+323540411+324573281+322963321+320545733+319223816
1838+319234791+319758634+320277354+321266844+323415500+326246042+328172954
1828+328569290+328372126+328032290+327009391+325416707+324314077+324295936
1818+324947356+325626369+326306386+327437994+329074369+330487476+330953919
1808+330669684+330495370+331194463+333031257+335519228+337499871+338095656
1798+337748100+337882809+339629347+342730726+345108812+344652790+342176277
1788+340220908+339998852+341039927+342562089+344285327+345883031+346797533
1778+347234376+348445333+351494124+355899694+359316085+359688499+357754559
1768+355343653+353497096+353038616+354431713+356650164+357882102+357994411
1758+358153527+358599647+359251033+361122551+365087194+369860261+372622947
1748+372387250+370784630+369560793+369444399+370434408+371832110+372686580
1738+373489742+376212407+381315304+385264817+384340864+380591146+377260336
1728+375125737+374234119+374617195+375885000+377996750+381945641+388398809
1718+395463030+398831991+396947525+392839692+389441649+387919280+388681936
1708+391654838+395734109+399259348+402249421+406489263+412263453+416682767
1698+417797030+416633017+413553969+409458772+407048523+407651960+410375767
1688+414454449+420706126+428848743+433956591+432213654+427658523+424895698
1678+425254852+428135386+431650862+434215934+436483580+439336834+441147766
1668+440055107+438019106+438111024+440494545+442724352+443005990+442544983
1658+443827397+448756257+458131158+469009353+472991722+469925967+468354194
1648+470486716+472361281+470226128+466306596+464384150+465549098+469630100
1638+476227186+483377335+486597809+484251228+480796580+480008201+482062447
1628+485252939+488326344+491402554+494243102+495729328+496413188+498624126
1618+503038663+506792466+506779172+504666764+503750392+504946705+507287851
1608+509474486+511036739+512408578+514077774+515941052+517558490+518836058
1598+520150947+521822255+523739368+525601816+527302793+528887514+530313154
1588+531486134+532460183+533431948+534544722+535888138+537870338+541287872
1578+546287911+550747697+551564015+549948135+549906521+552486896+555305667
1568+556164534+556098547+556967281+559596885+565147876+575109561+587016160
1558+591326420+586333443+580794984+578427838+578662946+580371471+582741560
1548+585852217+590805173+598408471+608101258+618426632+626628935+628208809
1538+624151695+621542067+623848904+629410835+634330347+637449660+641401250
1528+647970986+656054887+663900875+671652418+679769416+686820446+691622456
1518+694936406+697064878+697751126+698226813+700700798+706698533+716568854
1508+728273927+734843801+731113851+723962559+720630469+722214914+727047113
1498+732131626+734322069+733460571+732989524+735839350+741555897+746431856
1488+747106611+744557845+741958741+741120993+742160372+744494836+747794729
1478+752134555+757367383+762837362+767313662+768843129+766718881+763476596
1468+762112546+763266242+765250761+766154496+766561496+768645999+773319429
1458+778758665+780728713+777679057+772835156+768881419+766767626+766550763
1448+767010801+766368105+764372853+762292157+761121844+761305887+763338114
1438+766986013+769949117+769896494+768255203+767709998+768399778+768662548
1428+767950749+767562861+768499831+770513017+773142310+776050991+777853060
1418+776578262+772677564+768624950+765888887+764481839+763843297+763665486
1408+764137087+765099677+765557984+765096977+764972550+766459019+769171124
1398+771749317+773386454+773965864+773627829+773038864+773082901+773796362
1388+774086897+773049181+771787123+772659976+776646118+782525589+788364000
1378+793331150+797889363+802450344+806456012+809114940+810496785+811266539
1368+812084415+813568114+815982136+818705181+820504966+820776253+820181956
1358+819745460+819891143+820434201+820945547+820922559+820007953+818419839
1348+816866414+815896554+815758972+816669839+818580547+820843763+822544186
1338+823209455+823132320+823076304+823661599+825007508+826952006+829293395
1328+831670096+833655931+835260525+836988299+839289666+842149532+845095326
1318+847648800+849805037+851792188+853587818+855132934+856708169+858664785
1308+861146525+864179770+867446497+870181452+872040784+873600440+875293039
1298+876641025+877160957+877120866+876934331+876646703+876203837+875403271
1288+873707556+870843743+867419008+864503957+862791140+862161253+861730920
1278+860538449+858505253+856496638+855429978+855592972+856580696+857622775
1268+858211879+858489120+858762484+858920700+858764284+858464124+858293791
1258+858399453+858911560+859796877+860827808+862102121+864002998+866268498
1248+867972868+868815948+869546788+870910977+872984817+875475905+878034157
1238+880316136+882050695+883129195+883800418+884733996+886474718+888823792
1228+891102448+892955825+894540616+896123329+898003711+900561547+903736044
1218+906578877+908076285+908507380+909299845+911278133+913529854+914616940
1208+914688189+915422699+917936913+921772248+925746826+928793643+930420602
1198+931231969+932403390+934138434+935726895+937291883+939744888+943036749
1188+946113340+948450574+950322092+951912214+953164578+954354279+956277866
1178+959433530+963055395+965653183+966647832+966836029+967426933+969074179
1168+971378177+973354111+974509053+974949011+975117267+975938674+978003998
1158+979986510+979830787+978004760+977136061+978757342+982421651+986838334
1148+990123617+990542111+988942295+988809698+992337948+997889563+1002071034
1138+1003332053+1002778055+1002111263+1002252930+1003768895+1006849225
1130+1010316820+1012196093+1012352232+1013064516+1015634884+1018109839
1121+1017826920+1014822340+1011398990+1009899019+1011302260+1014685866
1113+1017858494+1019340115+1019680643+1020660128+1023520686+1027433225
1104+1030020558+1030427003+1030508846+1032221663+1035272012+1037801251
1095+1038386546+1037115141+1035429258+1035033614+1036410959+1038079531
1087+1037677794+1034694541+1031658941+1031430930+1034103568+1037269756
1078+1038277215+1036409989+1034607574+1037053863+1043893154+1050334378
1070+1052497263+1052140394+1052817849+1054674758+1055136804+1052810995
1061+1049635043+1048611659+1050239518+1052767580+1055098652+1057192226
1053+1059055574+1061354172+1065409347+1070853914+1073741823+1070368326
1044+1062940624+1057067177+1054958508+1054542092+1053494751+1051565901
1035+1049884519+1049887981+1051918684+1054157596+1054889544+1055200021
1027+1057015315+1060046138+1062865013+1064963849+1065784011+1064098682
1018+1060393174+1057453750+1056984226+1057703087+1057382778+1055217400
1010+1051973108+1048968043+1047088770+1046241328+1045722020+1045180000
1001+1045016660+1045559165+1046148822+1045619681+1043977697+1042417695
993+1041420692+1040783674+1040848484+1042107079+1044306593+1046789925
984+1048891532+1049654500+1048459814+1046021141+1043551172+1041153975
975+1038304842+1035314595+1033235492+1032245413+1030661523+1026852153
967+1021818462+1018436726+1017853993+1017925311+1016352499+1014022813
958+1013237965+1013544633+1011495027+1005219220+997393658+992170246+990502574
948+989520874+985810450+978792378+971053021+965767085+964078917+964902817
938+966912402+969370600+970970001+970554900+969084288+968218636+967643381
928+966165775+964375200+963895290+964886822+965885833+965560469+963810192
918+961520735+959767411+958925785+958494829+958100154+958073012+958601668
908+959017322+958401076+956741505+955174579+954715787+954991228+954921848
898+954545800+954968309+956333606+957200227+956307848+953769122+950418683
888+947352479+945818857+946081558+946808174+946581202+945428406+944379334
878+944276234+945146941+946048668+945879028+944711969+943533139+942811023
868+942379858+942093616+941744502+941189534+940791190+940890551+941168624
858+941572299+943089718+946063140+948638494+948745956+947130769+946248360
848+946534810+946123103+944231504+942256194+940728873+938238686+934264038
838+930462562+929156674+931617158+937083121+942661185+944796304+942346069
828+937720208+934270408+933233868+933685597+934951879+937879878+942973255
818+948505482+951807660+952034425+950824713+950405527+951261278+951774355
808+950599264+948960327+949288183+951650275+953021111+950810449+946007955
798+942028737+941543287+944836049+950087434+954666141+957106267+958017896
788+958636288+959302180+959598601+959096326+958276511+958591558+960530517
778+962523346+963005611+962279825+960922007+958356554+954395754+950533000
768+948598542+948518222+948257322+946441058+944297630+943888138+945509834
758+948007846+950399019+952627406+954918040+956814831+957517075+957455866
748+958581726+961396516+963108434+961075237+956560647+952800508+951378919
738+952110659+954712602+959172284+964803664+969639394+971307759+968816256
728+963656546+958443798+954682413+952433877+951260932+950610481+950231455
718+950754433+952682868+954645853+954437368+952330015+951620501+954537145
708+958559569+958487281+952894745+945883875+941765344+941582824+944019627
698+946824723+947606317+945631144+943000536+942477142+943820212+943416744
688+938651640+931292901+924648177+919809954+916738211+916002939+917119798
678+917156981+913664528+908457804+905782881+905801022+902892064+892940385
668+882324959+883207022+893784780+902914014+906095920+904993532+902586849
658+901417021+902783425+905990189+908727498+908669682+904499428+896870233
648+889163766+885372607+887028993+891097047+890297036+880167960+866223699
638+858930324+862973452+874466093+885717982+890553920+887109036+877721810
628+867123695+859383923+854780150+851481088+850035680+852697862+859243017
618+866224530+870426635+870904606+867958881+863405863+860498151+861663410
608+866686645+872713461+876194697+875566126+872645536+871344011+873577106
##END=
