##TITLE=<SNM>
##JCAMP-DX=4.24
##DATA TYPE=INFRARED SPECTRUM
##DATE=3/5/2025
##SAMPLING PROCEDURE=Instrument type and / or accessory
##ORIGIN=Admin
##XUNITS=1/CM
##YUNITS=ABSORBANCE
##RESOLUTION=4
##FIRSTX=4497.3318
##LASTX=599.83466
##DELTAX=-1.4281778
##MAXY=1.7739577
##MINY=0.20734693
##XFACTOR=1
##YFACTOR=1.6521269e-09
##NPOINTS=2730
##FIRSTY=0.22845989
##XYDATA=(X++(Y..Y))
4497+138282294+138369195+138512171+138300648+138153650+138566630+139125633
4487+139046677+138384745+138017286+138573241+139700447+140290405+139543798
4477+137987811+137034688+137363138+138254803+138590973+137950895+136678179
4467+135385160+134544987+134347499+134753245+135560840+136502617+137394056
4457+138089153+138346124+138027325+137327421+136592152+136110833+136101813
4447+136496005+136771593+136427891+135553706+134653048+134121491+134061557
4437+134346579+134740590+135112757+135522084+135968552+136203777+136009870
4427+135565801+135300234+135392845+135528857+135198910+134332842+133547597
4417+133472195+133924030+134169492+133878473+133288831+132556809+131642018
4407+130813083+130573898+131013999+131724988+132322549+132616716+132445275
4397+131908072+131543689+131673433+131814072+131321506+130372703+129770325
4387+130011008+130935142+132038772+132750049+132487838+130957700+128688730
4377+126962926+126751602+127749551+128789296+129177103+129198434+129332128
4367+129505264+129327609+128760732+128250470+128191826+128430785+128420674
4357+127857198+127031762+126508358+126617655+127324567+128359261+129308010
4347+129771552+129662661+129258557+128889177+128659408+128426420+128025364
4337+127619970+127673473+128308410+128893245+128670809+127722367+126933189
4327+127012659+127762485+128325592+128087102+127212005+126277642+125669402
4317+125503031+125788963+126340976+126802742+127047456+127333442+127890551
4307+128560637+128964714+128835891+128182157+127359824+126885729+126902767
4297+127001177+126894487+127013651+127959631+129568814+130963734+131430884
4287+130963400+130066224+129237524+128614807+128077000+127656435+127634157
4277+128062623+128441311+128223438+127587816+127342777+127951784+128915739
4267+129342861+129008882+128544691+128573075+129008503+129340399+129314053
4257+129132745+129129958+129400098+129795174+130265823+131008479+131998049
4247+132641762+132402569+131612931+131161619+131438757+131951058+132021833
4237+131636453+131341005+131389764+131449896+131237138+130933149+130789326
4227+130820506+131013611+131372167+131749168+132055034+132494710+133207278
4217+133888566+134200140+134309807+134567626+134842031+134654482+133871672
4207+132932764+132460265+132744809+133496926+134113329+134233268+133951052
4197+133595833+133473241+133680290+134039902+134252020+134043419+133254332
4187+132113425+131348879+131560231+132497254+133379476+133845967+134192302
4177+134774648+135521642+136088239+136311072+136316808+136238475+136089349
4167+135946427+135983696+136218353+136397775+136246475+135806023+135452120
4157+135474001+135738946+135962509+136154514+136529747+137072425+137448759
4147+137368450+136885949+136336813+136046678+136049799+136074304+135931446
4137+135854619+136158771+136666923+136904195+136811693+136833420+137279817
4127+137908152+138161497+137705207+136736606+135807313+135393891+135662678
4117+136456374+137337225+137859014+137995883+138061310+138138579+137933199
4107+137261354+136401013+135868780+135984561+136634038+137364671+137769740
4097+137814016+137737965+137701770+137674658+137620884+137578827+137546917
4087+137488778+137490311+137721081+138183865+138607487+138677316+138412831
4077+138214188+138316712+138365985+137958408+137350141+137031549+136912827
4067+136640577+136407228+136683049+137372121+137847424+137685869+137011147
4057+136246367+135774238+135771984+136152277+136586298+136788017+136860100
4047+137111118+137547259+137863966+137863199+137590228+137219766+136981672
4037+136929071+136823373+136579191+136540967+136947516+137538934+138021237
4027+138439601+138840882+139038966+138915184+138612980+138390364+138499562
4017+139080473+139931722+140493963+140326049+139575393+138776619+138264688
4007+138003802+137927751+138147851+138726092+139427160+139865962+139905070
3997+139771790+139714517+139673840+139442998+139045027+138743283+138785864
3987+139293159+140192950+141099560+141496097+141255767+140876710+141096638
3977+142261762+143938654+145112274+145018761+143869629+142602288+141970391
3967+142064796+142624909+143437672+144267311+144747124+144717802+144470554
3957+144335047+144299754+144370457+145022765+146736493+148948938+150121205
3947+149632066+148875908+149286380+150176737+149763181+147816347+145858294
3937+145306831+146663562+149569011+152656156+153986226+152844499+150812423
3927+150015859+150797352+151692381+151728206+151948982+153718549+156375153
3917+157419327+155263064+151185357+147737229+146239976+146552804+148532459
3907+152741245+159267542+166323783+171119387+172458080+170810023+166602373
3897+161045172+157006889+156812557+159717393+161981528+161202362+160168236
3887+162317157+166390165+168610863+168982335+169884147+169948996+166718723
3878+162781403+162316201+165568193+170283651+175003349+178245546+178073203
3868+175889774+175098558+175653953+174399447+170313578+166229205+165265196
3858+169055717+178297804+191216083+198894750+192886472+180329221+170388348
3848+165669012+165830873+169540148+175076821+181205634+187376171+192213301
3838+193089282+189523343+184453712+180180275+176760270+174096703+172885418
3828+173171964+174320510+177166954+183346096+190828953+193753992+191389453
3818+188514724+185660234+180185813+173651218+170246907+171844780+177549953
3808+184053666+187878136+190127137+193995044+198190066+198615438+196103649
3798+194064511+192108226+188925521+186127799+185871685+188163636+192015164
3788+197000716+202787804+208591775+214411675+221615905+230728131+239825962
3778+247170985+254159508+263393550+275955040+290851990+304995840+314962688
3768+320404153+322948628+323433655+323426150+325513776+330271139+335557109
3758+339954598+345409953+355362839+371801923+392385845+409248119+418199493
3748+425345981+436190776+448671002+455974211+458278879+462821400+473655011
3738+490554516+510027539+526033332+534323550+537011939+539861017+546547047
3728+556964829+568133672+576402604+580532507+580807165+576870458+569785013
3718+563141481+560507317+563400265+570167326+574675645+570347714+558898476
3708+547498339+541027403+540988475+545813916+550985737+552691374+551969571
3698+552070264+554505605+559361603+566594641+575502795+583053965+584744341
3688+580289236+574906578+572385336+572756790+574845787+578343467+584736079
3678+595421772+606279736+608242714+601733318+595195314+590054014+581941406
3668+570811021+561416001+556570393+555657596+556562276+558167473+560645710
3658+563058827+563440925+563171173+566883333+576393152+587368295+591183493
3648+584453195+573617095+565613188+562609049+562979998+563361770+561851493
3638+559892989+560115154+563456330+569468288+578041787+588252772+594998980
3628+592892521+585691376+580511618+580032905+583745968+589651317+595049488
3618+598884132+602381956+605643689+607127341+607455574+609704647+614307850
3608+617440101+616700079+614512987+613829390+614930187+616458215+617900017
3598+620150388+623314604+625757268+626530698+627624280+631909568+639045630
3588+644251039+643474290+638928234+635076237+633315293+632789932+632850614
3578+633141760+632932871+631626937+629525493+628069260+629248635+633582411
3568+637804347+637041019+631382043+625381196+621521406+619272622+617939053
3558+617586215+618176010+618882336+618274285+615966911+614436214+617082212
3548+623727258+629432269+629046745+622899640+615710544+611091034+609245236
3538+608687694+608528592+608776589+609562069+611009427+613275672+615878160
3528+617557136+617504030+615918928+613260880+610022706+606817435+603918786
3518+601108961+598350942+596274861+595771147+597083034+599000157+599361402
3508+597584331+595595630+594864230+594439742+593026477+591084965+589619965
3498+588690392+587838926+586804007+585579499+584525567+584265087+584962393
3488+586023325+586695016+586532668+585298239+582858821+579607046+576882976
3478+576044896+577066467+578757673+580080058+580462552+579312437+576358626
3468+572487868+569598672+569260229+571229737+573323279+573423539+571508219
3458+568947725+566785744+565292207+564138808+562874904+561800840+561722444
3448+562418235+562411308+560837498+558459268+556547917+555813090+556160805
3438+556661778+556236135+555010870+554307070+554863530+555758324+555435106
3428+553621597+551748163+551263281+552090250+552911555+552415958+550171648
3418+546929361+544232458+543186534+543575017+544299382+544400435+543652908
3408+542549586+541875730+541873890+541714283+540404705+538286016+536739445
3398+536291182+536105166+535487014+534586230+533457040+531828428+529952578
3388+528610927+528266783+528886162+530176114+531478801+532028731+531549044
3378+530306101+528793659+527547217+526916293+526945588+527614502+528835040
3368+530151293+530932479+530960944+530506945+529907769+529224281+528376351
3358+527537584+527049491+526736122+525788582+524014831+522596876+522661707
3348+523678732+524347718+524538207+524921747+525234576+524677467+523530815
3338+522567942+521630936+520396905+519431037+519107783+518840196+518427505
3328+518550349+519181200+519183365+518027080+516513628+515756000+516392841
3318+518101220+519260282+518245999+515593074+513542644+513214411+513513061
3308+513020927+511916522+511444808+512072521+512904794+513039291+512721051
3298+512582585+512629089+512673212+512911973+513473412+514041596+514141351
3288+513463418+512229098+511411798+511934813+513447724+514640700+514934840
3278+515034955+515590296+516163388+515963951+515072836+514302257+514009091
3268+513672018+512772028+511641359+511092259+511414900+512047014+512207632
3258+511528508+510107379+508531007+507711975+507924400+508320531+508111390
3248+507516111+506982091+506474444+505895328+505216349+504275664+503267549
3238+502846525+503141531+503486576+503305719+502340141+500349383+497709230
3228+495788751+495650682+496736941+497489085+497006440+495612549+494011103
3218+492535605+491401760+490951369+491003104+490571220+488924642+486509576
3208+484390888+483228650+483062153+483596208+484379018+484923572+484876780
3198+484134160+482805172+481114544+479387332+477974212+476983775+476220844
3188+475550740+475044356+474598330+473798996+472364409+470517276+468992460
3178+468615233+469356915+469951112+469186377+467311536+465415446+463961666
3168+462651944+461217104+459769963+458534560+457485426+456486800+455772249
3158+455748113+456177796+456187681+455257314+453680221+452058465+450780166
3148+449888510+449197012+448558548+448019261+447723895+447709427+447665774
3138+447074752+445909412+444747463+443800247+442543054+440721933+438884938
3128+437572221+436761559+436277651+436072983+436000035+435786528+435403276
3118+435166391+435208530+435037270+434066388+432521692+431297257+430901379
3108+430947089+430698912+429866459+428772913+427891431+427390314+427116666
3098+426887466+426697518+426562443+426251563+425528786+424614293+423909483
3088+423372685+422723723+422077827+421762040+421689813+421426519+420753132
3078+419832939+418900660+418041943+417264111+416611541+416129185+415793231
3068+415502554+415048302+414208706+413061224+412019846+411366915+410968439
3058+410569819+410101280+409585732+408960581+408129463+407119797+406047321
3048+404927402+403762351+402827366+402455298+402502380+402489644+402224691
3038+401824519+401343570+400834588+400451733+400133097+399568736+398681337
3028+397679500+396617919+395434180+394339984+393643255+393252536+392773607
3018+391997904+391031784+390108199+389388813+388740392+387752554+386277632
3008+384803685+383940639+383727709+383730559+383596098+383279518+382919464
2998+382665406+382546639+382448544+382225152+381784682+381084489+380174037
2988+379214447+378297320+377322794+376217956+375137290+374248809+373483424
2978+372729909+372100320+371738751+371524343+371228976+370847384+370497937
2968+370083082+369348291+368285447+367218310+366451410+366044167+365923740
2958+365964796+365914721+365480564+364598721+363520869+362584441+361934216
2948+361466254+360991654+360421160+359798282+359190592+358585031+357942923
2938+357349340+356987338+356902953+356881775+356604664+355901982+354906386
2928+354008237+353575559+353609724+353669433+353210093+352131123+350958171
2918+350263895+349988154+349669662+349205452+348880791+348758344+348537585
2908+347990722+347213360+346459700+345884228+345418070+344870341+344125124
2898+343215032+342265724+341404265+340685926+340131234+339781138+339590324
2888+339362350+338946159+338344747+337576152+336711265+336040007+335831551
2878+335954864+336053175+335987298+335802328+335447289+334892886+334352517
2868+334020531+333703338+333012706+331880160+330697647+329962351+329826159
2858+330016756+330204179+330283802+330187764+329739717+328966467+328222008
2848+327752314+327425200+326995805+326376751+325672914+325117320+324821376
2838+324561185+324084132+323530234+323202975+323086120+322937192+322687102
2828+322402631+321983519+321234188+320218606+319279292+318662402+318301699
2818+317983820+317560667+316994899+316370325+315882810+315675652+315621320
2808+315352506+314619194+313580450+312635111+312020350+311687932+311474677
2798+311254027+310994125+310728378+310379689+309697210+308577941+307354047
2788+306497675+306086247+305767755+305223525+304483106+303774219+303234138
2778+302829276+302423494+301843278+300987393+299961258+299011391+298287333
2768+297772092+297429914+297260079+297174053+296948640+296378146+295464970
2758+294443958+293584736+292946903+292362267+291653199+290824012+290062542
2748+289604177+289523020+289576848+289352085+288666125+287760868+287008706
2738+286501401+286038310+285465868+284864167+284362546+283919928+283386198
2728+282713370+282053674+281656785+281633082+281787224+281744815+281270215
2718+280422501+279451403+278613268+278021903+277598750+277190623+276726197
2708+276224665+275716838+275227572+274776802+274346451+273903798+273484487
2698+273178622+273009779+272901727+272759455+272492427+272007437+271311087
2688+270556165+269870746+269251962+268733023+268470794+268506096+268574679
2678+268342376+267794304+267231531+266849199+266478178+265872058+265111363
2668+264516715+264250860+264192234+264150258+264043667+263849588+263506040
2658+262982032+262393896+261909681+261567648+261321509+261173952+261100733
2648+260962412+260644479+260167263+259580877+258926936+258345962+258024745
2638+257982318+258044372+258032430+257856155+257463902+256874432+256271793
2628+255902323+255801594+255727491+255462754+255103350+254915765+254972316
2618+255087801+255084680+254939486+254684995+254359413+254072886+253962398
2608+254019437+254044078+253850630+253491515+253181482+253015057+252895730
2598+252733652+252537499+252309849+252021175+251702593+251469261+251452990
2588+251715220+252166928+252593906+252811688+252758239+252441983+251910165
2578+251293510+250781461+250481314+250339476+250252078+250206061+250221195
2568+250228393+250169875+250175756+250451478+251000758+251608520+252083716
2558+252390663+252567010+252620188+252522544+252276911+251945719+251567049
2548+251074032+250401078+249659414+249075932+248741764+248546747+248360425
2538+248141561+247884941+247613656+247420082+247383265+247454320+247512008
2528+247503061+247458415+247405651+247322294+247167251+246944202+246715597
2518+246522798+246316742+246029384+245699004+245465763+245459882+245719208
2508+246141261+246476240+246481201+246174939+245852243+245741918+245728768
2498+245545837+245180678+244890687+244814600+244789490+244618158+244328275
2488+244064963+243870325+243680359+243457003+243228271+243013808+242771133
2478+242455815+242131388+241939384+241905182+241852924+241602131+241173476
2468+240709681+240292120+239939697+239671352+239437516+239082946+238520750
2458+237904473+237501091+237374603+237304071+237079976+236779360+236634310
2448+236728202+236954805+237172208+237253437+237085983+236672895+236183179
2438+235800306+235556801+235384585+235274097+235279383+235385793+235491645
2428+235543019+235587034+235659279+235700732+235628180+235450661+235268217
2418+235154194+235094395+235075743+235154518+235362054+235608590+235761054
2408+235787950+235780427+235826480+235892159+235887632+235837917+235852474
2398+235918352+235911695+235850490+235929536+236258924+236758020+237361651
2388+238178627+239373767+240996353+243004428+245406596+248277086+251626000
2378+255364732+259443332+263890319+268628092+273379754+277866661+282015252
2368+285912364+289568153+292644772+294519703+294925286+294376132+293567978
2358+292589447+291135631+289239198+287497736+286736032+287415029+289360419
2348+292156571+295605817+299672024+303933249+307342791+308914616+308458524
2338+306503808+303728400+300581033+297316252+294171717+291376070+288985014
2328+286800664+284481168+281770772+278756531+275854474+273376868+271208897
2318+269031727+266702562+264334578+262137367+260217032+258513596+256936341
2308+255451155+253991549+252457443+250856701+249300822+247864864+246568707
2298+245430118+244436543+243545609+242761626+242122170+241598451+241097136
2288+240573867+240098708+239784708+239635708+239484759+239146496+238621550
2278+238069456+237611344+237261554+237007767+236830644+236665932+236439257
2268+236136873+235826534+235637651+235675316+235871740+235977555+235806818
2258+235439603+235075779+234780647+234510174+234273325+234099738+233950052
2248+233792285+233659935+233576343+233538642+233558954+233616047+233648877
2238+233667583+233753718+233930065+234142670+234356321+234606032+234973355
2228+235499816+236103339+236650762+237132541+237688802+238427056+239252456
2218+239951133+240475809+241046754+241895351+243030729+244322015+245660870
2208+246986990+248276671+249559660+250899669+252330486+253821876+255323820
2198+256810719+258254469+259643544+261049413+262532307+264006381+265356185
2188+266572737+267647685+268518236+269179284+269694128+270132434+270567367
2178+271027067+271460845+271794706+271914339+271677183+271094964+270354473
2168+269602077+268871976+268135110+267294234+266282800+265154169+263944039
2158+262601955+261144495+259715970+258477663+257481833+256668465+256069470
2148+255850660+256025798+256643860+258417666+262318043+268348274+275538326
2138+283115364+290904014+298843360+306874000+315091341+323642399+332609179
2128+341968518+351594831+361385585+371218766+380759539+389638722+397733833
2118+404994290+411232455+416237056+419970250+422823621+425750879+429866964
2108+435840428+443719542+453186464+463727018+474383163+483670780+490374345
2098+494298028+495928335+495895865+494728649+492393532+488394699+482503853
2088+474615503+464350798+451620483+436779020+420150277+402344613+384475235
2078+367492211+351972526+338312602+326471021+316093322+307126470+299707182
2068+293721434+288929545+285021159+281545522+278339457+275620060+273411394
2058+271562655+270158644+269247453+268666514+268500522+269082452+270590673
2048+273152898+277016801+282437503+289765605+299439721+311654524+326426429
2038+343812873+363443988+384134231+404357810+422719682+438128789+450202745
2028+459263867+465796821+470315206+473341244+475129824+475688484+474837488
2018+472110784+467198722+460479572+452636499+444012636+434559856+424136663
2008+412805831+400888379+388726719+376564228+364644684+353194688+342327237
1998+332176790+323140056+315699391+309751290+304337533+298547181+292529775
1988+287060459+282529825+278857891+275875471+273385021+271170421+269132329
1978+267288515+265700707+264417773+263376052+262501659+261953516+261896279
1968+261975108+261501627+260314712+258981810+258039249+257516774+257251135
1958+257193988+257260425+257244822+257052294+256810015+256712209+256865160
1948+257315678+258243105+259852216+261648624+262263872+260963801+258782157
1938+257165271+256446408+256207647+256203119+256437713+256827369+257154646
1928+257415144+258115480+259700023+261629990+262954631+263784919+264733126
1918+265198003+264118726+262160366+261130172+261763784+263291468+264521712
1908+264854311+264520016+264118672+263990633+264066468+264219671+264581258
1898+265394030+266508321+267339421+267800654+268706200+270356043+271482545
1888+270846336+269105199+267685639+267016996+266750184+266614461+266553057
1878+266584877+266734184+267058160+268042445+270671342+275205493+279646744
1868+280672104+277554771+273128654+270116722+269025504+269030356+269311400
1858+269485492+269497776+269476473+269605378+270138928+271361758+273407227
1848+276415732+280476185+284344831+285110523+281868398+277671121+275403757
1838+275167774+275564013+275997070+277553075+281399553+286425368+289511024
1828+289487520+288310364+287134616+285196550+282577177+280780011+280544966
1818+281131821+281660646+282320251+283923735+286444020+288492087+288782168
1808+287773116+287095580+288034822+290896365+294829428+298013973+299054792
1798+298617370+298953540+301835810+306754619+310180721+308667125+303920189
1788+300417530+300058144+301744714+303935449+306199783+308209914+309258074
1778+309826476+311998343+317457449+325291755+331297616+331702695+327876818
1768+323245871+319737440+318755194+321043952+324897067+327294346+327934362
1758+328600605+329537971+330570185+333438493+339724352+347590983+352571088
1748+352842391+350896189+349686366+350466434+352989948+355768134+357137420
1738+358052455+361870827+369439387+375189603+373174060+366603477+360497645
1728+356141897+353884960+353887521+355441055+358491302+364780083+375489515
1718+387380089+392740343+388643921+380637236+374104607+371167392+372455900
1708+377602900+384423644+389912803+394227639+400622199+409640895+416287673
1698+417161326+414085573+407922991+400480198+396122430+396681235+400642295
1688+406928081+416872454+429685747+436711772+431848738+422836176+417621748
1678+418188201+423113288+428815304+432724628+436431053+441486632+444640637
1668+442346468+438256178+438032967+442160524+446410204+447462260+447460709
1658+450828654+460487797+477172425+495523653+501765354+497120481+496228969
1648+501940149+506645524+503409623+496675104+493560134+496046741+503842697
1638+516279377+529919098+536535607+533091033+528035815+528358564+534441559
1628+543241805+552256135+561357664+570106824+576636603+581725446+589320233
1618+600990266+612035543+616262458+615783998+616133806+618569760+621248227
1608+622608999+623090851+624198864+626656753+630088591+634305910+639911851
1598+647196264+655268538+662779878+669209830+675132028+681182012+687194836
1588+692707554+697728174+702396822+706528347+710170013+714284870+720489266
1578+729692209+739710721+745657379+747751174+751970801+761560351+773897853
1568+783984551+791566604+800242743+812446686+829943635+855456721+886473144
1558+904729165+902457435+895750479+892009385+889706051+887011710+883614001
1548+880917422+881365722+885966327+893834402+903382030+908773960+899666189
1538+880596477+866536489+861022545+858722603+854070406+847887513+844529561
1528+845412162+848765640+852949911+857962522+862461894+862893886+858995565
1518+854158508+849562592+844871071+841544940+841897056+847150016+857189525
1508+868746670+871814414+860640484+846799270+839781759+839624750+842970940
1498+845563976+844165539+839888260+837371997+839456845+844672717+848238114
1488+846468151+840633333+834305047+829934039+828313508+828986210+831224459
1478+834972625+840565507+847431853+852476646+850855250+842705409+835052357
1468+833102222+836130930+839240885+838552454+836672887+839002701+847214090
1458+856551818+857281594+847831448+837342702+831361193+830162265+831499370
1448+831604211+828440934+824195548+821651938+820727271+820598835+822256381
1438+826170431+828629042+825445923+819548619+816322855+816470990+816904714
1428+815666749+814155318+813933585+814731909+816182009+818584411+820637005
1418+819251845+814193993+808646569+804695358+802161273+800183359+798794014
1408+798927140+800521550+801518372+800446364+799031765+799727195+802389860
1398+805019767+806240919+805439854+802310418+798366495+796459726+797597034
1388+799537211+799228964+797184307+796984942+800445282+806145963+812021621
1378+817681968+823623575+829067457+832119398+832630617+832836908+834178415
1368+836018368+837971317+840960340+844740687+846675741+845095545+841942226
1358+839902330+839435704+839429931+839031707+838259071+837439967+836759112
1348+836389534+836698646+838095712+840699571+844186320+847802297+850484517
1338+851410050+850818378+849981091+850188609+851987651+855209229+859294071
1328+863551146+867489224+871205426+875358598+880462846+886049739+890736858
1318+893638429+895650545+898531696+902867348+907815669+912518157+916742330
1308+920320860+923009934+924969809+926627644+928030915+928885736+929206970
1298+929347817+929346085+928892374+927950678+926768923+925378928+923708611
1288+922047674+920801701+919910370+918964489+917699828+916110180+914353998
1278+912737581+911562897+910824534+910302925+910071957+910592051+912161279
1268+914441450+916589794+917905902+918497357+919201086+920684665+922832288
1258+925055602+926800022+927824912+928535206+929661691+930968202+931045553
1248+929257695+926775922+924844476+923405921+921811078+919572468+916333644
1238+912108894+907529069+903380298+900136280+897994862+896892766+896378156
1228+895790093+894671329+892984560+891235594+890305515+890680866+891968978
1218+893501479+895049205+896676156+898523037+900935180+903954436+906621070
1208+907820215+907790847+907727856+908297232+909673950+912252627+916034273
1198+919968382+922931501+924824417+926103509+927113391+928317226+930099528
1188+931958963+932884496+932951167+933669182+936267197+940225190+943968666
1178+946779682+949443646+952790630+956259484+958466779+958731010+957539298
1168+956149447+956158611+958539439+962393889+965684448+967521660+968674048
1158+970012452+971490909+972556927+972873688+972766971+973199973+974886309
1148+977428114+979861543+981763983+983121003+983480985+982454723+981062853
1138+981203988+983846594+988198914+992555925+996107973+999141371+1001687290
1128+1003562239+1005496283+1008637625+1012689924+1015577713+1015551810
1120+1013223799+1011003083+1010719586+1012088151+1013688766+1015362114
1111+1018535926+1023624083+1028435021+1030425129+1029911746+1029436677
1103+1030185935+1030753867+1029756035+1028042497+1026989467+1026511151
1094+1026334587+1027533371+1031048549+1035182744+1037169173+1036928680
1085+1036849454+1038575763+1041482818+1043983134+1045322981+1046091288
1077+1047391017+1049159754+1049759723+1048265103+1046252483+1045975984
1068+1047612605+1049721481+1051265815+1052055480+1052333277+1053064424
1060+1055567266+1059600084+1063130774+1064548982+1064459437+1064814151
1051+1066454452+1068391238+1069698904+1070843788+1072414603+1073672266
1043+1073287246+1071318063+1069984349+1071066458+1073219493+1073741823
1034+1072608628+1072237535+1073371812+1073702499+1071400247+1068395206
1025+1067660307+1068655542+1068713771+1067507411+1066332727+1064630517
1017+1060788477+1055496915+1051558692+1050687565+1051968605+1053195097
1008+1053081380+1052245825+1051676449+1051606603+1052381909+1054272227
1000+1056490057+1057905667+1058231663+1057540057+1056061961+1054742750
991+1054642455+1055361841+1054504999+1050402336+1044759667+1040665662
983+1039130347+1039196513+1040023554+1040808024+1040314555+1038432896
974+1036408947+1034301442+1030488481+1024528619+1018297598+1014045501
965+1012553623+1012581692+1011660055+1008332337+1003342022+997980974+992548565
955+987181528+982792337+980044023+978494638+977316996+975830890+973368166
945+969995928+966992835+965456366+965257434+965868660+966864544+967407077
935+966806242+965516976+964474480+963962323+963806180+963884107+964027263
925+964192137+964345106+964110241+963366395+962683087+962331619+961591958
915+959757127+957210992+955240510+955080542+956453292+957064662+955054783
905+951815815+950665808+953027371+957266985+960724943+961669741+959996754
895+957095400+954557346+952843303+951422787+949771807+947774050+945801837
885+945098181+946875504+949909768+950622732+947291622+942726083+940815995
875+941861955+942905389+941968528+940079292+938778842+937909662+936829285
865+936282782+937449818+939635178+940639215+939671111+938436899+938665847
855+939800124+940053533+939060824+938212136+938483223+939154914+938985422
845+937890757+936901873+936829068+937823581+939809071+942128423+943725503
835+944373095+944827094+945737907+946865907+947319762+946476125+944595332
825+942607966+941386309+941143579+941622256+942387676+943032021+943816274
815+945645765+948802909+952205164+954429848+954928079+953975921+952383243
805+951625687+953159198+956502574+959072809+959215171+957913494+957069352
795+957342675+958045249+958439865+958029231+956334309+953735789+951963661
785+952718980+955737009+958709003+959682663+958934199+957805550+956623722
776+954810827+952707796+952074275+954130405+957720118+960438776+961327438
766+961260911+961455874+962623703+964128785+963715625+959786494+953703969
756+948460317+945971473+946365151+948640200+951435414+953736366+955359999
746+956806203+958253488+958873517+958015088+956677406+956644359+958625231
736+961811454+964986276+967213485+967736177+966734448+965524697+965118175
726+965101940+963983393+960630997+955880020+951986823+949997580+949933434
716+953339225+961035282+969071189+970985463+964825586+955910903+950205964
706+948561046+948799157+949814090+951776491+953111287+950748931+944879912
696+939458037+936726752+935224268+933531077+932458781+932268292+931451280
686+929835657+928378991+926409375+922934388+919423179+918476505+920434143
676+922910937+923516318+922259810+920277927+917547148+913393687+908760323
666+905323866+902808325+900004236+896474267+893567356+893564975+896630194
656+899756600+899699236+896129293+890767163+885158119+880754496+879071336
646+879948597+881008049+880191182+877524043+874411491+873293232+876447273
636+882207050+884196509+879156118+872183271+869367637+871373835+875489054
626+878616470+878017439+872050000+861733921+851263214+845234372+845311145
616+849819608+854674128+856731051+858065198+862833420+869212070+870187101
606+864606702+858485357+855232175+855075959+858867129
##END=
