##TITLE=<SNM>
##JCAMP-DX=4.24
##DATA TYPE=INFRARED SPECTRUM
##DATE=2/5/2025
##SAMPLING PROCEDURE=Instrument type and / or accessory
##ORIGIN=Admin
##XUNITS=1/CM
##YUNITS=ABSORBANCE
##RESOLUTION=4
##FIRSTX=4497.3318
##LASTX=599.83466
##DELTAX=-1.4281778
##MAXY=1.8485078
##MINY=0.3947399
##XFACTOR=1
##YFACTOR=1.721557e-09
##NPOINTS=2730
##FIRSTY=0.42005515
##XYDATA=(X++(Y..Y))
4497+243997235+244013664+245212555+246441464+246370436+244959845+243177807
4487+241731157+240754975+240430181+241239119+243363228+246021770+247828893
4477+248015421+247070400+245962081+245084902+244426070+244312266+245028381
4467+245875628+245766100+244792099+243991488+243657000+243284254+242967873
4457+243325524+244116146+244261942+243310775+241953208+241090450+241084633
4447+241827200+242905224+243661310+243453523+242095074+240284749+239492101
4437+240786533+243505890+245503419+245214788+243191725+241212182+240505364
4427+241053854+242041098+242750478+242965155+242559847+241193936+238870973
4417+236518390+235409067+236009145+237656726+239283293+240260202+240671950
4407+240991481+241428573+241681439+241646868+241961050+242960464+243525919
4397+242239260+239526464+237239993+236362329+236479249+237100810+238115908
4387+239137895+239582950+239409821+239011835+238490246+237672151+236776812
4377+236496283+237238504+238586739+239721718+240218585+240158931+239637637
4367+238704612+237818656+237657575+238139780+238239597+237267691+235809511
4357+234843508+234537999+234577261+234997094+235899270+236798175+236903496
4347+235872749+234130492+232660662+232292226+232938508+233802409+234353219
4337+234550030+234243552+233215696+231823126+230825980+230565705+230845126
4327+231493468+232528335+233714277+234537289+234837570+235035023+235474157
4317+235894423+235849258+235334040+234729912+234316675+234094692+234009088
4307+234067444+234138749+233963715+233672626+233901758+234813750+235363486
4297+234377974+232259751+230730491+230928913+232426839+233926946+234381453
4287+233682044+232724991+232556154+233209862+233687670+233292662+232565589
4277+232512997+233306822+234209362+234610083+234660165+234811707+235134476
4267+235294692+235083529+234766438+234659991+234534571+233985164+233225528
4257+232879961+233149567+233795155+234710159+235917637+237158041+237846025
4247+237472292+236176267+234852268+234248520+234175276+234119292+234149967
4237+234599558+235297323+235700727+235555226+235068052+234561127+234136326
4227+233704756+233296834+233147524+233323666+233496554+233393119+233295276
4217+233672592+234507289+235405553+236041049+236077334+235215804+233809610
4207+232840076+232902483+233656423+234401586+234774592+234848615+234885471
4197+235015149+235087320+234861702+234255150+233497488+233099087+233310527
4187+233686545+233707699+233562042+233659176+233852542+233835404+233810459
4177+234163435+234869337+235570945+235996178+236151149+236119954+235708638
4167+234617094+233169561+232416158+233103346+234781136+236165552+236281139
4157+235186358+233722465+232744656+232559789+232879978+233242165+233490408
4147+233769414+234028200+233850707+233019490+231897737+230991753+230500632
4137+230478404+231034131+232051825+232959818+233195978+232866372+232573967
4127+232599553+232623270+232322313+231918355+231886710+232281822+232704009
4117+232919812+233107691+233432710+233838347+234261365+234538553+234226171
4107+233130801+231847656+231290078+231862994+233203595+234404893+234599419
4097+233734982+232717166+232455956+232831749+232833307+231813882+230415668
4087+229882430+230622902+231945828+232995479+233369593+233134125+232821518
4077+233064049+233798756+234218364+233767232+232792868+232000151+231612725
4067+231396144+231244722+231291462+231543809+231815665+231996775+232148439
4057+232357784+232600869+232760669+232830399+232983829+233228489+233222620
4047+232793232+232294875+232046147+231808377+231211086+230346787+229635121
4037+229309288+229292375+229533764+230202324+231386674+232779296+233883201
4027+234387945+234214244+233495740+232694644+232397687+232755649+233307965
4017+233579838+233712858+234170187+234918466+235336360+235028635+234405914
4007+234255497+234878685+235796562+236302016+236183192+235726538+235169635
3997+234572864+234111709+234013139+234239414+234546672+234783248+234994757
3987+235258961+235399719+235056852+234251844+233521966+233244502+233370597
3977+233929248+235012933+236234208+237007191+237234349+237050850+236343806
3967+235245822+234626408+235338299+237146460+238887332+239703887+239725509
3957+239459556+239107427+238777440+238917107+240000463+241659471+242638024
3947+242398004+242215889+243363539+244921639+244856930+242848062+240379476
3937+238818883+238994039+241373454+245187800+248044089+248026085+246054263
3927+244682415+245141527+246489191+247367980+247820427+248707526+249960307
3917+250116870+247876066+244002585+240775177+239674129+240533979+242903579
3907+247226928+253799443+260982941+265778125+266695068+264229529+259090560
3897+252765614+248296297+248123998+251477639+254282929+253755420+252663201
3887+254585080+258278852+260077596+260061860+260279688+259187296+255045299
3878+251302968+251943381+256366668+261695507+266576919+270044451+270378541
3868+268669019+268002484+268349575+266729119+262296536+257902835+256508620
3858+259620060+267916637+279635253+286152943+279577503+267014080+257501888
3848+253582030+254706068+259214682+265103609+270995999+276396143+280400203
3838+281214092+278642487+274818585+271226793+267857069+264933595+263371081
3828+263181159+263738028+266132175+272110861+279285790+281555712+278835559
3818+276540398+275043337+270816550+264646592+260828645+261888250+267415320
3808+273845865+277149737+278653808+282211948+286466605+286584495+283194362
3798+280085328+277271054+273622827+270491012+269572148+270766192+273557287
3788+278153496+284160330+289778353+294195322+299292034+306596105+314267763
3778+319921309+324865232+332064674+342710026+356136502+370224579+381987130
3768+389973404+394514355+396151273+396886621+399680208+404397388+407309558
3758+406837237+406808501+411636092+422373471+435568633+443761014+444788715
3748+446420993+454357964+465500669+471254620+470958563+472780365+481988917
3738+498609978+518423409+534563978+542428553+543547934+543464944+547344397
3728+557267039+570650617+581304313+585712522+586064079+585480966+585476396
3718+587164867+591616631+598879605+606388676+608393320+601305952+589464703
3708+579465857+574594018+575141400+578565464+580583195+579470912+577446880
3698+576534853+577297968+580380931+586001274+593007349+599278803+602113487
3688+599708261+593979480+588929577+587276213+589555206+594288728+599722802
3678+605207910+608890500+608205736+606328641+607753427+608740653+601876669
3668+589352526+579225854+574051414+571792537+570551735+570559698+572777686
3658+576330372+578580525+579564497+583428059+592542299+602754627+604806843
3648+595724801+583556093+575150610+571084403+568529607+565078018+561806606
3638+562125825+567254598+574269571+579843762+584565893+589774990+591312853
3628+584265162+573750302+567523580+568010027+574055050+582122097+587268181
3618+587568428+585999889+585292758+585238540+585392541+586853542+589749023
3608+591282316+589330783+586306714+586033126+588964754+592370641+594436151
3598+596061817+598121857+599812405+600596536+602031709+606114604+611870183
3588+614601831+611294411+605159646+600589473+598667854+598594385+599384817
3578+600245187+600845264+600970875+600397457+600407082+603942941+612131652
3568+620797462+623097851+617930648+610540401+605353117+603260808+603098498
3558+603349927+602938819+601754660+600698049+600747767+602261810+604796733
3548+606669119+605413775+600613986+595270761+592301049+591482088+590917187
3538+589790362+588856316+589172489+590988856+593484586+595471503+596477772
3528+596678582+595840025+593336332+589329883+585146374+582037895+579906810
3518+577913003+576283390+576358521+578423200+580661892+580966813+579151658
3508+576783581+575332378+574920059+574380397+572565208+569894323+567986830
3498+567755967+568430829+568528464+567528704+566075632+564739895+563597040
3488+563029611+563824129+565926028+567929910+568532861+567637038+565662239
3478+562960020+560311016+558755496+558273377+557751062+556716056+555830308
3468+555418023+555083189+554792533+554649472+553971910+552248089+550535451
3458+550226688+550772754+550098030+547420221+544452309+543153618+543337429
3448+543423605+542792124+541866526+540581926+538671352+536803536+536072966
3438+536560971+537282019+537429304+536889088+535805750+534430543+533224294
3428+532627679+532707726+533107790+533286061+532737363+531306726+529408754
3418+527696566+526429971+525324093+523948782+522153189+520307843+519168901
3408+519267229+520294895+521270938+521525310+521204844+520554494+519428016
3398+518000148+517248909+517943368+519366769+519810456+518475689+516306449
3388+514730744+514082299+513715611+513351798+513286950+513358411+513026866
3378+512511336+512512306+512821969+512568948+511743478+511163274+511163585
3368+511417922+511656575+511769860+511511957+510740914+509836296+509373185
3358+509507798+509970493+510391607+510545192+510656296+511287846+512515629
3348+513466675+513190076+511838205+510409853+509395690+508272639+506505367
3338+504504116+503148991+502653335+502542647+502593819+502973974+503467207
3328+503379300+502389546+500952607+499844375+499572034+500028532+500510755
3318+500308559+499388050+498358619+497764289+497583005+497443095+497107465
3308+496677557+496409579+496470203+496827749+497300520+497802166+498330748
3298+498586574+498173665+497378282+496993626+497227293+497595746+497891976
3288+498251774+498449053+498182113+497771386+497629469+497462830+496781771
3278+495729800+494862921+494586322+494963430+495657681+496101646+496039291
3268+495772247+495621328+495445584+494882725+493919388+493210769+493571847
3258+494936079+496158288+496189518+495171269+494017232+493265888+492756106
3248+492101844+491099245+489795327+488324077+486855875+485750654+485395324
3238+485722645+486223356+486484583+486320887+485582666+484462801+483620158
3228+483371429+483231762+482698783+481816982+480670596+479244736+478081939
3218+478073630+479153852+479959622+479356325+477808040+476613182+476190476
3208+475756275+474585965+473021615+471900434+471337333+470663718+469563795
3198+468608906+468335699+468331821+467752102+466512096+465388388+464878329
3188+464552635+463783703+462553080+461249369+460180226+459457515+458903347
3178+458039619+456611648+455051765+454063880+453785238+453542154+452532318
3168+450738733+448991404+448102505+448136747+448464795+448337904+447521401
3158+446473654+445791764+445569522+445430547+444972664+444044503+442733937
3148+441192335+439582595+438207216+437357094+436903401+436392130+435650619
3138+434968106+434644662+434621430+434526841+433981571+432940264+431731073
3128+430760500+430248675+430104161+429918584+429300329+428306352+427278236
3118+426312475+425338994+424664339+424819933+425682207+426233986+425541085
3108+423761488+421909114+420753656+420144334+419370383+418086406+416714385
3098+415850068+415527629+415298082+414911971+414612071+414664247+414884239
3088+414898191+414691183+414519283+414403782+414144217+413756722+413505016
3078+413520527+413615150+413450658+412818797+411769597+410484201+409155215
3068+408065852+407542429+407615240+407888481+407896964+407493957+406866043
3058+406219399+405482978+404452404+403249721+402328693+401887256+401538884
3048+400741389+399447337+398190644+397524195+397444459+397417834+396933638
3038+395981657+395052354+394684525+394869063+394958493+394387152+393303086
3028+392192742+391211470+390258555+389401336+388784016+388272780+387580433
3018+386683398+385860456+385325849+385010819+384710538+384272459+383654378
3008+382961789+382384597+381973489+381574430+381084660+380637164+380405089
2998+380296201+380001148+379382166+378634874+377952602+377250665+376386868
2988+375420450+374495578+373718510+373238054+373134186+373157452+372902700
2978+372337626+371885802+371860527+372004453+371762927+370945939+369886594
2968+368907399+367932949+366805778+365725728+365075240+364923524+364963894
2958+364869894+364515359+363958941+363424438+363142611+363012742+362635287
2948+361833118+360855482+359962844+359140628+358339256+357717574+357487161
2938+357618899+357810431+357745687+357290470+356432905+355287627+354233371
2928+353674425+353530984+353319475+352780056+352026739+351162076+350226437
2918+349424129+348935433+348605445+348191845+347763183+347527196+347453138
2908+347386040+347380708+347607451+347977843+348140569+347896099+347392895
2898+346815876+346100402+345130971+344022635+342987076+342121409+341539439
2888+341432143+341726193+341936421+341645176+340970418+340336133+339894488
2878+339408734+338729821+338119564+337862042+337783345+337533232+337157959
2868+336945342+336840020+336495076+335878241+335373029+335180286+334993047
2858+334496075+333893990+333584291+333520863+333327254+332878788+332322162
2848+331686319+330959315+330403278+330319110+330578952+330737247+330510815
2838+329923167+329159741+328480412+328056979+327777159+327431523+327054068
2828+326761992+326409154+325790692+325041911+324469428+324098274+323677645
2818+323104989+322625190+322502003+322605870+322553833+322255733+322023762
2808+322035568+321997657+321546525+320774789+320077422+319564559+318963720
2798+318166571+317504761+317265104+317229997+316961014+316358202+315731084
2788+315396630+315340161+315294563+315101266+314851464+314623406+314275484
2778+313618072+312645802+311547645+310618930+310120885+310025881+309933924
2768+309448377+308632117+307915500+307570971+307442625+307191508+306676845
2758+306049000+305539010+305220967+304972551+304596620+303945785+303034313
2748+302106152+301492953+301321467+301411001+301454037+301236192+300733127
2738+300063874+299332231+298546299+297737171+297058431+296674398+296581298
2728+296568661+296361514+295838472+295115380+294423069+293956772+293800971
2718+293862495+293883234+293629036+293067735+292345025+291654479+291127801
2708+290780191+290542057+290336382+290118398+289888263+289671404+289431090
2698+289050276+288513766+288027908+287784806+287674187+287433370+287039037
2688+286712789+286535521+286302114+285825414+285216473+284779831+284683026
2678+284757897+284657769+284217769+283580645+282998381+282641803+282535997
2668+282539754+282469089+282290783+282070670+281785987+281376662+280904116
2658+280496748+280205694+279988247+279787644+279620815+279562546+279596580
2648+279573746+279389416+279072516+278653289+278135146+277642034+277384651
2638+277406151+277509309+277488432+277305850+277011039+276653457+276341370
2628+276209251+276221351+276135141+275755280+275150909+274573994+274214993
2618+274059175+273962907+273838093+273720186+273659579+273606087+273450978
2608+273178326+272903648+272714245+272564157+272410087+272316779+272318735
2598+272320033+272237061+272100180+271943929+271743326+271529965+271446871
2588+271579129+271771336+271752622+271489889+271253210+271223469+271245610
2578+271132862+270976974+270945277+270996484+271000915+270934146+270795448
2568+270555531+270299740+270215382+270362130+270619046+270846655+270962432
2558+270935738+270836337+270796919+270832529+270783780+270516027+270108191
2548+269785146+269683719+269726980+269733298+269588109+269277926+268852069
2538+268416812+268081319+267862592+267700264+267548288+267393578+267248423
2528+267180909+267263760+267437063+267508455+267335100+266960346+266573508
2518+266371088+266425047+266627243+266767429+266702945+266471199+266229793
2508+266089001+266030662+265980875+265914019+265856528+265799418+265648776
2498+265328586+264931518+264667019+264644255+264787038+264942545+264993994
2488+264917565+264783818+264658727+264528997+264379220+264233407+264063705
2478+263819339+263581188+263501729+263573900+263624258+263527055+263302650
2468+263039709+262826867+262728539+262725994+262680466+262434628+261986596
2458+261520784+261231028+261134622+261071574+260881618+260576680+260304807
2448+260141129+259986937+259731077+259446237+259322514+259412584+259537070
2438+259485759+259250499+259012244+258941441+259044720+259173152+259174156
2428+259033935+258824728+258573248+258308680+258158591+258226192+258434931
2418+258638078+258806604+259001113+259235057+259446030+259544392+259456538
2408+259191970+258891360+258723059+258701403+258702771+258692851+258820556
2398+259240112+259950185+260903880+262281354+264615830+268611459+274884125
2388+283966132+296448071+312861431+333374617+357730488+385425631+415753575
2378+447730313+480258207+512362909+543058822+571158426+595575509+615758015
2368+631599135+643003032+649976492+653240288+653797918+651546693+645233414
2358+633797042+616953670+594532471+566998183+538274439+515390130+503731238
2348+504909304+517443868+536420646+554065841+564797922+568723181+569200557
2338+569586736+571196580+573025999+573604126+572728418+571065706+568691779
2328+564988000+559830040+553773834+547026840+539224066+530293983+520729096
2318+511001967+501329854+491893036+482757330+473487115+463205957+451356053
2308+438297857+425018078+412365381+400604526+389536398+378938375+368854046
2298+359440771+350672098+342358815+334409484+326914055+319950635+313431041
2288+307246143+301521620+296575135+292576372+289347857+286524235+283845577
2278+281304353+279051811+277167896+275562744+274124196+272843595+271708513
2268+270606322+269469405+268414665+267598214+266978194+266335184+265531925
2258+264676679+263990218+263541285+263164817+262653425+261988933+261344227
2248+260869448+260526304+260158907+259695502+259239454+258949889+258836137
2238+258711201+258410557+258003188+257663074+257413480+257182184+257004259
2228+256939238+256886196+256715178+256486531+256336235+256257971+256173942
2218+256101633+256091211+256106878+256093410+256053784+255982012+255840596
2208+255667276+255579248+255627460+255759718+255927412+256111275+256253279
2198+256271871+256162984+256034430+256012428+256114477+256236383+256275732
2188+256221098+256106895+255956028+255788091+255619220+255446194+255284091
2178+255214811+255326365+255554908+255656041+255460441+255113973+254889100
2168+254818989+254745313+254653286+254676241+254815406+254911587+254878419
2158+254776525+254685537+254632962+254607446+254554958+254411378+254191162
2148+253977870+253825254+253773337+253919011+254307944+254820495+255340283
2138+255928780+256665114+257470192+258263047+259145575+260287409+261708681
2128+263258523+264807708+266425532+268283844+270395800+272598225+274785555
2118+276964887+279070473+280914849+282359941+283404607+284071471+284287100
2108+283912519+282876336+281272310+279345895+277368257+275471722+273621546
2098+271773725+269983931+268330930+266849727+265575358+264537791+263689297
2088+262926961+262196495+261530461+260994401+260602803+260295112+260033245
2078+259879469+259880629+259934588+259906336+259819762+259811920+259984393
2068+260380197+260940840+261400332+261446588+261093456+260677432+260456990
2058+260430244+260520315+260702637+260942761+261186746+261440148+261744671
2048+262055269+262271279+262454207+262810127+263302303+263559341+263406517
2038+263167120+263192377+263436119+263676677+263842761+263989353+264170359
2028+264394142+264614774+264796040+265004070+265403562+266148102+267180528
2018+268084280+268339413+267880439+267203690+266851372+266984270+267406942
2008+267809636+268005046+268026477+268009201+268047857+268188268+268396661
1998+268558435+268748080+269350096+270497088+271558598+271733701+271035174
1988+270135854+269525650+269283569+269313258+269455781+269597041+269778844
1978+270048415+270300675+270430007+270494907+270691096+271288680+272396307
1968+273565544+273988545+273451809+272662346+272329780+272467283+272793393
1958+273262770+273896639+274496976+274839826+274962476+275116062+275524936
1948+276302022+277601249+279521431+281475925+282132420+280884866+278846967
1938+277476331+277100746+277248446+277540919+277862095+278166583+278438785
1928+278808138+279668750+281276360+283088209+284298768+285098721+286062595
1918+286513311+285325880+283154199+281864303+282269490+283614644+284632806
1908+284659275+283962203+283199797+282712485+282468795+282490295+283021924
1898+284217197+285682336+286644115+287039660+287851350+289485776+290643189
1888+290022356+288292303+286922896+286372899+286341133+286582539+286923726
1878+287198872+287446804+287943083+289281174+292359428+297388314+302388707
1868+303926916+301113040+296817666+293909686+292968853+293155780+293591505
1858+293854151+293953102+294132828+294558027+295313283+296628489+298843187
1848+302293252+306932532+311141280+311811226+308297179+304004367+301871100
1838+301864279+302445557+302966660+304546625+308377330+313308304+316213445
1828+316061729+314916174+313806626+311775634+308923535+306917090+306567784
1818+307132685+307757206+308628412+310470053+313178781+315383924+315815667
1808+314833080+313969490+314609141+317278018+321182850+324311272+325114203
1798+324392808+324657809+327808701+333225844+337001015+335357172+330186575
1788+326344895+325849724+327507762+329624583+331688639+333439119+334342663
1778+334995055+337401286+343054901+350893890+356684611+356734155+352480259
1768+347393899+343550072+342512158+344977005+348975352+351267467+351640559
1758+352058107+352739547+353436672+355998288+362178478+370116660+375037109
1748+374873206+372220532+370220459+370224925+372135292+374702586+376314196
1738+377616556+381677051+389336453+395142442+393213898+386750566+380711290
1728+376376031+374161159+374226250+375759162+378700691+384970311+395915771
1718+408215422+413719502+409232770+400620868+393604371+390396768+391595122
1708+396724380+403445892+408731401+412955903+419540518+428884755+435605298
1698+436067267+432123623+424831081+416521745+411916223+412692010+416961105
1688+423381471+433369688+446365874+453540422+448341885+438709277+433006359
1678+433371626+438334038+444115168+447999503+451650171+456582911+459207194
1668+455943883+450987046+450216730+453782745+457113951+457089023+456334668
1658+459393048+469007688+485705853+503820806+509284829+503832959+502525093
1648+507991193+512298512+508542245+501485310+498300488+500941078+509166524
1638+522271875+536630008+543845168+540969976+536661134+538000748+545441682
1628+555962497+567004450+578491095+590092132+599594837+607094214+616489935
1618+630029696+643507828+650235122+651900950+654692426+660594042+667704885
1608+673609271+677696252+680822735+683629237+685964041+687765036+689743574
1598+692795203+696999970+701337341+704620803+706933795+709411452+712522978
1588+715664071+718398766+720958478+723509812+726043072+729270168+734830199
1578+743574740+752686834+756862310+757204934+760394292+769246232+780316783
1568+788373790+793799970+800563688+810721520+825339149+846349480+871087271
1558+884286831+881004754+875388635+873677174+874390052+875169267+874932241
1548+874854963+877413360+883325710+891246235+899870774+905026691+898045336
1538+882044192+869792874+864497290+861370322+855871920+849745949+847529969
1528+850429605+856199310+862367797+868301820+872807941+873318070+870180992
1518+865718218+859886816+853046168+848620440+849789781+856901870+868141656
1508+878703257+878674589+864958393+849973004+841914058+840793465+844442956
1498+849040827+849536344+845259078+841801050+843654186+849584747+853616401
1488+851019019+843980607+837503910+833774303+832038468+831084756+831261123
1478+833941599+839642266+847125509+852893898+852041491+844350237+836338724
1468+833118483+834534059+836984018+837405444+837291397+840505475+848500577
1458+857336729+858007090+848727008+838345861+832303677+830590970+830979434
1448+830503306+827777197+824368472+822247219+821715417+822895006+826752855
1438+832587581+835673071+832414884+826797796+823815481+823353547+822622666
1428+820791896+819555595+819884093+821374662+824303589+829202676+833498846
1418+832326251+825988044+819648937+815933317+814114943+812990888+812513513
1408+813289334+814939305+815629332+814522588+813777442+815720804+819533852
1398+822416800+822931291+821221769+817754462+814293318+813513272+816074785
1388+819219203+819252440+816384795+814493921+815954645+819908883+824699878
1378+829903990+835479116+840192141+842436027+842570847+842532070+843135748
1368+843924795+845294254+848498223+853081691+856218837+856071415+854235105
1358+853012376+852612971+852035398+851057312+850281906+849862696+849460106
1348+849147118+849280138+849820457+850733314+852485837+855160150+857595498
1338+858526567+858275900+858176949+858994456+860642834+862658695+864445633
1328+865537350+866100520+867005692+869035056+872081561+875380603+878450097
1318+881504911+884902696+888584040+892127862+895085941+897390347+899583130
1308+902320387+905475399+908184265+910089127+911953411+914692122+918224103
1298+921394072+922914693+922437249+920725581+918930334+917919218+917964296
1288+918436963+918204853+917042645+915874342+914944520+913052053+909623177
1278+906206972+904712941+905324444+906999205+909066585+911339138+913149065
1268+913590156+912950816+912830953+914354136+917049846+919835505+922246686
1258+924344673+926345439+928695200+931612356+934159811+934665647+932811610
1248+930587737+930167073+931322080+932012730+931349363+930465311+930406245
1238+930885006+931252351+931231854+930561631+929036717+926943993+924944543
1228+923692108+923438532+923609013+923184057+922013469+921236748+921889105
1218+923618223+925145769+925730266+925886621+926638623+928396547+930812783
1208+933258587+935059166+935830556+936032682+936684624+938388052+941036606
1198+944073694+946651617+948327555+949759958+951686978+953632972+954946966
1188+956386847+958996970+962000266+963511054+963366817+963652245+965824877
1178+968543784+969324383+967649761+965270363+964100883+964945950+967690062
1168+971570692+975107452+976684300+976119538+975316780+976439381+979655813
1158+983299002+985781022+986791653+987507231+989481408+992376266+994165835
1148+994439076+995104590+997355054+1000515121+1003432137+1005012378+1004707839
1138+1003600472+1003282568+1003905981+1004934962+1006405450+1008115526
1130+1009376824+1010417785+1012344736+1015658873+1020125248+1025111791
1121+1028893193+1029087357+1025252497+1020251966+1018137776+1020376953
1113+1024435336+1027091091+1028371224+1029923006+1031094978+1030025281
1104+1027362255+1025523245+1025378800+1025941831+1026542670+1027937543
1095+1031328542+1036543870+1041186751+1042576568+1040884842+1039223446
1087+1040847381+1045813704+1050077606+1050283195+1048866372+1050636899
1078+1056416367+1063040348+1067247815+1067359507+1063578105+1058447047
1070+1055033266+1054423702+1056302944+1060249773+1065016463+1068727305
1061+1070655779+1070624896+1068405800+1065376676+1063254730+1060961335
1053+1056862928+1052826081+1052174000+1055352694+1060221659+1065431171
1044+1070561606+1073741823+1072784926+1068625861+1064633745+1063082726
1035+1064024943+1066290087+1068352897+1069227046+1069248928+1069428688
1027+1070144128+1070625727+1069632060+1067193458+1064772651+1063673247
1018+1064570732+1067386097+1070376375+1071083921+1069211258+1066577038
1010+1064541442+1063437676+1062914114+1062059561+1061123714+1061730024
1001+1063307634+1062654445+1059308317+1056863690+1057005435+1057241699
993+1055771903+1054500634+1055201463+1056036350+1054439352+1051742396
984+1051500592+1053700784+1054337562+1051254634+1046589041+1042881731
975+1040776058+1040531762+1042590001+1045947763+1047870836+1046340244
967+1042067063+1037144156+1032747649+1029328537+1027668456+1028130459
958+1029542573+1029712224+1027022746+1021910523+1016762016+1013486171
950+1011334105+1007927941+1002252686+996241386+993124459+994039532+996494546
940+997054600+995188861+992735301+990797410+989226101+988107932+987784558
930+987674112+986468694+984009526+982089015+982113112+982911853+982740887
920+982266697+983185579+985261199+986744982+986634051+985116685+982665687
910+979852400+977629772+976923750+977690292+978626693+978339188+976816766
900+975362551+975329729+976754376+977769439+976234762+972399556+968620854
890+966543779+966099919+966772080+968305442+970118208+970815229+969347442
880+966785860+965580858+966358341+966851504+965301316+963105347+962544116
870+963895156+965829586+966967697+966537132+964776507+962954186+962165623
860+962213956+962163961+961582233+960850036+960534833+960525069+959914536
850+958714450+958740694+961515827+966088285+969891916+971027257+969073716
840+965070591+961413137+960309510+961513819+962604152+961960104+960290121
830+958888117+957880878+956856467+956144697+956385116+957128808+957060394
820+956010154+955544066+956961581+960182445+964719449+969709386+972865436
810+972262658+969240666+967098363+967843301+971140888+974981011+976757839
800+975020065+970838565+967082506+966406397+969396744+973949190+976848134
790+976679661+974878320+973568135+973273082+973004965+972095293+971298352
780+971725801+973242614+974622183+975302308+976329697+978577391+980199871
770+978105278+972672589+968259810+967966142+970741829+974071754+976808942
760+978995492+980562785+980881935+979333270+975810013+971033143+966541148
750+964091120+964566210+967231590+970585128+973684674+976521644+979149770
740+980398812+978541522+974311342+970819107+969673378+969948073+970761218
730+972452182+974569834+975085017+972815303+969287891+967429493+969159996
720+974131028+979802820+983099300+982911507+981312362+981472526+984368215
710+987905183+988720820+985066621+978518809+972644129+969391551+967748435
700+966171933+964019105+961140242+958528873+957663241+958661824+960778645
690+963531135+965862547+965377485+960566893+952806117+945116455+940380509
680+940929138+947589334+957042944+962234868+959822232+953834683+948254986
670+942214118+934664400+929633401+929704447+931880126+933868290+935128273
660+935321051+934838828+934695006+934686143+932838755+928395231+923144379
650+918030702+912440065+907238239+905523801+909291424+914902488+915047903
640+907255827+896431719+888831037+887021456+890139076+895243820+897544210
630+892776273+881668814+870398422+864896765+866038892+869959547+872116322
620+871723910+872703658+880083726+893868683+906168888+907754322+899625993
610+892222382+891159471+892211926+891604024+891745076+894744979+900043471
600+904771107
##END=
