##TITLE=<SNM>
##JCAMP-DX=4.24
##DATA TYPE=INFRARED SPECTRUM
##DATE=3/5/2025
##SAMPLING PROCEDURE=Instrument type and / or accessory
##ORIGIN=Admin
##XUNITS=1/CM
##YUNITS=ABSORBANCE
##RESOLUTION=4
##FIRSTX=4497.3318
##LASTX=599.83466
##DELTAX=-1.4281778
##MAXY=1.7105429
##MINY=0.18403722
##XFACTOR=1
##YFACTOR=1.5930672e-09
##NPOINTS=2730
##FIRSTY=0.19880751
##XYDATA=(X++(Y..Y))
4497+124795428+125278484+126458507+127333757+127115131+126072655+124978500
4487+124289437+124094533+124368074+125002221+125741439+126248637+126410522
4477+126572717+127152481+128020874+128679528+128941733+128948149+128711471
4467+128158954+127508476+127220913+127565085+128293574+128769343+128544077
4457+127778949+126964910+126364408+126001137+126023399+126572969+127358825
4447+127854957+127885301+127610104+127047120+126116188+125078959+124396893
4437+124151712+123966452+123542670+123060045+122912274+123122472+123221144
4427+122759078+121777673+120732344+120089124+119893686+119641986+118842932
4417+117807097+117486366+118384355+119964578+121236914+121650321+121377005
4407+120992855+120913947+120989161+120726750+119986681+119161764+118599379
4397+118247781+117960162+117742921+117679587+117935599+118620341+119399808
4387+119665127+119299433+118762106+118318243+117762919+116954147+116124778
4377+115666453+115822305+116442319+117052333+117363832+117485244+117526681
4367+117479173+117545884+117950921+118409423+118391529+117895079+117472139
4357+117502745+117774060+117798866+117385224+116799922+116395569+116212347
4347+116038414+115767782+115542226+115523827+115645052+115672991+115546594
4337+115553422+116014319+116818078+117495449+117775884+117814487+117880206
4327+118068011+118251242+118140615+117557240+116817386+116563544+117017014
4317+117722549+118130840+118058844+117639179+117209402+117149659+117513127
4307+117915984+117991572+117789578+117663049+117951575+118720809+119627245
4297+120117372+119946918+119460972+119309554+119883276+120959734+121910955
4287+122242405+121854514+120904079+119677521+118522566+117674405+117250717
4277+117404343+118115874+118921971+119368660+119644231+120230524+121103810
4267+121834703+122290493+122659096+122895035+122702778+122120095+121695191
4257+121915529+122713656+123648807+124324897+124531924+124256222+123709064
4247+123212492+122963701+122935060+122938885+122778048+122446204+122195973
4237+122310959+122814378+123524000+124309585+125065537+125567693+125672642
4227+125590815+125688740+126021182+126254520+126123437+125779920+125495276
4217+125241771+124973851+124986853+125397398+125656357+125251601+124499008
4207+124155884+124629156+125719561+126805644+127315816+127251827+127114402
4197+127318042+127868595+128411132+128424639+127647444+126446413+125561229
4187+125438349+125908572+126491713+126924951+127298241+127745116+128258095
4177+128798798+129334824+129786311+130104180+130296774+130328857+130198157
4167+130114133+130370192+130970085+131472868+131349773+130603876+129913625
4157+129931444+130544143+131116397+131345695+131472419+131691830+131863575
4147+131920979+132089786+132469988+132748627+132544668+131896416+131307241
4137+131299534+131922859+132783404+133521958+134062615+134449140+134673303
4127+134647290+134292941+133741828+133318402+133193492+133288937+133563442
4117+134011047+134409368+134479848+134245883+133922645+133622109+133374908
4107+133211376+133134600+133272306+133956113+135232180+136420827+136691656
4097+136037351+135214137+134787147+134715862+134833981+135220544+135916997
4087+136630735+137044077+137203858+137266781+137137475+136744860+136346540
4077+136204307+136286881+136501859+136855440+137280662+137613412+137774353
4067+137866385+138095580+138514048+138889826+139059690+139219405+139526620
4057+139731393+139539743+139026166+138513290+138313447+138521260+138859641
4047+138994915+139052497+139371198+139772035+139679227+139040777+138514366
4037+138542923+138805296+138890284+139019749+139643748+140659285+141517810
4027+141928870+142078979+142250845+142491573+142637651+142543674+142281133
4017+142119200+142230173+142451511+142478039+142199895+141682025+141044959
4007+140622862+140902370+141964050+143266729+144212711+144653105+144743088
3997+144618664+144306492+143783075+143125038+142608860+142540933+143024709
3987+143961974+145066662+145795890+145675835+144941537+144452167+144705570
3977+145329718+145753481+145876539+145841640+145669568+145326697+144785451
3967+144122925+143816280+144481070+146066233+147821222+149101751+149646046
3957+149351421+148511950+147883611+147981433+148650638+149373169+149669730
3947+149519471+149537692+150194550+150977394+151015931+150383692+149896773
3937+149938903+150320311+150872669+151509445+151892266+151739893+151452574
3927+151702675+152448702+152884260+152543400+152044377+152322380+153414477
3917+154224634+153660425+151948267+150292278+149527262+149731810+150919017
3907+153388437+157075818+160908500+163458203+164274711+163576528+161298215
3897+157968110+155492059+155644759+158085949+160157880+159906732+159102384
3887+160202086+162398778+163172727+162649983+162568137+162156179+159928863
3878+157622900+157932323+160866745+164541705+167568281+169006645+168208938
3868+166641511+166552893+167697681+167685390+165508696+162955963+162298974
3858+164840314+171020565+179280829+183594799+179299873+171392133+165547851
3848+163245555+163962576+166421529+169381824+172505885+175952669+178857029
3838+179488239+177803309+175711791+174211505+172776845+171251528+170538921
3828+171084563+172426790+174749888+178718836+182730063+183384920+181302605
3818+180019177+179486069+177192116+173522395+171234803+171920695+175212955
3808+178894799+180727144+181712412+184165809+187326985+188429905+187532525
3798+186322860+184406069+181112537+177903881+176741920+177993920+180726545
3788+183863589+186593576+188433011+189894834+192361139+196225138+199988827
3778+202404191+204407560+207640704+212761754+219267852+225607753+230352745
3768+233998371+237967562+242735845+248453084+255740595+264635773+273812350
3758+282067600+290192721+300171139+313228757+328208646+340922158+348835473
3748+355344078+364387251+375302485+383666314+388917213+395530617+406646133
3738+422558854+441028518+457318083+466778583+469171573+468555235+469030369
3728+472372054+478059998+484022231+488380595+490731792+491934573+493532007
3718+496888471+502656633+511233428+522555737+534330394+542734706+547296158
3708+550965524+556294695+564106129+573099091+580261748+583472892+583476035
3698+582765449+584097573+589142577+597499522+607661778+617617841+623672302
3688+623239597+619344132+616600826+616514996+617997940+619897351+622941138
3678+628135054+632669305+631658800+627188603+625124791+626482507+627699992
3668+626231751+623688952+622604440+623536673+625339328+627908768+632841489
3658+639961568+646164604+650329495+655202203+661920968+667468867+667967534
3648+664046964+660488047+659610141+660462755+661934213+664101740+667504262
3638+671902697+676295520+679873967+682809699+686021105+689442036+690559996
3628+687619924+683798803+682650236+685008131+690334758+696694489+700846209
3618+701312400+700035650+699216785+699795820+702836538+708967738+715842299
3608+718871943+716416171+712012647+710190611+711940287+714661332+715886973
3598+715622972+714890760+714614114+716125232+720510796+726973867+732042854
3588+731704173+726767785+722722772+722380050+723518814+723123562+720895123
3578+718063629+715371992+713644990+714060371+716765103+720753096+725116660
3568+728927455+730680648+730115082+728932094+728060698+726717724+725051109
3558+724864632+726785669+728879713+728749509+726421172+724276169+724218400
3548+725872967+727430929+727649283+726346641+724031624+722216098+722625044
3538+725167395+727936031+729677177+730812947+731950289+732936923+733365999
3528+732835005+730819757+727621970+724991095+724343217+725184830+726524961
3518+728441583+730783689+732167147+732305133+732967304+734320531+733736258
3508+730108946+725656334+722339343+720118462+718997957+719750373+722170526
3498+724862387+727048248+728890489+730450920+731984412+734147598+736428343
3488+736820977+734722069+732117609+730243491+727918372+724422312+721518382
3478+720972123+721957111+722754650+723761338+726816873+731791649+735582539
3468+735435124+732293460+729254911+728056059+728322978+729059754+729783660
3458+730245511+730139701+729628912+729494816+729792340+729423129+728142113
3448+727636861+729289482+731993616+733663448+733627530+732716773+732251929
3438+733326713+736254962+739990179+742287087+741400201+738261530+735820125
3428+735409009+735456526+734326966+732728447+732038140+732043078+731975956
3418+732267120+733559360+734893953+734589994+732646957+730869818+730637695
3408+731338628+731522710+731132995+731230274+731777207+731547629+730205776
3398+728856965+729111013+732033650+736538718+739220402+737724250+733632319
3388+730269756+729222584+730011443+731611683+733391067+734870681+735246852
3378+733710741+730426974+726598220+723567154+722228669+722565928+723689576
3368+725450477+728979611+734615660+740329533+743284347+742794659+740906996
3358+739991226+740036573+739042157+736083901+732233371+728677522+726442948
3348+727095166+731217179+736497486+739342450+738377367+734625463+729844123
3338+726580261+727657514+733258169+739576817+742475808+741687025+739708518
3328+738332843+737536876+736466357+734939749+733790360+733818646+734938851
3318+736704691+739122898+741902460+743663062+743146809+740879384+738454442
3308+736331139+734064387+732605875+734011932+738252700+742250345+743492225
3298+742908625+742596883+742709203+741889515+740021308+739062511+740201873
3288+741708426+741241636+738959021+736582493+735363886+736167187+738867129
3278+741495834+742383169+741956263+740857908+738731313+736293574+735607009
3268+737038358+738645932+739237388+739752069+740934160+741677521+740840622
3258+739143626+737811053+736553010+734316041+731324186+729139149+728795679
3248+729530959+730186695+731602479+735507784+740969629+744339226+743399510
3238+739723784+736457752+735347648+735923241+736556303+736100064+734652103
3228+732655338+730529192+729315149+729929728+732031106+734293442+735622199
3218+735905057+735706233+735376383+734919845+734933089+736586759+739861396
3208+742741979+743042346+740418655+736621180+734239415+734477000+735990812
3198+736284819+733831292+729166836+724777530+723367508+725362102+728341610
3188+729368952+727608725+724713326+723198766+724232019+726683302+728483189
3178+728739931+728293345+728332930+728726686+728112556+725967777+723502127
3168+721707254+720137544+718213588+716121864+714235249+713040513+712969349
3158+713306159+712834356+711923674+712110824+713716303+715309285+715167781
3148+712734308+709189010+706509421+705391910+704672718+703265090+701803285
3138+701760857+703550567+706006713+707498001+707258844+705606971+703369703
3128+701347645+699711411+698206654+697437551+698996410+703182478+707316688
3118+707845886+704285697+699881874+698007307+698733383+699223894+697412782
3108+694387852+692528999+692602557+693396729+693509872+692714279+691340249
3098+689331586+686960073+685445288+685375247+685529771+684714274+683668449
3088+683731231+684740464+685713554+686555242+687558938+687993925+686639875
3078+683514748+680261212+678709237+679219952+680618750+681582262+681622446
3068+680792955+679350531+677911624+676998024+676162846+674562531+672530371
3058+671439274+671798009+672303412+671396097+669461741+668373562+668919447
3048+669866721+669842626+669085495+668799869+669601897+670954974+671622234
3038+670623103+667960875+664577659+661798097+660489170+660248367+659800135
3028+658581303+657245212+656386388+655840353+655308087+654899964+654753896
3018+654556045+653864316+652709838+651490483+650287291+648796377+647033830
3008+645566862+644918160+645127385+645788359+646202393+645892747+645106807
2998+644242370+642992708+640916175+638640443+637352469+637068264+636499855
2988+634827404+632651047+631001418+630274370+630245859+630422608+630224234
2978+629329640+628093673+627242144+627036623+627083542+626979117+626646235
2968+625962064+624680599+622966692+621456585+620450569+619603980+618713502
2958+618147825+618098886+618109586+617656041+616760288+615882008+615333392
2948+614941694+614295649+613198977+611877179+610832178+610312558+609782387
2938+608419620+606462627+605258986+605452908+606029398+605730116+604652264
2928+603858130+603839497+603772300+602392546+599672886+597035987+595623645
2918+595224165+595058229+594685538+594012180+593140372+592284579+591463543
2908+590428120+589077400+587671905+586517764+585627286+584734190+583610243
2898+582407387+581554587+581148110+580663436+579535148+577894687+576448933
2888+575675040+575377441+575006621+574216491+573093666+572056709+571547415
2878+571619626+571801576+571450174+570311971+568770772+567475875+566597258
2868+565581777+563809727+561362448+559076839+557884273+557985293+558611695
2858+558763114+558117892+557011829+555805344+554626173+553492161+552431744
2848+551537114+550826789+550064084+549049538+548030877+547329158+546728011
2838+545830799+544811614+544196211+544061742+543882187+542989764+540992625
2828+538112005+535320246+533754091+533652434+534088992+533980339+533107409
2818+531987204+531110308+530606365+530395232+530294847+529963088+529012635
2808+527359452+525347384+523468065+522056022+521136062+520375302+519354920
2798+518058526+516890168+516149238+515717394+515275373+514616344+513722836
2788+512704325+511636949+510550641+509664616+509307789+509416742+509416105
2778+508732533+507216214+505101330+502832521+500851396+499320111+498134354
2768+497241145+496687815+496370610+496092429+495766170+495185938+493937623
2758+492056845+490307805+489233919+488415877+487163484+485491369+483959860
2748+482866257+481949252+480864516+479719541+478875009+478303757+477587147
2738+476587417+475587239+474687595+473641508+472374673+471146525+470072040
2728+468960216+467759642+466726389+465991296+465330996+464493311+463453997
2718+462300117+461097187+459875774+458643959+457455134+456433405+455663628
2708+455086351+454443449+453357179+451744517+450118011+449072336+448528022
2698+447870790+446754251+445420443+444316288+443643341+443233011+442746167
2688+441990495+441070797+440288486+439892261+439791091+439528437+438730412
2678+437552176+436480048+435698299+434822077+433400081+431628592+430230355
2668+429529684+429105174+428539758+427952866+427512865+426997997+426171275
2658+425168814+424265129+423515220+422764936+421903081+421049832+420439817
2648+420049653+419499952+418527199+417390904+416577988+416217644+415990198
2638+415529582+414734475+413748627+412782571+411938600+411144354+410305173
2628+409544825+409136926+409108379+409087314+408705980+408040105+407473267
2618+407181355+406925773+406375810+405511336+404605743+403845769+403115278
2608+402215596+401190911+400336651+399877644+399680841+399345864+398612156
2598+397638579+396844932+396490574+396439016+396339043+395981730+395421477
2588+394821266+394316499+393970336+393706709+393345804+392822106+392260020
2578+391745115+391195787+390568936+390007823+389631989+389332706+388960726
2568+388605920+388473882+388563454+388696389+388801226+388932216+389056658
2558+389027662+388750940+388275769+387733177+387189836+386594825+385951661
2548+385448803+385240887+385226707+385247809+385306888+385372888+385247547
2538+384885781+384588669+384630237+384890832+385033234+384893938+384579876
2528+384288039+384133029+384114396+384165243+384179685+384055654+383796106
2518+383482905+383108082+382634033+382266206+382343842+382834204+383238922
2508+383137602+382587302+381923372+381425678+381230484+381316763+381458678
2498+381344150+380852480+380144101+379446685+378878837+378487775+378246636
2488+377971673+377470910+376859511+376527153+376686354+377089539+377286940
2478+377077678+376634722+376279466+376212343+376374538+376498830+376348160
2468+375921591+375434897+375167828+375257662+375511785+375544149+375225148
2458+374814107+374558787+374416572+374243752+374030935+373873269+373819466
2448+373805809+373753765+373684622+373624833+373451452+373009692+372378950
2438+371871004+371719884+371845561+371988898+371992079+371787493+371259380
2428+370442012+369715524+369412687+369377143+369276796+369150520+369248061
2418+369503456+369572749+369340065+369062595+368979271+369020054+369003105
2408+368969207+369160061+369654800+370142841+370190508+369734830+369155272
2398+368826169+368766305+368750591+368597152+368321291+368107689+368101552
2388+368178515+367994508+367285194+366009903+364173948+361663288+358390895
2378+354551403+350582081+346848773+343453247+340332124+337418728+334687918
2368+332157577+329915071+328108673+326879178+326380960+326891750+328702525
2358+331853169+336193199+341756214+348828738+357204876+365426902+371447802
2348+374017204+373399033+371208496+369065476+367080758+364488309+361100903
2338+357233948+353064642+348658462+344290857+340514746+337890681+336607309
2328+336380536+336660924+336894581+336840180+336823567+337477395+339052605
2318+341076084+342762716+343717697+344189687+344678477+345435121+346398408
2308+347448423+348540867+349630654+350635323+351508028+352236648+352787846
2298+353190694+353596534+354064072+354394110+354391865+354159443+353947899
2288+353899895+354054457+354371250+354654257+354682243+354495468+354380229
2278+354528468+354834635+355016285+354844251+354318046+353716375+353379714
2268+353350418+353337323+353114816+352821669+352757166+352965118+353139023
2258+352980795+352583897+352309121+352327903+352521301+352773217+353069544
2248+353330888+353430075+353382296+353334741+353395616+353575507+353829256
2238+354083865+354274307+354397104+354515372+354707012+354999336+355318561
2228+355504364+355452170+355281183+355261316+355500547+355826283+356064803
2218+356272644+356554379+356822832+356921682+356877682+356873192+357035199
2208+357372271+357849687+358404215+358947930+359461264+360017064+360638453
2198+361229348+361698533+362057642+362397483+362856752+363531158+364318445
2188+364966959+365352372+365576936+365779127+365992206+366204611+366459931
2178+366877108+367542535+368347519+369043401+369564891+370191294+371248680
2168+372704199+374186769+375423186+376531531+377810002+379392508+381288065
2158+383600688+386446512+389703227+393038178+396185829+399119690+401946620
2148+404641698+407004532+409013606+411023728+413352851+415893855+418386069
2138+420797654+423243287+425810369+428599285+431698334+435074852+438601705
2128+442103713+445357174+448183018+450523066+452356290+453635322+454316388
2118+454347442+453669295+452285800+450275715+447758582+444893302+441831107
2108+438659324+435430333+432159960+428799119+425366964+422058840+419018869
2098+416101059+413072837+409945390+406887385+403914201+400895968+397843127
2088+394968793+392419446+390119208+387968330+386054963+384552863+383481371
2078+382668305+381920042+381151987+380351941+379526042+378765432+378265418
2068+378115047+378115159+377961234+377588094+377202457+376983991+376876535
2058+376671426+376227496+375601992+374994709+374569375+374343351+374248130
2048+374238589+374326514+374567579+374998825+375527349+375963534+376279054
2038+376723208+377551128+378739840+380071740+381386504+382643424+383808528
2028+384786931+385467248+385752875+385550310+384863632+383918902+382978102
2018+381980954+380635173+378932565+377267073+375963459+374982325+374122827
2008+373262992+372362787+371420602+370489828+369671300+369037564+368526774
1998+367980066+367411432+367101524+367179123+367278198+366930051+366137750
1988+365245626+364499047+363976247+363661549+363421831+363102157+362702864
1978+362377615+362286921+362446796+362654674+362669752+362517435+362413721
1968+362369908+362171010+361789489+361451219+361214794+360877273+360393385
1958+360020993+359915744+359902013+359770649+359553792+359391784+359308536
1948+359275948+359435635+359975758+360626967+360654878+359782734+358678205
1938+358068228+357954748+357943112+357835769+357713983+357718098+357862969
1928+358078555+358450759+359107804+359799384+360181391+360519324+361214831
1918+361784325+361394910+360267895+359401999+359254284+359455689+359438778
1908+359029270+358523082+358254817+358192409+358069313+357805874+357667887
1898+357999684+358750566+359404468+359689645+359985224+360470160+360515545
1888+359674679+358528919+357787129+357464125+357321724+357318730+357433370
1878+357545952+357563425+357557139+357971361+359515366+362293694+364957868
1868+365507719+363634311+361040215+359233294+358445858+358251225+358270307
1858+358311762+358309555+358304242+358405263+358748059+359416740+360484004
1848+362242398+364882027+367387412+367678688+365407110+362790191+361547002
1838+361484669+361661604+361844676+362838643+365372950+368664574+370664930
1828+370551189+369502109+368383886+367008622+365549249+364757585+364851946
1818+365307062+365679940+366197764+367386963+369217493+370843999+371486901
1808+371389360+371468418+372395001+374254677+376564531+378423609+379172545
1798+379204572+379793672+381989372+385455537+387997439+387553098+385218925
1788+383715851+384171192+385959443+388261851+390818158+393247216+394921426
1778+396052444+397968804+401862099+407337151+411878475+413071116+411594046
1768+409565179+408288279+408660633+411063089+414345284+416642005+417848266
1758+419146492+420753392+422529895+425360416+429990263+435224700+438563953
1748+439141903+438440034+438208735+439324114+441736185+444455809+446306094
1738+447881939+451430679+457567080+462724853+463103792+460779159+458985483
1728+458347407+458829949+460600690+463430051+467258693+472959021+481146176
1718+489967628+495099060+494827802+492220498+490491737+490976037+494000743
1708+499287822+505505151+510875890+515646754+521938876+530000017+536604816
1698+539779892+540770979+539931797+538193121+538493264+542207266+548117156
1688+555152789+564305850+575635904+584034342+585234242+583418528+583479328
1678+586878482+593247941+600810153+607542125+613754179+620693243+626941028
1668+629867369+630795486+633264578+638212116+643553709+647313470+650490454
1658+655629781+664521237+677433984+690949038+697470551+698054300+700810814
1648+707152885+712453247+712562947+710014984+709014731+710935619+715975572
1638+723823297+731747350+734238741+730302681+725794919+724506720+725811607
1628+727428684+728231610+728675128+728430733+726338260+723452964+722317567
1618+722985351+721974546+716677253+709471569+703448873+699281812+696324978
1608+693707124+690843677+687684203+684680376+682412651+681063989+680361560
1598+680020559+679861171+679555939+678765959+677486664+675891213+674054734
1588+672168942+670737892+670120769+670015558+669976871+670506144+672785542
1578+676845371+680155253+679898436+678029481+678660074+682605039+687195488
1568+689732376+691088671+693675246+698825798+707566471+721131362+737491978
1558+747521448+748419334+748433477+751777033+758035743+765927095+774327889
1548+782669119+791482901+801599100+812888783+824175997+832290417+832427656
1538+826765117+822844546+822759764+823876527+823894412+824042725+826562776
1528+831510913+837380207+843253842+849324728+854830573+857895163+858944355
1518+860034928+860882079+860236819+859372233+861220161+867481864+877749669
1508+889032468+894511523+890273599+883039704+878867031+878336785+880249216
1498+882812071+883951133+883525051+884077372+887586227+893034528+896765704
1488+896166165+892895569+890164422+889510632+890659348+892543643+894603489
1478+897318548+901394690+906689215+911405004+912491087+909373743+905696968
1468+904587014+905799037+907000283+906919093+907321828+910563465+916803468
1458+923105654+924537003+920450984+915156683+910987677+908284741+907239665
1448+907308583+907268774+906928746+907048848+907755318+908902014+911065650
1438+914182097+915974950+914914458+913485279+914013205+915469099+915706160
1428+914501546+913272238+912808741+912952938+913760280+915593391+917710707
1418+918026565+915917181+913104469+910827840+908848735+906740773+905072811
1408+904996410+906595004+908184020+908186938+907283814+907162365+908265659
1398+909997451+911745855+912462427+910762364+906935181+902948685+899751647
1388+896426200+892367792+889260999+889142617+891529097+894167604+895919451
1378+897749195+900809744+904645756+907790938+909721104+911269711+913080374
1368+915031717+917254244+920348167+924077322+926792755+927086612+925574821
1358+923981764+923248954+923201586+923481002+924220771+925780304+928313376
1348+931622810+935121713+938132799+940378374+941874900+942497111+942171750
1338+941301253+940488074+940104645+940357870+941411926+943352718+946030436
1328+948760910+950479756+950692573+950073129+949832775+950660919+952131405
1318+952864814+951768853+949384618+947509377+947511547+949196047+951199022
1308+952230330+951925847+950835797+949861061+949772088+950862736+952523589
1298+953473257+952968379+951474098+949927286+948921495+948482168+947874698
1288+945986661+942562962+938562772+934946311+931891225+929212908+926670258
1278+924028683+921312801+918626926+915767221+912716775+910282628+909330566
1268+909505069+909448947+908316544+906481112+904640742+902869440+900904628
1258+898735006+896393349+893672828+890614225+887844017+885960170+885079346
1248+885191591+886239586+887602391+888198636+887612493+886671655+886413042
1238+886925029+887747262+888879889+890518817+892260935+893584978+894702490
1228+895989042+896956969+896778649+895736566+895280552+896601152+899510993
1218+902567501+904349055+904850790+905413662+907135352+909725519+912098304
1208+913755715+915322207+917741014+921032787+924055023+925860073+927123129
1198+929388834+932937499+936310463+938071738+938407051+938655337+939692706
1188+941363137+943329895+945627477+948103528+950237980+952014745+954103550
1178+956797731+959499769+961469446+962665230+963563714+964270409+964426729
1168+964311416+965038988+966961148+969087668+970867500+972939245+975329167
1158+976790747+976952979+977525728+980265031+984618344+988128696+989054119
1148+988012710+986944660+987369171+989485290+992123199+993906997+995060876
1138+997404254+1001719254+1006086709+1007958134+1006997840+1004905367
1130+1003598535+1004199795+1006454349+1008796604+1010031225+1010769199
1121+1012252256+1014578123+1017379535+1021267630+1026733740+1032144925
1113+1034819201+1034210683+1032224095+1030670099+1030217752+1031002195
1104+1032479789+1033285484+1032927797+1032964613+1034918425+1037803423
1095+1039014697+1037550198+1035227922+1034343356+1035478379+1037973437
1087+1041108516+1044087350+1045888135+1046453701+1047211355+1049366984
1078+1052282213+1054212604+1054587502+1054265059+1053595031+1052085634
1070+1050092312+1048867045+1048608058+1048654378+1049796658+1053492888
1061+1058570181+1062034214+1063449175+1064780551+1066163485+1066114995
1053+1065314089+1066478445+1070163301+1073101577+1072538182+1070208199
1044+1069328048+1069965226+1069877824+1068687727+1068483516+1070394002
1035+1073054734+1073741823+1071477017+1068990265+1069218946+1071381833
1027+1072111276+1069836892+1066366125+1063864631+1062291405+1060553776
1018+1059044230+1059653945+1063038134+1067429161+1070587138+1071771623
1010+1071195806+1069148156+1066570336+1064320945+1061329165+1056200613
1001+1050722306+1048613595+1050911701+1054785652+1056646900+1055403599
993+1052868656+1051339729+1051053130+1050454414+1048329840+1045096658
984+1042278484+1040884250+1040299080+1038989554+1036188141+1032094863
975+1026788440+1020508105+1014652654+1010476988+1007215445+1003320691+998914324
965+995251693+992583254+990122019+987346198+984298371+981248897+978426382
955+975667923+972656088+969677403+967641353+967056631+967342856+967226869
945+965882622+963761041+961789943+959968654+957617270+954783007+952567813
935+952234595+954155482+956975527+958181937+956622030+953725060+951552070
925+950963008+951743037+953099107+954087686+954341884+954087612+953475801
915+952773297+952685820+953598971+955080980+956190111+955593791+952157221
905+946545192+941251715+938153901+937128804+937259682+938030731+938980997
895+939270515+938341126+936822225+936101163+936626769+937332192+937362873
885+937407546+938401514+939977659+941087912+941286885+940593585+938704949
875+935333407+931286598+928350193+927613865+928469247+929801671+931464619
865+933721343+935856020+936410211+934744943+931806966+929367507+928664554
855+929461269+930348155+930471250+930648373+932031232+934069228+934794256
845+933395084+931307700+930087222+929527643+928802241+928504268+929927460
835+932500716+933634466+931934327+928868840+926332924+924649772+923563389
825+923599383+925310895+927937280+930257461+932714355+936983559+942697806
815+946510172+946300947+944173155+943303330+944466414+946692458+948866345
805+949996129+949602748+947933364+944965306+940987116+937976778+937616472
795+938879678+939713808+939965611+940571510+941445001+942269478+943601528
785+945648504+947354030+947999290+948421107+949324754+949535326+947478922
776+943470575+939622291+938199847+939934407+943003412+944337856+942982160
766+941173518+941407287+943470725+944813625+943405922+939989632+937337355
756+937590281+940813061+945368116+948940128+950121170+949749190+949562714
746+949249550+947196363+944402958+944131250+946997839+949698605+949383945
736+946791682+944643761+944879700+946879458+947630378+945179768+941661709
726+940113326+940082121+939628352+938997610+939311372+940318061+941477477
716+942666676+943041350+942046859+941384164+943306249+947306363+949727340
706+947116295+940088033+932714056+928078784+925876236+923906560+921137325
696+918595273+917177768+916483420+915916358+914922166+912185182+906741222
686+899949348+894267652+890585715+888664902+889291978+893542025+899230006
676+901539636+898571801+892120404+883018601+871006359+860902133+861999441
666+872931736+883483820+887774724+885850021+881249395+877165545+873858431
656+870511358+867839103+867032285+867950001+868956166+867332054+861366229
646+853408354+848362489+848646843+852823931+858292585+862870912+864404778
636+861616835+855889942+850384546+847237494+846593133+847802012+850497540
626+853828000+854864546+850459227+842002459+835234381+833820542+835357701
616+835440089+833638481+832214315+831830737+832001573+832447486+832578962
606+831852811+829987747+826358864+820667815+815475882
##END=
