##TITLE=<SNM>
##JCAMP-DX=4.24
##DATA TYPE=INFRARED SPECTRUM
##DATE=3/5/2025
##SAMPLING PROCEDURE=Instrument type and / or accessory
##ORIGIN=Admin
##XUNITS=1/CM
##YUNITS=ABSORBANCE
##RESOLUTION=4
##FIRSTX=4497.3318
##LASTX=599.83466
##DELTAX=-1.4281778
##MAXY=1.7396305
##MINY=0.18681431
##XFACTOR=1
##YFACTOR=1.6201571e-09
##NPOINTS=2730
##FIRSTY=0.20682484
##XYDATA=(X++(Y..Y))
4497+127657273+127243953+127254897+127495905+127667638+127786900+127996756
4487+128193865+128285590+128531913+129117711+129733364+129980846+129828915
4477+129465657+129096171+128962028+129200184+129637178+129914478+129773060
4467+129172813+128284348+127481769+127251016+127807309+128696868+129065599
4457+128510134+127478504+126734327+126636348+127030399+127576152+127962763
4447+127965080+127572703+127019776+126500098+125923433+125128542+124196547
4437+123386342+122904971+122799533+122960293+123232259+123545659+123918023
4427+124372529+124882338+125289432+125331583+124941744+124394970+123925942
4417+123414017+122688456+121901393+121395786+121380105+121740384+122028675
4407+121841251+121307519+120906883+120778708+120603140+120167526+119633270
4397+119226516+119009569+118970885+119150997+119632065+120318381+120776648
4387+120668441+120288452+120090516+119857096+119126477+118163642+117639577
4377+117647855+117698560+117391598+116743663+116172479+116176848+116784839
4367+117578727+118283935+118803843+118820637+118054323+116813691+115767704
4357+115306291+115409651+115923755+116710157+117569732+118170770+118223140
4347+117842921+117594584+117930526+118626196+118957190+118483572+117491261
4337+116562052+115978084+115726123+115783330+116080846+116358864+116422004
4327+116487682+116915984+117573154+117868646+117545056+116976420+116525060
4317+116151243+115867210+115925852+116263239+116337903+115880868+115361098
4307+115364906+115875754+116461966+116882524+117213206+117516176+117620345
4297+117325846+116871653+116905904+117622029+118303663+118274719+117844117
4287+117710332+117941839+118043966+117666461+116936255+116289221+116103757
4277+116424671+116987687+117455078+117698063+117941646+118435480+118976192
4267+119129641+118847319+118432766+118103915+117978408+118199521+118763328
4257+119442397+119978603+120163194+119854402+119209989+118807476+119189157
4247+120211958+121103310+121325657+121070080+120763238+120589436+120655381
4237+121036998+121520732+121772345+121751779+121585859+121276947+120942725
4227+121029014+121804535+122815067+123295703+123117035+122882401+123029890
4217+123362172+123632031+123936648+124245311+124164227+123489325+122549052
4207+121882133+121873727+122535320+123367635+123761650+123728420+123833766
4197+124363460+125004442+125348028+125281301+124949258+124667838+124704526
4187+124939426+125006760+124815749+124507289+123999208+123207491+122595370
4177+122783520+123700083+124716427+125478125+126094062+126683935+127143600
4167+127278397+126990851+126377414+125649058+124991125+124602472+124711645
4157+125311257+126024383+126448804+126497210+126335925+126203134+126260985
4147+126405016+126310430+125862813+125365475+125100739+124934460+124654198
4137+124444737+124612056+125045224+125446256+125925558+126781344+127736204
4127+128020173+127320861+126156439+125250932+124959136+125286093+126026627
4117+126791525+127244652+127430484+127637103+127916380+128030115+127874440
4107+127641812+127532409+127592505+127854519+128353227+128940267+129297299
4097+129222902+128804679+128260371+127740959+127360768+127246188+127407068
4087+127687449+127974682+128338447+128833458+129257622+129263057+128739948
4077+128031163+127629901+127655341+127825014+127915176+127948029+127935226
4067+127836474+127790450+127962993+128152237+127968686+127446957+127068798
4057+127107657+127316317+127347579+127164267+126920509+126738401+126723437
4047+126955266+127350053+127672761+127726170+127515081+127282480+127303625
4037+127549875+127767135+127947716+128317505+128765499+128830312+128416054
4027+127999249+128023778+128469105+128982326+129161638+128853508+128373756
4017+128215901+128427156+128589756+128474439+128341078+128500836+128900028
4007+129253280+129405193+129483527+129731111+130163239+130449038+130252886
3997+129617716+128876354+128329967+128169381+128513721+129275244+130108533
3987+130687240+130952473+130993071+130808112+130357892+129863120+129855937
3977+130683699+131973454+132876349+132955207+132594606+132426810+132595599
3967+132787705+132847313+132986036+133319073+133608044+133640502+133537666
3957+133553660+133803663+134259548+134894221+135697288+136428708+136576105
3947+136032201+135565683+135918025+136738245+137025386+136415234+135463335
3937+134961325+135553469+137494580+140070612+141531796+140711300+138749449
3927+137838635+138508018+139219820+138878598+138673129+140238896+143036346
3917+144575523+143217625+139985675+137115759+135901948+136318689+138084646
3907+141532366+146894563+152871032+157042934+158292009+157025625+153393065
3897+148149753+143952715+143369832+146176148+148977828+148907891+147832196
3887+149007766+151825762+153170056+152894890+153024453+152735224+150294466
3878+147739137+148118234+151342937+155537014+159642088+162425558+162074642
3868+159683237+158342943+158447002+157629413+154804813+151932589+151546484
3858+155120080+163213753+174041855+179921669+174482684+164040705+155889439
3848+152033797+152177735+155144949+159395986+163942735+168453100+171818412
3838+172033446+169097301+165532351+162897033+160820472+159039404+158200955
3828+158488998+159486892+161899395+166935720+172750785+174710870+172762834
3818+171113251+169847842+165948494+160212968+156495379+157014661+161506319
3808+167406882+171588147+174405095+178159952+181531041+181091297+178226670
3798+176456731+175460050+173558718+171589876+171407419+173308310+176637072
3788+181079929+186248714+191121620+195362281+200307534+207033247+214383976
3778+220679769+226502173+233729142+243257640+254312898+264573523+271818629
3768+276416369+280101326+283604103+287890788+294977626+305594097+317599332
3758+328422964+338862293+352273399+371059108+393898644+414238265+426573427
3748+434460748+443883181+455537850+464761252+470306853+476761631+487578236
3738+503030713+520506829+535301328+544142120+548415322+551650547+555747012
3728+560935609+566441992+570009793+569114817+563686942+556233736+549278218
3718+543821500+540588335+541181933+546197619+552048498+552823026+548228284
3708+543444335+542239960+545174063+550162120+553328991+552636871+550458754
3698+549973317+552007368+556219057+562924003+572215503+581124135+584134650
3688+580461815+575808248+574124727+575519046+579186289+584741198+592460796
3678+602079979+609354609+608401542+602168494+597913209+596411244+593667967
3668+587918369+580862783+574477574+569933050+567691434+567919492+570242523
3658+572762120+573388387+573663387+577820114+587492642+599045587+604342896
3648+599182407+589306397+581284831+576943385+575665174+576595026+578983359
3638+581958372+584597829+586331568+587953908+591741489+598538224+604102073
3628+603480037+600134922+599587569+602973447+608896286+615204569+619697366
3618+621623734+622674146+624836481+628465978+632976582+637772230+641690304
3608+643235386+642597310+641704652+641898458+642884121+643939609+645150791
3598+647053319+649824666+652838087+654962750+656353243+658988911+663582585
3588+666848530+665315294+661152644+658894951+659444585+659918138+658204046
3578+656006540+655568525+656021182+655486411+654825084+656334996+659894887
3568+662372876+660966710+656634682+652429063+649947028+649102637+649698773
3558+651519849+653418698+654045737+653499782+653253514+654375150+656153550
3548+656803914+655457126+652634716+648979098+645227460+643039519+643524698
3538+645329881+645996726+644648688+642208446+640107181+639535547+640599939
3528+642171362+643344724+644131871+644450099+643768465+642343463+641216677
3518+640668662+639925074+638618314+637838966+638697116+640299001+640427838
3508+638548340+636455905+635129205+633393700+630810200+629330235+630390580
3498+632561450+633373025+632381697+631273452+631093331+630698949+628456634
3488+624820882+622044090+621368121+621962123+622710199+623687106+625352710
3478+627140749+627498784+625419961+621893180+619230214+618626868+618882334
3468+618032351+615919240+614205699+614102689+615194341+616458573+617367787
3458+617606550+616838424+615433031+614372245+613901965+613454606+612927156
3448+612590570+612266345+611785323+611438178+611266445+611004283+610754079
3438+610530877+609968036+609579687+610527456+612227789+612366559+609804875
3428+605698623+602065889+600464077+600912687+601368582+599855580+597331752
3418+596432214+597631586+598617873+597474789+595047129+593771419+595044664
3408+597792098+599291304+597815974+594443010+591664930+590704837+590997570
3398+591562472+591598047+590281096+587616916+585222955+584856496+586402166
3388+588154336+588719311+587983744+586665432+585758462+585935493+586940948
3378+587979770+588747161+589519261+590399815+590973399+590662749+589355217
3368+587621589+586178009+585339982+585105965+585277992+585361431+584944937
3358+584209480+583687438+583759950+584338022+584610411+583740636+582340835
3348+581991152+583012205+584086493+584189577+583730482+583736957+584739064
3338+586250337+587153885+586798278+585396785+583454892+581582458+580534106
3328+580311567+579708110+578008513+576337721+576050984+576692592+576652933
3318+575357320+573892512+573593745+574642354+576145092+577222543+577754371
3308+578183152+578783923+579253798+579100128+578311584+577365360+576672394
3298+576393089+576575050+576987349+577100734+576635163+575825870+574985967
3288+574294988+574032128+574392738+575090376+575554916+575391902+574696471
3278+574262761+575114068+577240607+579141884+579432374+578601411+578069473
3268+577979302+577411200+576380066+575676026+575109249+574007185+572938746
3258+572936061+573558685+573458912+572335216+570940602+569878234+569467775
3248+569917930+570845060+571364122+571213543+571122048+571657996+572436129
3238+572766719+572439734+571589494+570286118+568538768+566563434+564929726
3228+564127863+563862575+563239325+562018468+561034094+560861257+560978174
3218+560790842+560549062+560474048+559849364+558002609+555624172+554067980
3208+553689748+553731283+553560507+553253388+553129445+553321706+553744527
3198+554144870+554183057+553701336+552915220+552112401+551214739+549961802
3188+548500158+547226288+546065434+544497874+542347679+540077110+538291572
3178+537282916+537011263+537202826+537426285+537322502+536839824+536164959
3168+535539723+535148504+534844955+534038604+532228344+529655181+527159534
3158+525467956+524705790+524417361+524139674+523851392+523533164+522754038
3148+521317043+519768429+518665813+517968543+517500398+517210423+516712111
3138+515355685+513021764+510366818+508247931+507121734+506818478+506731030
3128+506346581+505687829+505204379+505265854+505813796+506473063+506916265
3118+507062797+506929693+506536929+505942228+505054941+503629682+501735909
3108+499883304+498369162+497068141+496153151+496090205+496539955+496425246
3098+495474681+494432510+493605447+492599440+491501828+491002743+491256038
3088+491580741+491352647+490644524+489960388+489593855+489294021+488583323
3078+487389580+486171445+485354058+484862330+484315419+483481918+482471275
3068+481640497+481378556+481733280+482124130+481739975+480367951+478563209
3058+477055210+476232415+476010427+475984197+475824273+475500011+474994745
3048+474170588+473229773+472799152+473075220+473327522+472739553+471440225
3038+470193284+469301729+468354769+466965674+465349037+464036537+463219923
3028+462565034+461695884+460688148+459867339+459305749+458899078+458763583
3018+459042668+459403866+459215762+458201698+456611623+454859158+453265992
3008+452118898+451643579+451652408+451446314+450477501+448944118+447422655
2998+446266805+445571227+445235156+444967844+444628609+444395069+444292905
2988+443952897+443106593+441943018+440830800+439930967+439107546+438188179
2978+437309132+436786980+436621170+436451350+436040523+435446521+434782030
2968+434069088+433262590+432334724+431345604+430392794+429540494+428852164
2958+428361577+428009245+427749842+427597093+427424955+426945258+426017171
2948+424847378+423832652+423220807+422864796+422343857+421423276+420316723
2938+419414941+418824250+418256479+417425443+416472744+415775143+415404048
2928+415113816+414758136+414358051+413900943+413356680+412716029+411894852
2918+410901464+410097468+409881477+410132859+410326225+410089411+409335633
2908+408112642+406713908+405637891+405068832+404680410+404173194+403642396
2898+403286863+403142501+403063220+402694296+401705139+400256886+398958624
2888+398244137+398033922+397982270+397796042+397369284+396831386+396429535
2878+396202692+395844804+395073477+394043300+393189822+392808978+392926667
2868+393277602+393337164+392778222+391845537+390897216+389921082+388913456
2858+388179581+387823275+387491840+386917226+386291401+385977624+386073276
2848+386238019+385960002+385073340+383871650+382748248+381959409+381571355
2838+381366217+380986292+380349946+379729529+379371568+379203146+378868693
2828+378075992+377023888+376290932+376135460+376190754+375992349+375394484
2818+374376962+373030469+371840405+371355631+371469053+371542521+371194346
2808+370483869+369548866+368542050+367671097+366975372+366322838+365717321
2798+365276326+364921345+364395219+363551307+362497547+361548822+361019863
2788+360906405+360794639+360220540+359148275+358018766+357257299+356776351
2778+356114987+355076974+354013392+353370202+353159509+352999733+352514554
2768+351599233+350483557+349601163+349158733+348819571+348102987+347030318
2758+345991863+345108769+344191499+343235231+342498670+342072354+341665059
2748+340922133+339864474+338890548+338321268+338064184+337790397+337305549
2738+336639991+335883012+335067685+334201478+333321071+332488084+331755018
2728+331152334+330709022+330473864+330449362+330446787+330116307+329296344
2718+328256124+327412137+326863276+326332589+325523957+324439957+323360518
2708+322587830+322213351+322050815+321766764+321167722+320398676+319775426
2698+319400946+319082129+318659971+318212464+317794720+317218451+316358056
2688+315486441+314986731+314855687+314739763+314335742+313582405+312619184
2678+311708904+311075831+310706171+310336989+309723489+308944068+308331451
2668+308045394+307929305+307866745+307922223+308007722+307806116+307149811
2658+306195015+305234407+304503953+304030307+303601048+303075585+302637129
2648+302465064+302329753+301864716+301117523+300468723+300057712+299653378
2638+299101628+298544839+298137304+297845509+297569919+297230739+296784263
2628+296326547+296027982+295832373+295463578+294858575+294331365+294163421
2618+294220978+294114528+293664538+293081481+292645305+292355478+292051322
2608+291735521+291530034+291411241+291239453+290983472+290718699+290481903
2598+290277354+290141914+290069844+289940382+289644779+289245080+288886990
2588+288608365+288368296+288187899+288082001+287932341+287624340+287232294
2578+286900085+286640738+286385585+286118439+285856406+285597501+285367493
2568+285246014+285294595+285505619+285844118+286278454+286732105+287064810
2558+287165778+287045036+286811202+286585094+286411963+286200498+285776389
2548+285102977+284444373+284162989+284310570+284559432+284577293+284316934
2538+283911625+283473868+283067087+282753605+282582736+282537632+282536455
2528+282531783+282563072+282659258+282777702+282869363+282875874+282692921
2518+282299660+281843306+281466269+281200999+281097713+281216782+281451609
2508+281580188+281494027+281215329+280782924+280283158+279872018+279610923
2498+279399936+279170002+278968267+278771922+278443834+277964027+277484991
2488+277096477+276730183+276316063+275882003+275498639+275198860+274945896
2478+274697549+274496476+274401725+274342513+274166310+273820544+273386116
2468+272963369+272597186+272290270+272049759+271908727+271878817+271883195
2458+271788241+271521996+271125885+270686288+270275074+269968287+269824385
2448+269799295+269763407+269640052+269466645+269313417+269211087+269154413
2438+269109898+269017336+268841685+268632629+268466580+268325786+268137645
2428+267944574+267880175+267924671+267859775+267572192+267273683+267286393
2418+267657451+268099679+268315467+268257947+268042011+267770432+267555214
2408+267545354+267785074+268121605+268339454+268363257+268315283+268362760
2398+268499800+268547995+268415166+268238853+268207858+268354740+268551011
2388+268578971+268213376+267366392+266116122+264471064+262204744+259114488
2378+255410050+251642795+248182897+244910110+241539169+238113595+234977242
2368+232394183+230451830+229187267+228572939+228573767+229382895+231417737
2358+235021463+240238681+246884378+254805214+263647772+272180674+278607290
2348+281777544+281937008+280575744+279172338+277802760+275667079+272509976
2338+268778830+264939982+261164302+257583845+254512572+252211302+250599465
2328+249393729+248392063+247572193+247121927+247322319+248219337+249526208
2318+250901838+252164046+253288073+254350533+255404348+256395786+257320341
2308+258345865+259576600+260810480+261731374+262263423+262581265+262852293
2298+263127625+263432701+263815679+264279391+264728480+265030907+265161473
2288+265270131+265541968+265990504+266453959+266756423+266786296+266506016
2278+266028747+265623603+265483804+265509538+265452110+265230913+264935549
2268+264586859+264178441+263910761+264027605+264400705+264596130+264379974
2258+263912822+263460054+263131874+262931298+262883656+263003056+263192172
2248+263298861+263271398+263188254+263157645+263223002+263341629+263459392
2238+263593581+263776738+263984138+264208829+264497148+264844440+265196809
2228+265574821+266051795+266640463+267308816+268052478+268898395+269869783
2218+270946168+272061550+273169647+274286004+275462511+276769713+278277987
2208+279997268+281862215+283801294+285786083+287793149+289748856+291582772
2198+293355691+295243246+297329022+299467518+301415039+303103214+304715915
2188+306418345+308103798+309554589+310714449+311644044+312393408+313035861
2178+313652084+314243952+314749733+315083413+315160598+314958955+314478890
2168+313677138+312594462+311446080+310438528+309574860+308660348+307482811
2158+306035478+304494553+302991135+301585043+300339924+299281437+298489048
2148+298113501+298114679+298596712+300562187+305251219+312548365+321078287
2138+329788403+338449111+346977047+355233255+363190035+370916844+378638244
2128+386611138+394806349+403043317+411228780+419132362+426315349+432387370
2118+437002934+439905914+441317965+442003315+442913339+445030975+449360906
2108+456654924+467093187+480317549+495491457+510897027+523967389+532741887
2098+536902771+536834968+532995845+526396043+518153594+508773432+498417945
2088+486888030+473461840+457772954+440344517+422049027+403863905+386770252
2078+371362069+357998422+346995993+338133090+330721309+324462803+319431224
2068+315436886+312139340+309287828+306594162+303981157+301728871+299990038
2058+298690930+297836845+297336361+296977922+296895919+297450740+298769806
2048+300932436+304205664+308935055+315669506+325136160+337754490+353610474
2038+372768345+394893283+418832086+442971797+465512051+484569854+498907134
2028+508259189+512813720+513193901+510561030+506039389+500376136+493985960
2018+486891929+478940411+470159953+460717911+450775716+440420487+429546270
2008+418030040+406088010+394177949+382662823+371784301+361754107+352685477
1998+344551483+337311877+330991049+325498536+320502348+315753349+311393876
1988+307633224+304394762+301538596+299071148+296973673+295150628+293572141
1978+292246435+291136829+290176588+289277013+288455101+287984582+288088862
1968+288433174+288304742+287420233+286219463+285280468+284786956+284631962
1958+284715180+284936818+285101561+285054967+284848266+284682824+284726805
1948+285030539+285649024+286653909+287699115+287868972+286662977+284804964
1938+283379190+282747001+282646216+282735320+282809010+282816423+282819789
1928+282994686+283684561+285039184+286528567+287518166+288246468+289147128
1918+289588344+288695244+287045808+286068332+286339359+287309055+288083491
1908+288181810+287800727+287454097+287406142+287564613+287787943+288104847
1898+288637631+289313103+289815592+290162976+290934873+292242461+293026536
1888+292356858+290812769+289530143+288892141+288748772+288932885+289221314
1878+289380355+289380428+289444092+290152509+292332503+296088464+299715607
1868+300580471+298174020+294748538+292452455+291676934+291702411+291808089
1858+291758312+291694078+291788020+292039365+292470427+293312702+294855154
1848+297367357+300868624+304146838+304767383+302163667+298928019+297316458
1838+297266646+297581710+297824870+298945825+301898213+305749403+308029465
1828+307930133+307086570+306407161+305212204+303408897+302028999+301680438
1818+302014578+302534891+303313484+304800899+306945906+308739335+309144570
1808+308382330+307694902+308232487+310429147+313716649+316580191+317685198
1798+317410786+317667061+320072721+324237762+327199053+326173070+322642830
1788+320238642+320387786+322086022+324082952+326106665+327951360+329070862
1778+329805142+331685266+335955046+341980270+346701678+347278683+344626975
1768+341334064+338958608+338621433+340843257+344173877+346221649+346910936
1758+347791601+348996712+350222720+352809311+358090763+364656719+368979034
1748+369587127+368309871+367346356+367745559+369524769+371633685+372744873
1738+373604274+376829235+382891580+387265769+385570402+380515903+375863991
1728+372546872+371008155+371496351+373325300+376304434+381857944+390956079
1718+400828704+405217130+402065749+396083126+391607767+390215949+392233040
1708+397215505+403366071+408387790+412590724+418635852+426778087+432742940
1698+433837977+431744695+427225593+421719578+418831902+420152128+424419406
1688+430634133+439836345+451391167+458246287+455468428+449369367+446421136
1678+448136995+453269966+458931600+463105213+467197963+472591807+476505576
1668+475712360+473212187+473972661+478463693+482932284+484351252+484454189
1658+487125763+495154208+509459518+525626114+531797062+528437672+527877664
1648+532808513+536957661+534533532+529130638+526610709+528648439+535082247
1638+545353154+556430376+561574273+558722026+554836437+555309660+560198238
1628+567076793+574326848+582331711+591031674+598748660+605364833+613478335
1618+624411710+634572434+638493818+637036000+634628133+632994167+631565855
1608+629758464+628109415+627799574+629616457+633625106+639441882+646414286
1598+653733910+660717720+666869352+671723864+675106136+677493255+679652132
1588+681921671+684032722+685623717+686901929+688803059+692546971+698992772
1578+707729672+715633879+718651863+718690859+721682207+730078878+741353953
1568+751202187+759314991+768526841+780532407+796482387+819106043+848419192
1558+870951242+876273862+875348976+876222578+878423468+879827352+879820510
1548+879559010+880858486+884460907+889856149+895904257+898368412+890769042
1538+877307866+868205942+864880031+862225600+856314938+850017914+848128409
1528+850967522+855437143+859457270+863569003+867155457+867429464+864733609
1518+862358116+860739087+858368671+856008556+856420156+861489297+870923650
1508+880876072+882339114+871732502+859665130+853764548+853897726+857542822
1498+861197704+861114854+857072948+853526447+854260470+858736933+862445233
1488+861131336+855756401+850427086+847717250+847481577+848331707+849765465
1478+852461467+856800117+862057620+866189734+866132564+861522187+856677020
1468+855285350+856951027+858387434+857296627+855711445+857299791+863112814
1458+869597833+869678475+862345460+854422932+849875097+848604022+849031810
1448+848840799+846458611+842714036+839485323+837664467+837534012+839417998
1438+842442971+843523403+840688778+836552470+834188014+833613069+833123843
1428+831924655+830930237+831085930+832372676+834607707+837624367+839657644
1418+837763357+832287178+826730283+823060317+820974651+819666861+818914223
1408+818832697+818955648+818169384+816438736+815692279+817420646+820599473
1398+823091073+824098735+823692065+821718533+819096478+817650285+817616366
1388+816996317+814051986+810223310+808879098+811636466+817251562+823385683
1378+828982973+834529125+840035325+844032275+845676320+846414758+847876328
1368+849991499+852248309+854970579+858072001+860092108+860003225+858760405
1358+857845525+857663639+857721987+857511257+857098921+856950880+857236881
1348+857734127+858487280+859997707+862624251+866070757+869280119+870962868
1338+871031664+871201999+873142788+876706432+880645623+884197936+887233652
1328+889619814+891409693+893245411+896033461+900382854+906053722+911608263
1318+915443192+917764752+920411457+924303778+928407123+931513916+933726505
1308+935548170+936805338+937263293+937393013+937793649+938463438+939152062
1298+939797569+940317257+940557418+940555652+940418060+939994319+938950677
1288+937054624+934390922+931438645+928784214+926677137+924961499+923355199
1278+921735508+920366132+919826946+920485256+922006646+923393019+923601541
1268+922477183+921171894+921221192+922978770+925227707+926549993+926896475
1258+927424771+928741023+929811448+929062489+926218373+922496755+919145018
1248+916288466+913132007+908930140+903765126+898687818+895045739+893246515
1238+892285649+890943571+889095932+887260067+885553111+883926430+882827456
1228+882753142+883468990+884267615+884723362+884793630+884366726+883337284
1218+882346251+882722533+885119732+888694045+892144598+895121893+898028699
1208+900956180+903530115+905452289+906821738+908180813+910281195+913446483
1198+917121232+920452514+923169413+925435567+927406377+929362765+931727809
1188+934483558+936895546+938133510+937902252+936916958+936873620+938953767
1178+942367531+945434518+947816486+950312796+952827721+954267217+954522536
1168+954997046+956818931+959652600+962657413+965707182+968920370+971596507
1158+972684002+972295506+971719236+971622774+971369589+970830330+971474660
1148+974381687+978670671+983012779+987220386+991379136+994527648+995221717
1138+993537056+991855853+992435801+994663548+996308992+997114165+998791395
1128+1001701585+1004234316+1005489571+1006333594+1007832248+1010058082
1120+1012241166+1013595458+1014260979+1015401378+1017769071+1020332117
1111+1021154360+1019817286+1018259474+1018793289+1021665807+1025038808
1103+1027376923+1029203003+1031666938+1034105488+1034929056+1034539824
1094+1034750922+1035806704+1036323228+1035550282+1034421656+1034965183
1085+1038524928+1043826283+1047986799+1050026184+1051386363+1053134817
1077+1055101432+1056994101+1058426386+1058741157+1058153703+1057990137
1068+1058894054+1059854405+1059435815+1057860565+1057257660+1059042168
1060+1061436791+1061051753+1057899709+1056064947+1058307630+1062724200
1051+1065884412+1067787014+1070678368+1073741823+1073346852+1068782094
1043+1063589855+1060662448+1060159168+1062060740+1066171075+1069866057
1034+1069991951+1066749110+1063354035+1062412594+1063824425+1065246925
1025+1064662120+1062857672+1062427530+1064299523+1066511156+1067184991
1017+1067547588+1069586458+1071891315+1070718468+1065519755+1060327075
1008+1058964174+1061281393+1064525484+1066896342+1068302875+1068226647
1000+1065062462+1058385256+1050727538+1045733521+1044975070+1046584092
991+1046981344+1044712688+1042008592+1041648350+1043236696+1043500256
983+1039919615+1033398027+1027196434+1023870744+1023538830+1024584091
974+1025475646+1025610516+1024571656+1021689720+1016976480+1011508027
965+1006051199+1000218751+993906863+988592337+985785745+984774625+983503035
955+981075081+977834668+973870093+969450432+966152996+965310887+966083023
945+966362328+964854845+961735396+958168588+955744901+955361114+956181959
935+956525352+955896988+955271421+955461475+956091605+956199618+955494880
925+954751513+954732824+954962905+954294220+952765179+951863249+952486756
915+953572265+953432907+951787904+949690466+948076955+947275829+947489355
905+948700021+950089631+950572970+950139591+949729904+949808339+950243558
895+951032323+951610138+950444060+947217628+944193905+943223842+943105380
885+941629315+938787479+936510361+935973603+936285136+936046005+935513735
875+936112814+938090908+940037804+940653586+939905215+938535398+936997453
865+935039740+932513190+930445109+930064265+931021600+931965101+932417023
855+933027138+934261056+935698198+936256293+935029807+932680876+931500598
845+932857760+934895084+934468327+931692271+930272346+932699345+937261601
835+940601786+941626004+941425796+940617311+938849285+936656047+935839837
825+937440765+940253685+941852626+941157159+939718840+940015878+943012155
815+947506278+951215240+952565927+952141083+952598449+956293063+962430348
805+967414653+968522235+966018274+961499723+956367819+952281618+950712182
795+951433034+952754436+953353441+953095768+952400595+951620733+951192431
785+951456137+951727790+950649345+948401144+947323876+949146424+952802262
776+955982561+957658760+957909664+956834309+955023681+953926547+954552335
766+956372308+957679877+956837841+954076574+951351655+949943651+949441843
756+949200063+949597021+951179334+953627670+956277465+958743092+960506924
746+960630904+958390796+954263759+950189845+948353023+949485990+952510375
736+955612827+957322505+957059829+955428586+953931035+954060828+956521894
726+960814631+965371589+968140140+967062578+961614506+954892932+952030788
716+954977915+960098635+962113591+960162133+957628004+956516817+955266638
706+952220327+948349491+945338498+943467829+942544783+942692750+943141139
696+942231631+939459842+935599528+930636267+924174058+918053917+915427888
686+916981800+919484731+918648434+913006997+904947685+899195585+899110308
676+902828688+904845190+902304586+896417690+889186287+884890166+889480455
666+899729694+906962421+907868765+904245890+899053578+894150873+889832677
656+885133270+880091648+877054902+877553030+880610599+884850065+889028755
646+891093892+889864390+887649078+887566081+888819055+888110712+884958668
636+881836791+879743546+877376294+874363167+871908209+870321481+868130156
626+863818141+858033814+853398861+851424962+850669675+848864492+845967030
616+843849946+844151252+847567076+853033395+858309219+862539635+866263166
606+869284019+870825422+870617268+868053413+861952770
##END=
