##TITLE=<SNM>
##JCAMP-DX=4.24
##DATA TYPE=INFRARED SPECTRUM
##DATE=3/5/2025
##SAMPLING PROCEDURE=Instrument type and / or accessory
##ORIGIN=Admin
##XUNITS=1/CM
##YUNITS=ABSORBANCE
##RESOLUTION=4
##FIRSTX=4497.3318
##LASTX=599.83466
##DELTAX=-1.4281778
##MAXY=1.7661729
##MINY=0.19577676
##XFACTOR=1
##YFACTOR=1.6448767e-09
##NPOINTS=2730
##FIRSTY=0.21832617
##XYDATA=(X++(Y..Y))
4497+132731024+133371976+134011488+133966699+133393655+133044271+133197144
4487+133407814+133326599+133240048+133550686+134090375+134296914+133915868
4477+133213015+132584619+132317420+132623836+133378526+133936016+133863026
4467+133635334+133894652+134397905+134494059+134192326+133942321+133812794
4457+133591615+133289918+133008986+132618582+132023922+131523197+131466559
4447+131685500+131684667+131335781+130963994+130798855+130777267+130889655
4437+131270936+131802454+131966813+131384420+130364642+129634865+129548785
4427+129824717+130025151+129992058+129826421+129702338+129664253+129419086
4417+128623730+127632334+127455155+128536988+129979466+130406241+129419212
4407+127851710+126690945+126118761+125748586+125578429+126088947+127230353
4397+128122252+128188266+127848675+127712806+127871124+128221649+128716550
4387+129117009+129032741+128206683+126596032+124530848+122922517+122695150
4377+123725872+124790827+124827925+123939794+122948018+122408945+122378398
4367+122736206+123300192+123778107+123938933+123777101+123467315+123263140
4357+123313092+123441641+123324824+122947393+122566918+122265177+121930278
4347+121616470+121571446+121937299+122582364+123150635+123296378+123018725
4337+122649067+122354980+121849951+120845211+119655104+119022151+119363635
4327+120431771+121602927+122237845+121965274+121056634+120383848+120551868
4317+121270239+121944420+122439918+122818536+122867047+122497181+122183817
4307+122405294+122951171+123213297+122964433+122570243+122511368+122844871
4297+123145543+123019304+122636547+122572173+123097756+123843831+124255722
4287+124155012+123697082+123004556+122151222+121404278+121132540+121437298
4277+122066772+122673082+123023888+123096923+123164939+123605911+124404899
4267+125070501+125288092+125331857+125511962+125658910+125570574+125462454
4257+125549512+125671856+125653846+125602580+125700374+126008991+126419280
4247+126623744+126409242+126081818+126160297+126659564+127150714+127405693
4237+127517084+127508160+127258101+126814838+126512851+126706200+127421827
4227+128288080+128804070+128679760+127979163+127054334+126351282+126127820
4217+126250046+126415873+126587290+126942019+127443560+127827522+127994545
4207+128105937+128352064+128806326+129358715+129758495+129913588+130024426
4197+130238330+130368410+130168647+129743982+129513627+129750034+130184084
4187+130263044+129861624+129380521+129089369+128892958+128796433+129021534
4177+129598167+130263334+130753333+130968624+131004760+131117945+131402928
4167+131633519+131691796+131777559+131938929+131946222+131801493+131747519
4157+131725542+131434435+130878829+130391511+130233176+130411269+130701769
4147+130778327+130501933+130059349+129735576+129649496+129753685+130003182
4137+130438039+131022852+131474069+131500277+131278056+131391151+132099312
4127+132910476+133147473+132753608+132230235+131975927+132045873+132346491
4117+132689714+132816298+132635532+132341191+132170698+132155352+132171269
4107+132202659+132466017+133112323+133873635+134273414+134148462+133712654
4097+133219085+132821815+132641909+132731966+132976509+133137625+133088171
4087+132984136+133053076+133212834+133141557+132769245+132467992+132653849
4077+133294638+133859974+133810882+133159748+132423530+132013441+131869011
4067+131747419+131623835+131646627+131845149+132067361+132159818+132059833
4057+131791383+131531277+131539693+131851400+132203329+132395519+132490033
4047+132570134+132577861+132475819+132352053+132275105+132161639+131872716
4037+131464312+131230451+131345157+131620021+131832657+132067696+132475611
4027+132975231+133411700+133736543+133925353+133977027+133987381+133981312
4017+133835958+133535530+133209292+132860832+132424753+132076728+132090697
4007+132428159+132813353+133145987+133576395+134189318+134729578+134758151
3997+134207971+133611481+133499311+133760522+133926975+133869748+133874006
3987+134156253+134560988+134730520+134508626+134148534+134070916+134470568
3977+135218119+136033197+136652488+136894005+136688299+136119666+135418027
3967+134886673+134831412+135421316+136446466+137326099+137612331+137407884
3957+137093759+136865885+136774560+137021530+137838864+138988767+139724387
3947+139587938+139008561+138707345+138811453+138897378+138721341+138527802
3937+138686880+139349620+140364034+141309237+141662036+141213473+140400534
3927+139953493+140147286+140535424+140574850+140413823+140702103+141684639
3917+142719564+142840884+141898833+140781271+140382886+140742897+141411171
3907+142403998+144137980+146354741+147896787+148107421+147502715+146646491
3897+145640184+144792611+144733491+145597977+146495176+146561435+146414658
3887+147013277+147868324+147860442+147400220+147634426+148196790+147988393
3878+147289481+147201988+148150778+149947622+152198174+153984617+154288062
3868+153529251+152985485+152882755+152470908+151430167+150382107+150174734
3858+151509516+154887505+159683140+162601069+160801707+156721799+153529196
3848+152177465+152451286+153600419+154781459+155806011+157122901+158736696
3838+159852908+160126367+160117598+160157005+160017639+159589631+159098246
3828+158711221+158688809+159740919+162205493+164663871+164887142+163429419
3818+162774081+163259940+163235299+162234120+161525442+162112401+163920043
3808+165991070+167410601+168574591+170319797+172022426+172459837+172451394
3798+173482432+175143588+176320025+177322745+179280460+182413435+186062039
3788+189759434+193574345+197694186+202384101+208246087+215776711+224611560
3778+233925801+243581372+253987366+265208718+276625386+286765494+293849502
3768+297507491+299066949+300166601+302058293+305359116+309943691+315259012
3758+320902818+327258454+335559086+346979105+361139114+375366741+387318277
3748+398009942+409463842+421589966+432054971+440218013+448339601+458295519
3738+470482629+484086154+497236939+508225634+516963968+524427862+531709741
3728+539712654+548110871+554664141+557180081+555851468+552923845+550820676
3718+550305139+550431496+550048258+548219653+544105574+538674694+534754081
3708+533333718+533336580+533922815+534549562+534606236+534608990+535960287
3698+539107214+543520571+548484724+553384158+557954746+561923408+564240409
3688+564292879+563378921+563128672+564156666+566317306+568823534+570406999
3678+570128521+568325753+567103531+568285422+570467043+570226360+566403259
3668+562538668+561935547+563776146+564697895+562314002+557909885+554834344
3658+554752413+556452487+558072877+559570424+561678413+563459946+562720829
3648+559974715+558175499+558245834+559200340+560239713+560941325+560785001
3638+559860353+559304629+560128395+562397165+565613955+568818207+570456969
3628+570086668+569551925+570547814+573392890+577570384+581918479+585134291
3618+587162812+589239710+592031591+595179677+598416252+601680947+604119812
3608+604599728+603734907+603655984+605619425+609123172+612929531+616355117
3598+619532047+622825151+626182540+628870711+630264514+630643838+630422070
3588+629403606+627804415+626890819+627554745+629404983+631282108+631833628
3578+630361193+627818475+626030419+625886994+627315149+630037673+633107126
3568+634538614+633012548+629681033+626990687+626442283+627798689+629446148
3558+629947589+629220756+627843695+626240083+624726193+623619166+623095693
3548+622895885+622042732+619548281+615873171+612650003+610927897+610660761
3538+611296423+612099062+612596227+612911775+613051866+612447005+610968409
3528+609510613+608849296+608907347+609406252+610027419+609863775+608115289
3518+605428494+603442478+602702818+602072556+600944911+600480467+601227519
3508+601392396+599524366+597029371+595961081+596055188+595607304+593999126
3498+591906104+589956904+588399348+587464373+587209521+587321420+587458974
3488+587600731+587792096+587776949+587272754+586346476+585074029+583223936
3478+580759236+578313124+576719622+576217239+576249815+575971156+575170763
3468+574643268+575004365+575303715+574116461+572096455+571540297+573100062
3458+574783576+574554706+572580684+570582384+569861458+570092973+569850695
3448+568415040+566658908+565819452+566146270+567040805+567774233+567932007
3438+567483652+566694311+565963348+565166579+563286047+559828682+556412373
3428+555265777+556387986+557522625+556687227+553941874+550997873+549521125
3418+549606716+550072718+550303544+550751247+551337337+550912862+549014357
3408+546892961+545913270+545834926+545547607+544966409+545001015+545704221
3398+545747451+544165255+541696133+539864702+539451569+540208080+541476721
3388+542736484+543650370+544012953+543950083+543820138+543706138+543511294
3378+543481001+543700920+543373450+541766251+539510635+537703192+536389618
3368+535158807+534307828+534221948+534552534+534939866+535576433+536548986
3358+537425802+537705584+537201208+536122301+535015528+534415668+534533654
3348+535177505+535854187+536242642+536485645+536576272+536000184+534707336
3338+533554978+532931021+532086275+530554665+529030266+528375906+528728705
3328+529642772+530357031+530130588+528800925+526730332+524335314+522068102
3318+520550335+520241962+521106348+522787543+524803853+526463994+527034067
3308+526222912+524394923+522430287+521365947+521583511+522283819+522453116
3298+522179892+522206055+522635784+522999672+523115846+523201763+523577137
3288+524503669+525804887+526866980+527405963+527621860+527474558+526729064
3278+525832173+525743974+526593684+527357732+527137051+526016799+524552480
3268+523269634+522719853+523006085+523209082+522395753+521086092+520442024
3258+520393358+519890612+518632806+517316984+516465824+515960832+515512260
3248+515104925+515104236+515836468+516859136+517074997+515939742+514134075
3238+512765892+512324422+512570794+512972223+513060640+512690085+512089464
3228+511559650+511060528+510124465+508327314+505968569+504010092+503035148
3218+502636474+502242003+501932071+501864164+501723095+501463497+501643013
3208+502273710+502290813+500860521+498407234+495810089+493492798+491719816
3198+490828108+490667652+490532345+490082649+489695498+489574323+489287330
3188+488561838+487814423+487512790+487519929+487249531+486187982+484338940
3178+482300344+480727751+479740051+479030504+478317187+477504510+476680636
3168+476041460+475579335+474827608+473209031+470721102+468098663+466200448
3158+465379872+465387735+465488980+464746312+462794032+460475654+459222993
3148+459597607+460674774+460967638+459879998+458150681+456864900+456273302
3138+455811142+455060574+454238620+453743557+453575093+453263640+452323121
3128+450847496+449511563+448793754+448469473+448117362+447729052+447423433
3118+446918911+445752493+443908742+441995307+440839398+440863821+441627289
3108+442091008+441616056+440531206+439543325+438904874+438433871+438033602
3098+437693921+437095474+435789763+433890062+432168645+431333067+431453952
3088+432105702+432803981+433216062+433120217+432427120+431316905+430144291
3078+429169528+428586735+428590468+428958196+428889709+427920019+426660872
3068+426028689+426141167+426406129+426213459+425244603+423630265+422018572
3058+421026053+420553492+420031179+419202848+418233448+417282383+416435245
3048+415779944+415226757+414578992+413881366+413333579+412918996+412440130
3038+411736344+410706538+409423293+408252599+407539500+407222902+407011171
3028+406746101+406385040+405867075+405136112+404179177+403044864+401863227
3018+400785407+399940444+399441792+399236331+398965934+398263163+397198533
3008+396186700+395473819+394959839+394516377+394245798+394277505+394384838
2998+394020045+392858047+391216278+389808416+389133764+389118001+389206998
2988+388800279+387744093+386430880+385355778+384654311+384148703+383705747
2978+383390852+383302833+383341969+383178107+382511355+381374614+380098291
2968+379000396+378218158+377754584+377524699+377400227+377270391+376980281
2958+376307224+375254625+374248227+373680690+373364635+372805216+371908035
2948+371025965+370379360+369828782+369209934+368559199+367965789+367456883
2938+367063100+366778209+366442477+365870085+365112850+364419500+363901498
2928+363409805+362831143+362319520+362045209+361813223+361190751+360087421
2918+358973473+358401624+358406480+358429563+357933231+357052683+356400824
2908+356259030+356295339+356077630+355476901+354552833+353455880+352473906
2898+351842738+351495302+351219216+350988969+350903776+350863083+350593664
2888+349999602+349227728+348407187+347575377+346806003+346147223+345544790
2878+345031608+344794875+344878183+344997981+344798064+344215018+343527574
2868+343014284+342592635+341969693+341138463+340409855+339933525+339532278
2858+339062834+338667131+338563929+338664920+338506095+337753897+336735179
2848+336105859+336036756+336143074+336099156+335844195+335324708+334537687
2838+333761500+333349345+333298614+333256218+332944293+332408898+331803495
2828+331095034+330175350+329188412+328477741+328165019+327989055+327613536
2818+326955045+326183279+325519788+325054620+324708887+324370546+323999882
2808+323567689+323011567+322297526+321453359+320609265+320037634+319906204
2798+319941317+319671862+319016090+318230228+317376531+316348428+315322861
2788+314672850+314432203+314214313+313705226+312986184+312269896+311531214
2778+310645955+309774213+309252769+309097495+308918885+308389651+307585960
2768+306810680+306249412+305888351+305642957+305383105+304870032+303914963
2758+302659313+301514510+300770791+300354379+299975598+299464790+298899210
2748+298363090+297741869+296938740+296120936+295515151+295119339+294786434
2738+294413506+293934405+293311208+292598526+291887529+291189106+290460045
2728+289734064+289161363+288881056+288852229+288824472+288514233+287855616
2718+287077527+286480149+286117294+285750617+285120572+284223319+283346503
2708+282828411+282710153+282662937+282341610+281721838+281002325+280325137
2698+279718428+279217023+278909937+278829274+278818494+278598973+278021688
2688+277227637+276553420+276244648+276176487+275946113+275388451+274799499
2678+274434615+274071742+273359730+272373299+271565442+271289536+271486319
2668+271757368+271717381+271299212+270725841+270244746+269912349+269583393
2658+269113514+268558950+268083653+267731199+267445781+267243310+267196383
2648+267279800+267288116+266907578+266003168+264904404+264198081+264126532
2638+264341596+264310270+263853073+263240893+262832924+262694555+262624274
2628+262471917+262240185+261890049+261310029+260560023+259932768+259657280
2618+259666321+259735877+259741530+259688462+259589518+259440477+259277412
2608+259165623+259141888+259193815+259246158+259172363+258894700+258491822
2598+258156290+258019424+258021870+257966882+257721959+257368435+257125813
2588+257130615+257306996+257446489+257395141+257157810+256842625+256548311
2578+256306052+256072689+255767976+255370080+254988600+254807816+254921182
2568+255199189+255377672+255368105+255412169+255794990+256478574+257164731
2558+257632799+257859893+257880602+257695434+257327143+256847643+256289981
2548+255628193+254915130+254316032+253904095+253566968+253220981+252953628
2538+252839664+252764510+252566676+252279484+252098065+252118032+252242758
2528+252366995+252479527+252531708+252399408+252054600+251641539+251334652
2518+251176008+251047640+250802482+250456622+250218929+250289753+250645524
2508+251019756+251116599+250881967+250530762+250290115+250204724+250187838
2498+250141473+250017526+249845258+249698898+249604357+249487186+249236357
2488+248857522+248536665+248429731+248395941+248111357+247480207+246771638
2478+246319478+246216150+246304440+246357853+246242802+245956388+245552532
2468+245083214+244628119+244301827+244158621+244126352+244059097+243817725
2458+243362123+242850101+242527396+242418922+242279230+241936252+241508715
2448+241211068+241099441+241065415+240982651+240810400+240578813+240323907
2438+240077462+239888470+239799926+239792153+239750355+239532265+239143320
2428+238795449+238691595+238817137+239006744+239116686+239113479+239083856
2418+239130365+239227189+239277069+239297561+239404114+239601912+239727507
2408+239648059+239452708+239364979+239484831+239708338+239880969+239937299
2398+239932407+240006456+240257268+240615266+240914001+241083406+241202498
2388+241342498+241379622+241018615+240047675+238476423+236338376+233524645
2378+230014103+226158535+222486341+219222045+216207382+213293221+210563558
2368+208174302+206240032+204810192+203742700+202879618+202539882+203450832
2358+206043774+210158271+215647129+222987094+232403848+242251618+249559768
2348+252402271+251341827+248964547+247537570+246967351+245964813+244115626
2338+241852273+239474794+236873825+234017643+231399082+229728215+229163685
2328+229086737+228689566+227669671+226445202+225810175+226288406+227707502
2318+229350249+230548193+231192008+231670077+232370311+233362921+234496309
2308+235586903+236499158+237179770+237665485+238047056+238416288+238816629
2298+239225486+239596857+239929381+240275422+240646176+240932608+241033237
2288+241041897+241135750+241309704+241417471+241397903+241266002+240994917
2278+240583686+240139245+239773220+239492405+239239818+238979730+238712667
2268+238456637+238267791+238237733+238371011+238484848+238353979+237969328
2258+237554456+237301108+237177107+237060117+236958945+236942693+236947422
2248+236880656+236827877+236932728+237164841+237364414+237421667+237357311
2238+237314860+237450765+237775644+238154878+238459718+238668132+238863664
2228+239170371+239652262+240265022+240905938+241516016+242152348+242910833
2218+243764276+244610835+245489371+246555034+247840344+249211625+250536180
2208+251796922+253100187+254587842+256270232+257975578+259540635+261015480
2198+262587621+264319927+266087545+267780861+269408244+270975927+272421584
2188+273672089+274703635+275597228+276469550+277281031+277899553+278378002
2178+278888321+279418933+279793329+279871038+279587016+278975362+278202762
2168+277439421+276711411+275936475+275051578+274061215+272952395+271660653
2158+270205810+268713988+267260613+265892121+264709125+263744671+262982508
2148+262514495+262445519+262992981+264905310+269067276+275440614+283071269
2138+291115365+299239326+307349626+315551151+324055107+332888634+341959148
2128+351240414+360685288+370175638+379530935+388448241+396666472+404139824
2118+410794810+416330449+420473627+423344938+425639182+428527054+433238203
2108+440542294+450413382+462106226+474579315+486658876+496961034+504397280
2098+508726858+510176066+509114952+506163702+501742011+495820090+488390838
2088+479320867+468057789+454309572+438341830+420618537+402039989+383869029
2078+366901522+351469429+337950372+326488028+316797688+308604026+301709172
2068+295876393+291071899+287284256+284130336+281275929+278795828+276731214
2058+274992186+273667831+272803590+272299866+272312186+273139974+274872787
2048+277660809+281862617+287749769+295629858+306052829+319421649+335757372
2038+354878853+376210617+398544141+420374556+440174167+456538771+468794550
2028+477246941+482623393+485641861+486832376+486477911+484832953+482032846
2018+477828103+472064681+465161076+457584232+449291173+439906524+429141299
2008+417111564+404333653+391352129+378550773+366265933+354737566+344010354
1998+334130388+325306681+317670228+310965272+304705300+298707047+293253194
1988+288615659+284749673+281515833+278820722+276493485+274346506+272341882
1978+270525670+268923490+267554002+266391787+265373866+264529537+263934315
1968+263494114+262978921+262319253+261690875+261260276+260998920+260808261
1958+260685474+260644545+260602999+260485194+260327674+260195393+260101975
1948+260078747+260244620+260685909+261198891+261309811+260793622+259995331
1938+259396721+259144352+259106448+259122719+259138065+259212803+259402610
1928+259672681+260004245+260430948+260915105+261418593+262041898+262774311
1918+263274430+263282329+263052463+263014596+263302169+263769729+264198317
1908+264467246+264667797+264985538+265438313+265863803+266157753+266378416
1898+266626419+266926965+267243092+267584441+268034625+268560943+268892000
1888+268802151+268420381+268043630+267843387+267854983+268021127+268208235
1878+268331004+268439587+268643127+269070284+269865422+270973481+271885936
1868+271951143+271180356+270287632+269859969+269934598+270232281+270521648
1858+270758689+270997253+271253246+271483148+271685874+271955129+272439938
1848+273324092+274687510+276147172+276876632+276566610+275895654+275573348
1838+275703129+276023044+276393870+277042051+278243220+279751077+280841960
1828+281230017+281355468+281512409+281537303+281383769+281307401+281454104
1818+281731857+282096651+282716984+283736807+284948304+285865197+286236350
1808+286338917+286627777+287342959+288498851+289936354+291300352+292249858
1798+292863524+293645128+295014036+296772432+298017701+298074756+297533019
1788+297437681+298130632+299359359+300872923+302565496+304196141+305437278
1778+306325835+307393327+309198704+311689205+313931885+314998472+315083265
1768+314862367+314794242+315389065+316957673+318975686+320535415+321608669
1758+322788966+324155627+325578310+327455653+330152775+333102683+335222920
1748+336314437+337105734+338191490+339748828+341707558+343694335+345260949
1738+346690227+348874856+351834584+353826870+353484978+352102952+351140908
1728+350800720+351004405+351745805+352872472+354411691+356835880+360378074
1718+364055540+365961038+365626032+364580390+364180882+364842634+366493607
1708+368861520+371426959+373694025+375971818+379096350+382928872+385895703
1698+387240948+387738259+387661655+387265698+387544212+389025779+391432466
1688+394637986+399059171+404339234+408064169+408708817+408281299+408792306
1678+410677585+413573464+416686292+419398344+422033502+425061572+427870846
1668+429565919+430824197+433042308+436468546+440021974+442688114+444872380
1658+447781160+452419220+459303982+467283015+472379033+473845272+475603396
1648+479267454+483436541+486234256+488063912+490340074+493575127+497834733
1638+503250429+509426658+514637364+517650940+519981566+523651458+529186771
1628+535832952+542783628+550165302+558301457+566651480+574631382+582860593
1618+592157187+601457295+608139423+611655454+613531203+614849488+616046019
1608+617322052+618702665+620324757+622653100+626238416+631382483+637943037
1598+645365513+652991494+660307144+667011267+673113791+678794594+684071432
1588+688993731+693875663+698724620+702928422+706107743+708789320+711854207
1578+715761883+720382042+725419139+731218871+738563945+747696351+757770835
1568+767469111+776763422+786696221+797697345+809618661+823046764+838496577
1558+852476635+861198698+866828045+871054531+873254379+873411356+872614369
1548+871537709+870001642+867703738+864922800+862100046+858510164+853508289
1538+849279847+847395619+846342006+844081208+840627140+837761700+836022998
1528+834235956+831700413+829520568+828899546+829073264+828502538+827430299
1518+826892911+826545257+825761389+825209071+826119551+828911939+832792003
1508+835672156+834794362+830658033+827322531+826441114+827179180+828289830
1498+828775834+828225329+827048583+826027510+825549332+825540636+825843138
1488+826314286+826606352+826482568+826222897+826213186+826435098+826704263
1478+827174541+828211704+829811619+831255573+831686353+831263618+830750073
1468+830268707+829578256+828749236+828126765+828169017+829340689+831402694
1458+832603645+830906543+827531761+825247844+824558625+824685163+824870404
1448+824417665+822788687+820275828+817961618+816636737+816140731+815786773
1438+815006455+813543078+811796477+810774824+811060151+812253710+813226878
1428+813027360+811732991+810182646+809189403+808978216+809034383+808471267
1418+806943897+805120474+803578247+802164224+800632795+799036213+797594144
1408+796635252+796389351+796509077+796271945+795506629+794734066+794507877
1398+794963661+795668099+795960600+795716004+795494164+795674404+795946975
1388+795687957+794679711+793763071+794444753+797541818+802477815+807990118
1378+813274203+818087576+822177739+825447145+828383972+831305145+833561594
1368+834485046+834661156+835295223+836763093+838582312+840270790+841561391
1358+842066601+841334623+839436118+837338529+836194904+836193962+836644962
1348+837129010+837899181+839196667+840877970+842740383+844688967+846437090
1338+847438596+847681743+848293344+850521021+854219468+858017855+860985410
1328+863444857+866140566+869423452+873304603+877684296+882377581+887223856
1318+892221093+897278120+902016555+906258622+910291460+914076149+916921370
1308+918652172+920298254+922912503+926315477+929426746+931392796+932128905
1298+932036937+931548831+930907154+930072336+928876965+927479612+926261122
1288+925159676+923951332+922791473+921537326+919549679+916891294+914366332
1278+912000448+909145008+906216081+904674433+905227910+907144968+909279373
1268+911097940+912582696+913677982+914385030+915123168+916449280+918490920
1258+920856731+922905545+924202234+925036544+926098999+927285891+927436708
1248+925721270+922782341+920075471+918266398+916536973+913727626+909947503
1238+906349069+903578278+901313494+899145172+897151727+895637257+894629229
1228+893715415+892384592+890377667+888158542+887054414+888007580+890247433
1218+891995267+892602591+892969812+893902686+895322796+896833353+898125693
1208+899145027+900363082+902462917+905473087+908572326+910855083+912073211
1198+912668070+913253507+914158914+915538584+917722053+920963412+924848984
1188+928374727+930763802+932271387+934128365+937356244+941507212+944919173
1178+946371751+946062436+945024984+944361420+945031506+947597343+951705698
1168+955884786+958341623+958541577+957870041+958212839+960235780+963312987
1158+966483685+969163667+971283287+972992348+974434489+976047595+978554367
1148+982058948+985589185+987852374+988393168+988125815+988349902+989060790
1138+989259439+988893812+988977446+989971415+991551980+993616449+996293967
1128+999245940+1001595011+1002635144+1002643696+1002992147+1005138872
1120+1009133661+1013521979+1016585416+1017776004+1018063432+1018329409
1111+1018396736+1018348179+1019091391+1020455479+1020739718+1019481803
1103+1019000727+1022033943+1028557898+1035213101+1038114561+1036641401
1094+1033292782+1030367333+1028894463+1029461492+1032004355+1035194693
1085+1037156539+1036880272+1034848054+1032661541+1031848538+1032831201
1077+1035175343+1038084847+1040726346+1042315391+1042250528+1041029066
1068+1040733376+1043488223+1049311725+1055865829+1060180152+1060500265
1060+1056942852+1051333217+1046540065+1045132058+1048164549+1054924331
1051+1063310264+1070361461+1073741823+1073678409+1072037184+1069549400
1043+1066109465+1063230616+1063008921+1065007294+1066787958+1066954501
1034+1066262166+1065356687+1063672992+1061451982+1060286542+1060777475
1025+1061466694+1060907129+1059177704+1056889076+1054122779+1050800612
1017+1047690865+1046837929+1049734751+1054852945+1058749750+1060429822
1008+1062242156+1065521563+1068282643+1068007245+1064688123+1060431996
1000+1056990974+1054151696+1050493109+1045482900+1040390578+1036972458
991+1035940586+1036555882+1036776853+1034828631+1031749540+1030619612
983+1032241705+1033556656+1031880064+1028688639+1026693238+1025683398
974+1023790908+1020748923+1017667512+1015314963+1013702582+1011725371
965+1007515989+1000878976+994258343+990359436+989474394+989215520+986968202
955+982520747+977812750+974398180+972216233+970838810+970377446+970457964
945+969718593+967333504+963997640+960751208+958037961+956349845+956358832
935+957739010+959029538+959461695+959817610+960520889+960411889+958820018
925+957128061+956545088+956209320+955214410+954583386+955441685+956976665
915+957670667+957357584+956976665+957094361+957308954+956674815+954585416
905+951306951+947759538+944874674+943178369+942642068+942745488+943087633
895+943954846+945785734+948068926+949483165+949437362+948571889+947303900
885+945153043+942079967+939297291+937985165+938054160+938741712+939540873
875+940262125+940668192+940214582+938517770+936210444+934417895+933334422
865+932425682+931663193+931065508+929611480+926702555+924389939+925605530
855+930098209+934203012+935197126+934266136+934100898+935285978+936268930
845+935857501+934258164+932228193+930306135+928802608+927950469+927850529
835+928485683+929568866+930443254+930855915+931670006+933743026+936366769
825+938152796+938912821+939244240+939222498+938574661+937452633+936553822
815+936765226+938740480+942322245+946079757+948005077+947494866+946152375
805+945626728+945271392+943463841+940950764+940479472+943044004+946735711
795+949586440+951822162+954410973+957065372+958459972+957449117+954200656
785+950630922+949009264+949895175+951897389+953371564+953700664+952938537
776+951446679+949844154+948508113+947444280+946684182+946003588+944672112
766+942768606+941456626+941196665+941418868+942289922+944967875+949474251
756+954170652+957812932+960424065+962087975+962207193+960212733+956583281
746+952903823+950622442+949601731+948860477+948474413+949437290+952470071
736+957504632+963304145+967633108+968737380+966877938+963458730+959712814
726+956475369+953804953+951410805+949708557+949419244+950480685+952176918
716+953847277+954717462+953633772+950412705+946942984+945519757+946754699
706+949572380+952325198+953144288+950448145+945078904+940573252+939167201
696+939142053+937917548+935466218+933554596+933217089+933753824+933737518
686+931917139+927505412+921354911+916367603+914323283+913197703+910349511
676+906756368+904459913+901666945+894441016+883303062+876428990+881075964
666+891255824+898453271+900815821+898616046+892602156+885920283+882739801
656+883993368+886050300+884808401+880526473+876585967+874027594+869989829
646+863385429+858019956+857618963+861906253+867324269+869631739+867231358
636+862815428+859985861+859137564+857947628+854929124+851652471+851223648
626+854011325+856119785+854233528+849683377+845098150+840978490+837541961
616+835366102+833481657+831316451+831973781+839179998+851355114+861517508
606+863707064+857975241+847641231+836736495+831140124
##END=
