##TITLE=<SNM>
##JCAMP-DX=4.24
##DATA TYPE=INFRARED SPECTRUM
##DATE=2/5/2025
##SAMPLING PROCEDURE=Instrument type and / or accessory
##ORIGIN=Admin
##XUNITS=1/CM
##YUNITS=ABSORBANCE
##RESOLUTION=4
##FIRSTX=4497.3318
##LASTX=599.83466
##DELTAX=-1.4281778
##MAXY=1.8091135
##MINY=0.29273108
##XFACTOR=1
##YFACTOR=1.6848682e-09
##NPOINTS=2730
##FIRSTY=0.31118304
##XYDATA=(X++(Y..Y))
4497+184692801+184268248+184137196+184041644+183770802+183580159+183689613
4487+183851071+183851496+183909160+184286007+184948325+185649150+186102570
4477+186175498+185955280+185620353+185283251+184849890+184124655+183339280
4467+183129657+183630110+184346306+185093970+186018957+186851701+187326099
4457+187787037+188324423+188185570+186957477+185439297+184614000+184474882
4447+184354460+183900545+183273144+182686054+182243654+182085999+182306978
4437+182833839+183513103+184047676+184037258+183526227+183132134+183220186
4427+183458888+183479919+183418630+183513368+183556032+183089876+182134960
4417+181378683+181405303+182006349+182556382+182758382+182646857+182204864
4407+181385192+180444904+180002451+180500285+181585759+182308729+182060422
4397+181101314+180128479+179604695+179593163+179989644+180646585+181323548
4387+181791366+181961775+181699034+180764618+179250117+177687734+176457023
4377+175539907+174994278+175086381+175780838+176633110+177343133+178012844
4367+178799846+179583452+179973000+179572096+178377593+176984292+176188605
4357+176228138+176542847+176489411+176146524+176069333+176389631+176653044
4347+176540176+176275454+176279593+176757210+177547661+178137033+177996730
4337+177109648+176024228+175286099+174924180+174608321+174280718+174331589
4327+174969497+175789983+176289994+176438256+176430792+176252335+175756411
4317+175045291+174580675+174723436+175181243+175335962+175166172+175166455
4307+175377299+175384587+175197640+175286824+175869226+176738302+177582154
4297+178019866+177593138+176258615+174837861+174429352+175206201+176195149
4287+176388941+175718894+174814849+174204234+173939565+173807682+173741227
4277+173924583+174453302+175106280+175598313+175853802+175948540+175982749
4267+176030118+176130216+176357350+176806295+177443973+178129250+178799404
4257+179439434+179883833+179833033+179116854+177929603+176806684+176268414
4247+176430491+177014220+177650289+178045019+178071445+177910978+177923766
4237+178166413+178198252+177615956+176658828+175983315+175902905+176164053
4227+176445597+176703686+176969274+177209905+177524048+178103708+178866407
4217+179391729+179349313+178838990+178304417+178162575+178397174+178561993
4207+178385906+178250981+178696883+179554178+180032910+179679870+178859066
4197+178258887+178256924+178793054+179499309+179884276+179699805+179151223
4187+178554617+177980351+177441302+177069920+176897460+176817456+176841866
4177+177087042+177564607+178195298+178863895+179408905+179749827+179902760
4167+179782374+179341194+178913670+178900333+179175102+179324107+179310806
4157+179406357+179642902+179760900+179593746+179227618+178831473+178491275
4147+178172922+177788133+177410967+177395437+177967916+178734470+179089597
4137+179086714+179243077+179574909+179603387+179231173+178882574+178885563
4127+179238868+179753277+180048228+179764986+179105375+178750178+179012600
4117+179521667+179903626+180245593+180645488+180817400+180540756+180089070
4107+179737499+179220242+178307034+177578899+177824836+178929448+180079324
4097+180754642+180897015+180492626+179643132+178788243+178388241+178477390
4087+178738043+179014440+179536419+180393820+181054687+180909538+180126834
4077+179459351+179346978+179578252+179683037+179464163+179193427+179259598
4067+179665030+180017875+179922305+179275695+178380989+177811375+177906962
4057+178382245+178615163+178308591+177768764+177562679+177934644+178569369
4047+178982618+179079727+179156900+179380975+179544538+179428786+179142042
4037+178918552+178835523+178947490+179419535+180262556+181137061+181629767
4027+181662437+181562888+181735790+182206880+182529655+182277103+181585652
4017+181034098+180952060+181077240+181003250+180736299+180592388+180717196
4007+180965008+181158040+181325954+181730554+182583640+183641961+184295453
3997+184207931+183590754+182760663+181801130+180827199+180244142+180433318
3987+181274269+182163527+182497551+182131812+181456971+181042146+181147692
3977+181594726+182091076+182503724+182805468+182996872+183109369+183126491
3967+183034088+183082394+183673022+184796383+185858384+186178859+185518858
3957+184241592+183164132+183025208+183912839+185309960+186555600+187155090
3947+187027540+186613176+186396017+186384803+186323266+186169767+186031392
3937+185936831+186054635+186763419+188051193+189111071+189155751+188460657
3927+187886639+187777326+187903408+188151715+188788809+190068959+191686547
3917+192545504+191611177+189301202+187198797+186396442+186825806+188035008
3907+190056241+193152405+196804545+199467365+199926887+198396237+195886243
3897+193444897+192051278+192287999+193683600+194667525+194359944+194224134
3887+195863691+198314748+199335712+198965320+198744253+198484059+197388663
3878+196489270+197081755+198907621+201175428+203460304+204812392+204369107
3868+203401314+203578232+204240992+203514324+201248109+199169230+198747331
3858+200626014+205102320+211258457+214805759+212045017+206333172+201829203
3848+199698479+199780447+201563313+204338401+207462264+210491832+212684199
3838+213026660+211678889+210046443+208836250+207617974+206167964+205105999
3828+204932778+205589241+207347344+210718118+214602822+216370106+215938372
3818+215631870+215466149+213706843+210768812+208753787+208850878+210881079
3808+213502827+215366334+217191812+220453555+224187769+225851028+225608098
3798+225331489+224973090+223792172+222602409+222829455+224884773+228369194
3788+232887703+238088889+243343812+248338753+253867490+260861554+268869277
3778+276848504+285234985+295524011+308357311+322747351+336134576+345803877
3768+351548162+355031079+357133395+358303330+359334588+360229895+360163741
3758+359575537+360675391+365243162+373286668+383117923+392187947+399540446
3748+406846106+415751064+425326264+432618233+437994780+445049444+455711586
3738+469490675+484478117+498425067+509671132+517902381+524505359+531983055
3728+542367349+554765908+565013190+570356377+572422432+573453903+573591659
3718+572528986+571408013+572041003+574187257+574212091+569177669+561679986
3708+555947977+553678118+554859408+558185678+561072573+561962679+561933211
3698+562673852+564955774+568672565+572956439+576723182+579252986+580098377
3688+579589452+579132140+579751299+581206191+582313438+582269713+582110094
3678+583360934+584863336+584189910+582861454+582859898+581855561+577095554
3668+570735931+566236613+563806110+562079386+560511998+559915975+561024496
3658+562465449+561704644+559445893+559625004+564396897+571518847+575140546
3648+571946442+565435549+560126253+557535848+557073160+557308696+557131106
3638+556697143+556962856+558459173+561187122+565094874+569264165+571019544
3628+569214213+567217779+567696104+570098660+573086236+575675473+576801293
3618+576302839+575832827+576605803+577901748+579187080+581774973+585960537
3608+589012356+589007828+587896053+588410780+590983461+594427888+597941830
3598+601474027+604646728+606688231+607407505+607282697+607194680+608181400
3588+610378348+612191815+612097148+610440681+608356089+606702736+605955373
3578+606198621+607298616+609135998+611373983+613481428+615459113+617462764
3568+618191306+615532908+610070007+605139168+603100494+603576236+604480246
3558+604282845+603432679+603338011+604510104+606175697+607387270+607999565
3548+608283497+608065224+606887330+604790285+602364310+600028616+597812848
3538+596118387+595566656+595778702+595705049+595214873+594840378+594219309
3528+592549116+590447296+589486578+590050124+591092633+591555427+590865056
3518+588766667+585876730+583756903+583472865+584423147+584913217+583819342
3508+581671461+579752502+578346288+576630708+574133944+571256460+568602448
3498+566867482+566924119+568945565+571614010+573130421+572987394+571950793
3488+570531243+568325133+565135380+562091697+560709009+560875420+560763347
3478+559157646+556961689+555762073+555693585+555476833+554236004+552567404
3468+551707438+551997772+552458869+552049776+551038292+550354360+549891742
3458+548740274+547022854+546032243+546366409+547167897+547435237+547059858
3448+546397717+545599164+544483391+542810935+540764337+538927026+537555764
3438+536284759+534756285+533027509+531384061+530263087+530191273+531239654
3428+532509739+532587213+530902906+528380388+526196742+524459794+522880873
3418+521881913+521799981+521756680+520730127+519184954+518408548+518655758
3408+518870776+518028888+516446995+515497455+515848850+516741539+517250287
3398+517284779+517032864+516418976+515500073+514696745+514350799+514157148
3388+513124368+510569552+507217670+504716697+504117278+505220033+506926451
3378+508096951+508623494+509252417+509969497+509612973+507664651+505284135
3368+504003791+504376163+506023396+508166572+509988919+510976806+510929437
3358+509760352+507831557+506252636+505894591+506141518+505634468+504280682
3348+503341190+503415091+503707478+503477672+502887204+502247527+501546119
3338+500948363+500893989+501366831+501605091+500917550+499553505+498418558
3328+498032070+498082234+498106998+498205698+498578955+498707513+497777643
3318+495914932+494194328+493247371+492687751+492137081+491992144+492742337
3308+493925644+494280929+493144815+491396900+490594845+491243190+492379410
3298+492814682+492329140+491583299+491200596+491145338+491045117+491027110
3288+491680619+492964112+494009203+494500865+495218582+496569891+497634545
3278+497450482+496436947+495640835+495183488+494341529+492828337+491098394
3268+489631439+488680662+488441694+488864867+489487598+489777296+489514272
3258+488879725+488363901+488295872+488279563+487526364+485912986+484231437
3248+483317239+483312251+483685862+483756685+483218539+482242467+481253059
3238+480726976+480908988+481429446+481462417+480598206+479284148+478180509
3228+477473122+476986625+476502533+475823164+474961642+474275480+473958224
3218+473622431+472942531+472124663+471217930+469891561+468334926+467232207
3208+466574842+465796631+464980815+464573455+464300279+463667925+463021314
3198+462914159+462926434+462130818+460404731+458499179+457074322+456226773
3188+455738613+455330016+454714041+453774195+452668504+451613331+450733554
3178+450092179+449617321+449020309+447983567+446446460+444675869+443115768
3168+442112138+441683376+441603850+441673718+441724413+441432274+440464551
3158+438894509+437217631+435846687+434812988+434040755+433537278+433085025
3148+432188622+430688095+429001452+427516773+426273893+425328281+424803400
3138+424560223+424397809+424448539+424811855+425009928+424373117+422842024
3128+420965835+419278166+418051240+417431233+417354466+417462293+417492646
3118+417525369+417476019+416846425+415501731+414137155+413392976+413009743
3108+412378097+411502105+410859209+410556953+410163319+409430461+408780383
3098+408743769+409107120+408995083+407868733+406216405+405088993+405054289
3088+405705428+406203210+406163447+405819446+405456802+405005151+404205573
3078+403013953+401704281+400521222+399403787+398223982+397122218+396344255
3068+395882133+395541387+395214119+394840473+394295676+393580683+392925900
3058+392476549+392087585+391610038+391133730+390768998+390397404+389772444
3048+388759652+387478317+386257830+385359516+384757515+384307385+383968726
3038+383709771+383459482+383285147+383230385+382919001+381878757+380336981
3028+379116953+378690703+378744050+378650338+378070341+377074494+375884502
3018+374660795+373617332+373092522+373154643+373309450+372938670+371907588
3008+370555571+369328999+368571059+368341607+368318294+368099809+367617452
2998+367072124+366562491+365999687+365323643+364648908+364201750+364094524
2988+364077225+363656281+362655304+361499556+360736804+360456800+360378370
2978+360276451+360070454+359673035+359011247+358186906+357465651+357000804
2968+356621074+356047869+355257984+354412310+353554325+352683251+351938365
2958+351391869+350874701+350258656+349622870+348981531+348233107+347489211
2948+347023515+346802731+346477692+345944145+345552881+345614932+345932117
2938+345944605+345260920+344010221+342717070+341857458+341526158+341460534
2928+341281388+340740730+339861095+338843987+337833600+336892198+336133762
2918+335614790+335165013+334626761+334158554+334017720+334164780+334278091
2908+334057519+333469102+332812091+332486345+332542487+332591802+332264216
2898+331568149+330727074+329913911+329255874+328847877+328610006+328321618
2888+327916239+327566472+327355133+327083513+326592735+326012986+325463166
2878+324822534+324061975+323458170+323203920+323130691+323019821+322870921
2868+322731538+322507322+322023337+321218311+320292332+319540159+318983723
2858+318447769+318009597+317938066+318149758+318181774+317760370+317058430
2848+316399686+315972126+315818132+315887612+316027172+316032690+315776247
2838+315210754+314338937+313358974+312664181+312449481+312508206+312561589
2828+312497876+312251019+311792152+311213075+310577148+309846447+309091762
2818+308538934+308305874+308204167+307834872+306953256+305783180+304813193
2808+304287393+304090948+304011811+303882510+303614958+303280969+303026895
2798+302864977+302676421+302354884+301854767+301212614+300569400+300036171
2788+299512812+298757065+297680984+296527111+295702503+295416485+295494012
2778+295577058+295471637+295212787+294854017+294375091+293766227+293030981
2768+292164718+291260938+290490846+289877471+289297651+288731611+288258150
2758+287847695+287411380+286964434+286543560+286076467+285487874+284858368
2748+284376576+284106335+283854756+283403405+282829936+282357324+281919523
2738+281233751+280317589+279551141+279156888+278943144+278652579+278286203
2728+277965197+277709249+277496141+277350160+277210034+276859949+276174884
2718+275346757+274709450+274373834+274142843+273763254+273185751+272599334
2708+272247604+272174144+272150990+271913084+271425207+270826709+270182433
2698+269450211+268700372+268199707+268132085+268289351+268234358+267799458
2688+267222893+266762309+266413497+266085116+265824497+265714194+265645050
2678+265379639+264880035+264397819+264109837+263861140+263452525+262968982
2668+262606002+262380353+262209715+262087348+262014578+261912429+261707316
2658+261389211+260957283+260431182+259913925+259510475+259195695+258894695
2648+258637472+258465967+258284309+257997937+257709442+257577046+257557819
2638+257442898+257083668+256529213+256021738+255825629+255956310+256157230
2628+256210914+256114991+255898611+255506569+254980716+254555491+254441278
2618+254592565+254740403+254617559+254174239+253613823+253208940+253064108
2608+253060235+253020365+252895893+252762312+252686129+252678717+252743846
2598+252855087+252910628+252811662+252579734+252341686+252211059+252188648
2588+252171384+252075372+251927534+251812136+251772727+251775468+251729939
2578+251575468+251368303+251211090+251122189+251072326+251079844+251165030
2568+251281543+251360910+251385213+251409694+251503176+251632176+251684250
2558+251655153+251664599+251732238+251708713+251483807+251126735+250777181
2548+250493798+250262365+250100624+250049027+250054758+249999518+249858083
2538+249675275+249410111+249005369+248573635+248288342+248129431+247942696
2528+247701093+247513792+247420717+247342305+247200711+246990893+246773399
2518+246624994+246548493+246473424+246396445+246399947+246472310+246470152
2508+246322402+246130998+246027964+246019226+245972458+245758378+245437107
2498+245241970+245315978+245550771+245719906+245668787+245375622+244947603
2488+244565113+244360584+244333945+244368367+244305591+244063475+243722110
2478+243448561+243327998+243308365+243269680+243104437+242810335+242531657
2468+242412580+242412792+242371897+242201047+241905636+241510941+241077473
2458+240713326+240504923+240457306+240478691+240423469+240233939+240013774
2448+239871897+239761947+239574116+239299541+239023747+238826187+238726602
2438+238678897+238614494+238514114+238405083+238292427+238164647+238070900
2428+238101394+238259262+238412017+238404500+238210159+237980637+237922938
2418+238065434+238192489+238114148+237930562+237891630+238074561+238342308
2408+238553930+238683850+238757221+238770504+238712505+238627354+238594471
2398+238656858+238849022+239309005+240281220+242010438+244740757+248844389
2388+254850778+263277942+274468908+288602770+305761565+325866528+348546153
2378+373152874+398911630+424904612+449940273+472859432+493167067+510936194
2368+525900500+537157956+544065985+546860971+545972669+541444095+533385235
2358+521980684+506881346+487586185+464915298+442451328+425421710+417502056
2348+419707070+430945104+447616288+463830727+475015343+480582782+482254849
2338+482034348+481424599+481154253+481112332+480574327+478997174+476571164
2328+473632053+469938399+464901713+458268878+450446970+442164602+433794040
2318+425174393+416153648+407010854+398145340+389522545+380708929+371440301
2308+361887105+352378801+343174806+334472343+326345772+318683943+311347753
2298+304330057+297710806+291574090+285984683+280946069+276392537+272261966
2288+268533395+265177586+262127871+259345638+256905035+254924432+253363694
2278+252003098+250706923+249556658+248622172+247785165+246915064+246055275
2268+245314120+244697827+244153808+243684664+243316307+243000342+242640263
2258+242203081+241735174+241277845+240838169+240432861+240084934+239780183
2248+239479855+239165270+238857088+238614105+238481320+238403474+238262658
2238+238029563+237768767+237511315+237280272+237187303+237311951+237542800
2228+237689259+237673446+237534788+237378424+237352316+237522335+237761993
2218+237892532+237901341+237925715+238083105+238396469+238825055+239309765
2208+239812836+240314474+240763684+241102803+241369594+241701284+242194803
2198+242784581+243284521+243586954+243815167+244192121+244750414+245293178
2188+245662065+245918668+246220465+246600284+246930417+247100082+247162929
2178+247256659+247435876+247638211+247741493+247626201+247272985+246819919
2168+246444592+246188396+245964428+245729422+245541821+245406223+245206152
2158+244890523+244589522+244461106+244551652+244822352+245201287+245644678
2148+246177323+246843603+247763196+249271259+251718495+255094345+259126410
2138+263666906+268714841+274221733+280107170+286350599+292978906+300008825
2128+307390296+315061996+323069914+331464673+340106183+348722186+357033068
2118+364746335+371605650+377406998+381907589+384906662+386342167+386164684
2108+384385001+381284786+377322519+372948080+368544350+364225381+359706430
2098+354532554+348325333+340963849+332788813+324421966+316304240+308612199
2088+301439837+294842449+288884861+283663847+279145019+275152169+271576088
2078+268378853+265465727+262756865+260286174+258159554+256473248+255208752
2068+254215293+253361005+252585271+251826552+251090351+250470343+249981954
2058+249569057+249231071+248928072+248565410+248211646+248047959+248093418
2048+248235702+248428857+248715495+249156144+249732992+250322133+250891393
2038+251607643+252605329+253846494+255248621+256716195+258109762+259362919
2028+260524257+261648733+262751310+263800346+264728889+265522294+266176440
2018+266544868+266462441+265997134+265349869+264619346+263824667+262990933
2008+262122264+261203556+260246800+259290964+258385433+257563709+256800498
1998+256062510+255449400+255165381+255228669+255319162+255100005+254595077
1988+254041984+253559078+253162013+252901713+252824415+252908753+253058395
1978+253109355+252956529+252694354+252510396+252508840+252733569+253183893
1968+253692482+253984657+253991431+253945707+254078139+254374080+254703400
1958+255042819+255444059+255887184+256299284+256650325+256961903+257293627
1948+257771811+258567321+259708653+260826531+261276626+260836401+260061303
1938+259629516+259685906+259972845+260241281+260409107+260538337+260757406
1928+261197506+261999791+263167054+264348893+265178488+265840364+266688602
1918+267443748+267544093+267157376+267024466+267538893+268476563+269348380
1908+269850425+270077011+270306056+270644361+271017105+271397472+271863999
1898+272467309+273109462+273606324+273985630+274540811+275297566+275716600
1888+275378631+274634311+274092485+273944417+274029709+274128764+274093405
1878+273939517+273812569+273850174+274281590+275504005+277570432+279539785
1868+280010964+278821537+277233135+276261185+275915822+275791828+275692632
1858+275674307+275830618+276159371+276593882+277154192+277949030+279054226
1848+280616060+282790367+284985847+285668665+284280387+282331499+281362981
1838+281512676+282062691+282586758+283470072+285222957+287391427+288700338
1828+288762671+288471099+288274901+287753151+286904647+286427118+286686021
1818+287357165+288042761+288787222+289862030+291199100+292252380+292591481
1808+292464161+292513459+293233670+294795770+296932843+298860222+299823204
1798+300020923+300566640+302388209+305198832+307277304+307109938+305551959
1788+304593788+305025416+306305478+307725488+309133930+310519979+311674631
1778+312697081+314306072+317201245+321018894+323918842+324344598+323058770
1768+321614103+320781129+321110873+322890944+325237429+326723133+327380038
1758+328232646+329391826+330606016+332549032+335910784+339852604+342522252
1748+343354235+343435212+343830862+344949501+346768381+348805922+350409819
1738+351976748+354966164+359632670+363157154+362737377+360123766+357900073
1728+356628998+356279372+356852365+358051237+359872664+363146860+368392090
1718+374004810+376593552+375212243+372436890+370464725+369983817+371155980
1708+373865674+377274973+380261841+383069599+387079660+392231107+396049428
1698+397152253+396527611+394518654+391871045+390668388+391886293+394819955
1688+398869638+404583535+411626878+416203599+415483759+412603905+411185380
1678+412333558+415504985+419096366+421963061+424820487+428332590+431066587
1668+431587753+431602682+433593526+437627821+441592989+443851598+445356300
1658+448250553+454092441+463383604+473715294+478744798+478562115+479803863
1648+484251566+488726792+489921950+489340609+490111108+493328878+499022505
1638+507000671+515869899+522214098+524575263+526292152+530467740+537374460
1628+545671014+554367074+563670725+573515847+582637840+590603907+599023288
1618+609104655+619125527+626178741+630899939+635686089+640999135+645900825
1608+649694311+652477942+654819367+657205721+659724877+662400114+665563971
1598+669580188+674466807+679873247+685281314+690430568+695548619+700888693
1588+706198768+710832658+714298346+716762811+719073812+722221820+726878492
1578+733087129+739423757+743582753+746343248+751175104+759657455+769961480
1568+779163884+787486899+797083325+808334308+820526940+834323682+850233530
1558+863393142+869084504+870502392+870960304+871586963+872667571+873454697
1548+873193053+872383569+871769293+871385600+870931579+868971794+863330030
1538+855973499+850612765+847070380+843213428+838659914+835435634+834688979
1528+835214390+835271629+834813009+834895507+835229390+834786477+834195549
1518+834166328+833556367+831624106+829743211+829784106+832648254+838123678
1508+844045341+845533769+840651396+834672211+831553777+831500005+833345806
1498+834918997+834036708+831188056+829158438+829634322+832045227+834241113
1488+834241892+832146828+829475907+827558574+827125213+828251033+830186902
1478+831863816+832978882+834054184+834948218+834215430+831537716+829004975
1468+828342304+829401262+830749459+831074002+830915940+832009780+834915459
1458+837517467+836105947+830927897+825984322+823089963+821898626+821548400
1448+821243172+820844974+820766368+820880917+820555171+820103130+820874478
1438+823073266+824281796+822197628+818393882+815641666+814617164+814399104
1428+814122177+813852679+814094017+815088095+816563505+817761281+817625435
1418+815583790+812404863+809376922+807323957+806488082+806329878+805980005
1408+805310754+804795885+804498299+804186349+804100384+804589782+805449217
1398+806273913+806948683+807302448+807022903+806335397+805838075+805460113
1388+804367123+802382646+801034874+802118455+805881305+811169164+816569236
1378+821271119+825208305+828546497+831207937+833181447+834932511+836868593
1368+838847975+840715851+842721483+844795746+846044180+845836662+845032768
1358+845164227+846672183+848316975+848404850+846645085+844374129+843133548
1348+843516251+845060291+846840504+848288957+849551613+850893725+852039426
1338+852520051+852413143+852415761+853330454+855457003+858297590+861050514
1328+863509742+866164674+869312257+872470808+874980200+876932838+879022029
1318+881555549+884218758+886956470+890417914+895078335+900332515+905012960
1308+908678172+911804884+914799075+917570395+920079999+922561091+925010485
1298+926879989+927452804+926537474+924820018+923418828+922995584+923153293
1288+922587906+920197732+916419811+913088978+911659982+911875070+912244471
1278+911494208+909591167+907635204+906704733+906866403+907586172+908778783
1268+910663852+912881318+914751953+916394057+918650933+921711420+924619646
1258+926496932+927624238+928916186+930760077+932648825+933767640+933847733
1248+933292889+932488216+931511260+930698309+930597699+930818802+929917551
1238+927183872+923701627+921064950+919880759+919774701+919902480+919216814
1228+917131161+914291069+912145276+911493429+911724155+911606634+910720737
1218+909824086+909749583+910566071+912082730+914267650+916636103+918373086
1208+919707698+921861416+925097582+928022011+929250352+928905431+928222029
1198+928361837+929665317+931732575+934211969+937248046+940890546+944411492
1188+946577026+946699145+945681931+945744547+948401106+952948606+957388916
1178+960446785+962487864+964648162+967283424+969646428+971185587+972700618
1168+975276802+978145548+979075241+977254628+974429890+972770593+972956178
1158+974769079+977977934+981769440+984712194+986222627+986984069+987735536
1148+988921000+991146249+994406754+997353117+998796546+999057837+998784660
1138+998079324+997719546+999394621+1003447770+1007473326+1008429622+1006363638
1128+1004982047+1007689264+1013955211+1020267500+1023903915+1024748634
1120+1023971272+1022595694+1021398343+1020962364+1021341670+1021942504
1111+1022395464+1023695123+1027302884+1032399426+1035750991+1035739812
1103+1034715310+1035678186+1038413139+1040742677+1041770646+1041640107
1094+1040103496+1037558868+1036180178+1037800206+1041339407+1044008701
1085+1044563404+1044099548+1044744107+1048028526+1053382610+1058053291
1077+1059313116+1057099612+1053968231+1052656614+1053749251+1055816863
1068+1057973269+1060990243+1065047850+1068340902+1069361866+1068566320
1060+1066946645+1065006601+1063255184+1061973000+1060833950+1059977274
1051+1060813502+1064400532+1069331725+1072366741+1072085286+1070900599
1043+1071471646+1072560604+1070554830+1065447038+1061755860+1062024508
1034+1063835146+1064330840+1063853895+1063768850+1064145397+1064859506
1025+1066568188+1069829330+1073340654+1073741823+1069193120+1062037739
1017+1056429370+1054685453+1056325222+1059240595+1061769727+1063724347
1008+1065236902+1065557625+1063872857+1061323630+1060618083+1063028209
1000+1066752358+1068752047+1067793769+1064846558+1061291862+1058324203
991+1056908084+1056850704+1056547669+1054804035+1052556287+1051742770
983+1052216744+1050510821+1043811442+1034914196+1029706925+1030552210
974+1034651844+1037742755+1037867351+1035750708+1032806043+1029791404
965+1027067701+1024970161+1023066343+1019820200+1014391827+1008172506
957+1003560126+1001845500+1002377774+1003273930+1003060611+1001635364+999445775
947+996695822+993824953+991477656+989524027+987049303+983527154+979548507
937+976582263+975883932+977036143+978143142+978207669+978265262+979275047
927+980226603+979454476+977175455+975715328+977151682+981063256+984591277
917+984901387+981851796+977893951+975223454+973769907+972192047+969989509
907+967967816+967220383+968249696+970602088+972851322+973170276+970606545
897+966197013+962371617+960650624+960289642+959825857+959189506+959030949
887+958913640+957825461+955770231+953581844+951985447+951703497+953290413
877+955841762+956887631+954903155+951328223+948894324+948725296+949384500
867+948590653+946093076+944164423+944952752+948128637+951411712+952958794
857+952954903+953036693+954260223+955925392+956689240+956269817+955310691
847+954323122+953356355+952076647+950307542+948756851+948409950+949196651
837+949950594+949692134+948824208+948396153+948735767+949506761+950496382
827+951601754+952389588+952530173+952627105+953974735+957365284+962544678
817+968306793+972440318+972846157+969556502+964795540+961427349+961110447
807+963102636+965131192+966111756+967169653+968726712+968536882+965140672
797+961403434+961423174+965215671+968506316+967811169+964349372+962316500
787+964165273+968681147+973668022+978096304+980987479+980741825+977385591
777+973318503+970553197+969127810+968479430+968304317+967675395+965794571
767+963947142+964210201+966132699+966807752+964778276+961500224+959140050
757+959125262+961548548+965487503+969870998+973351545+974284492+972103322
747+968105784+964236380+961696847+961189336+963468711+968400895+973697597
737+975925676+973986623+970360113+968169745+968751970+971396713+973762761
727+973281216+970325727+968576857+970600673+974768867+977385025+977167885
717+975567879+973637599+971524210+969946704+970239833+972695453+975896455
707+978197905+978879609+977664428+974408098+969650178+964758961+961148441
697+959531525+959438556+959520771+958496552+955627523+951520742+948586832
687+948402804+948696358+945158926+937183660+930071510+928175969+929187877
677+928174766+924065580+919196720+914893176+910370440+905141589+902302842
667+906956825+916166304+922623778+923395055+919677345+915550471+915484387
657+920370794+925432951+924279042+916870932+909452916+906396321+906376864
647+905410379+901435341+895783388+891331404+890212094+892298879+894907609
637+894725915+891455222+888680223+889451571+892774268+895421275+895715819
627+894665068+893569318+891799576+888089931+883428873+881389138+883368167
617+885268660+883352177+880399234+881398053+886069158+889268462+889078279
607+889055355+891222798+892683775+888812884+879229406+869582463
##END=
