##TITLE=<SNM>
##JCAMP-DX=4.24
##DATA TYPE=INFRARED SPECTRUM
##DATE=3/5/2025
##SAMPLING PROCEDURE=Instrument type and / or accessory
##ORIGIN=Admin
##XUNITS=1/CM
##YUNITS=ABSORBANCE
##RESOLUTION=4
##FIRSTX=4497.3318
##LASTX=599.83466
##DELTAX=-1.4281778
##MAXY=1.7111858
##MINY=0.17716771
##XFACTOR=1
##YFACTOR=1.593666e-09
##NPOINTS=2730
##FIRSTY=0.19731133
##XYDATA=(X++(Y..Y))
4497+123809713+124701950+125251969+125318327+125124142+124675620+123859016
4487+122980300+122584644+122792986+123308128+124001636+124932677+125847214
4477+126305629+126298812+126206778+126223122+126225030+126034603+125568456
4467+124974968+124668766+124930517+125535244+125976855+125933143+125525557
4457+125324218+125819715+126596440+126505079+125080055+123212148+121984471
4447+121504719+121279032+120994346+120548919+120007549+119792419+120301867
4437+121277761+122094149+122491562+122470487+121869491+120733932+119726331
4427+119482309+119798899+119921406+119342616+118069216+116517188+115324790
4417+114918073+115170997+115680978+116220879+116713665+117021391+117037931
4407+116845083+116625960+116520844+116585146+116782847+116967440+116926028
4397+116533897+115886393+115257094+114900616+114866366+114986049+115064189
4387+115057597+114989920+114739212+114134551+113319350+112729041+112505374
4377+112252917+111711520+111330610+111698355+112669798+113499810+113657567
4367+113195076+112509862+111969343+111694484+111651660+111851325+112288776
4357+112819682+113319761+113855352+114533843+115328735+116107984+116622201
4347+116507268+115632413+114462660+113743683+113738746+114005639+113976859
4337+113502418+112781056+112067231+111531696+111227439+111169916+111490508
4327+112371712+113652854+114635022+114641502+113863338+113262874+113448767
4317+114094476+114625719+114836782+114640932+113980879+113264744+113198769
4307+113910706+114760596+115157168+115132156+115063469+115172259+115392523
4297+115572954+115684503+115816500+116008320+116213437+116439507+116747644
4287+117013602+116925355+116425537+115884289+115623203+115618855+115821166
4277+116244563+116620602+116593917+116323358+116268855+116461293+116597133
4267+116684305+117010161+117604537+118141073+118279933+117974311+117567753
4257+117540526+118073807+118976882+119962949+120822563+121481026+121989726
4247+122306241+122182817+121572621+120958413+120860731+121082219+120878543
4237+119997685+119108318+118883202+119106532+119150067+118994226+119199193
4227+120032225+121128045+121989679+122527589+123008201+123606906+124124068
4217+124149837+123539519+122687048+122204360+122321846+122764440+123134625
4207+123204079+123036261+123046032+123613750+124468390+124889806+124656620
4197+124327323+124404715+124646924+124504192+123977138+123585559+123540622
4187+123546344+123513067+123730254+124133502+124215709+123948208+124005020
4177+124775424+125833198+126604247+126964344+127032731+126939369+126933105
4167+127266300+127873187+128423898+128666424+128586526+128335753+128064961
4157+127798282+127560216+127538636+127825669+128113040+128046017+127794598
4147+127842182+128204887+128314032+127840527+127192564+126946354+127266216
4137+128075330+129185755+130083416+130251963+129835784+129437651+129349441
4127+129416136+129423607+129265064+128979583+128815514+129017629+129507843
4117+129974916+130255862+130442764+130618829+130665683+130448898+130103416
4107+129970839+130226998+130690116+131103078+131486569+131972137+132396871
4097+132412720+131981066+131462044+131222911+131316657+131464727+131374731
4087+131189054+131394535+132111810+132805514+132926460+132534871+132108538
4077+132023965+132337441+132820615+133125666+133063141+132728627+132315908
4067+131979701+131928424+132314458+132916146+133299759+133398170+133563847
4057+134031106+134650158+135095650+135142962+134873825+134683248+134904765
4047+135443021+135903156+135986775+135670709+135136857+134663921+134489025
4037+134609428+134806793+135000044+135382095+136021371+136613054+136857320
4027+136771073+136484180+136124139+135962090+136240307+136854823+137517989
4017+138100444+138546712+138675343+138341053+137659729+136938199+136507639
4007+136618066+137269450+138142538+138894129+139472461+139934690+140110128
3997+139811837+139248560+138834802+138691229+138652706+138647676+138854999
3987+139533116+140681194+141823691+142320460+142003935+141345707+140977223
3977+141186977+141776799+142254587+142237607+141742447+141098346+140667674
3967+140679838+141195186+142076643+142977455+143557244+143828046+144050432
3957+144220176+144037753+143513457+143216363+143690878+144765454+145631829
3947+145810138+145790091+146187299+146667724+146431546+145447573+144349556
3937+143612701+143589811+144600254+146343887+147790248+148259200+148167306
3927+148248111+148605776+148864366+148957588+149372262+150415955+151483303
3917+151365780+149557958+147007175+145074555+144207273+144123906+144986887
3907+147689826+152648175+158534835+162795291+163900545+162142363+158399705
3897+153954161+150812227+150599341+153016706+155518783+155936374+155597120
3887+156740944+158670076+159249623+159040028+159686915+159767159+157378846
3878+154613287+154512735+156951521+160074539+162982034+164961723+164885200
3868+163753485+163749165+164518802+163793466+161226937+159004647+159007433
3858+162023634+168532056+177347108+182108251+177143815+167775884+160625118
3848+157577426+158248848+161407659+165577848+169929188+174304465+177732394
3838+178176437+175448691+172071422+169839183+168439844+167248960+166609703
3828+166859784+167849339+170256203+175190157+180984520+183234282+181633764
3818+179997565+178537955+174603504+169011069+165275816+165388767+169133408
3808+174227681+177851554+180375371+184016000+187619900+187641369+184752013
3798+182204914+180199231+177696489+175469038+174768349+175536789+177205172
3788+179647305+182631846+185483202+188109741+191317060+195228266+198500739
3778+200188644+201295619+203580519+208257154+215427948+223458776+230041589
3768+234832877+239002954+243070122+247692451+254516705+264164958+274623857
3758+283575703+291966011+302927355+318366136+336512897+351595397+360655818
3748+368480100+379662353+392181540+399497243+401600599+405490524+415331017
3738+430860047+448868948+464804115+475650320+481116620+482881684+483738802
3728+485940148+489505769+492472039+493548439+493628889+494253971+496068741
3718+499016834+503489616+510755464+521534048+533862677+543917029+550206824
3708+554229260+558231799+564179076+572052241+578899123+582147584+582939288
3698+583798912+585860827+589300182+594627875+602458103+611137820+615672088
3688+613594240+609021112+605849249+604751605+605749201+609496553+616831930
3678+627028442+635145050+635104882+629878396+627151379+628064599+627820595
3668+623118920+616214589+611177614+610018372+611841407+615324297+620600152
3658+626957829+631624722+634274580+639140296+649504627+662701108+670175242
3648+667571163+661182255+657087897+655811776+655458412+654860295+654828131
3638+657113330+662311615+669025761+675134685+679958213+683667715+684888034
3628+682835244+679792003+677955092+678481323+681850926+686932595+690958285
3618+692813822+694887406+699229808+704739119+709138819+712368767+715798435
3608+718837338+719480560+717536832+714723756+712780776+712751079+714642446
3598+716769364+716572934+713414722+709874870+709475278+713816333+721172804
3588+726708296+726471473+722190110+718348059+716736900+716582958+717563536
3578+720421793+724417113+726316559+724280375+721473134+722639670+728170674
3568+732775256+730679980+722736838+715161123+712781374+714974567+717007833
3558+716361245+715662969+717523891+720563318+722737660+725297233+730050895
3548+734879883+735223000+730104304+723777407+720168663+719088523+718688707
3538+718866885+720561672+723288277+725606389+727218670+728741862+730232888
3528+731104107+730804300+728966866+725591429+721698288+719199379+719434482
3518+721893969+724418759+725194754+724663361+724511962+725218392+725856602
3508+725839846+725437860+724764793+723455534+721760523+721527141+724330044
3498+728123624+728323494+724074446+720178163+720674848+724263246+726882809
3488+726595420+724874976+724225845+725361712+726414774+725383255+723302939
3478+723236814+726155286+729403410+729761113+727030693+723201732+719861900
3468+718042568+718640085+721499763+724828673+726413577+725585145+723725195
3458+722306726+721149391+719608097+718803902+720626974+724136980+725899164
3448+724460050+722023601+721166745+721855820+722432917+722343080+722264239
3438+722463960+722897213+723532805+723625933+722429776+720969044+721045416
3428+722574891+723844430+724084619+724402078+726233304+729416201+731628767
3418+730492451+726815712+723825804+722929677+722332982+720219154+717577300
3408+716726652+718337063+721064566+723120945+723485829+722441819+721108400
3398+720137321+719572492+720100294+722737436+726848251+730483999+732676144
3388+733217411+731348410+727267665+723257758+721218433+720720178+720234040
3378+719313677+719242316+721297424+724762324+727519149+728598840+728943378
3368+729853194+731735659+733504575+732972509+729118789+723823336+720301810
3358+720286700+723070828+726535504+728846584+729653099+729898374+730438893
3348+731286623+731887881+731319087+728663993+724385771+721115132+721552125
3338+725375102+729660504+732248352+732795902+731368831+728819431+727252555
3328+727907820+729920142+731985647+733530756+734054444+733538760+733204619
3318+733876191+734559133+734060054+732485698+730026136+726329425+722140517
3308+719766378+720797897+724085292+726812720+727667182+728051739+729352619
3298+730854567+731499285+731431963+730771762+729273479+727765622+727586396
3288+728796916+730416901+731565784+731362622+729077872+725465013+722737062
3278+722658969+725066992+727866305+729211842+729943031+732009509+735154407
3268+737248561+736936937+734623612+731990360+730733613+730988014+731599520
3258+731661082+730744608+728906426+727497457+728073806+729909894+730271262
3248+727798385+724521238+724011986+727915899+734137699+738595295+738897420
3238+735813561+731809563+729136741+728607517+729368926+729957393+729227551
3228+726476859+722277928+718960013+718469238+720045464+721174599+720503701
3218+718695289+716845512+715608288+715616367+717394858+720400923+722824131
3208+723394496+722848292+722347493+721518688+719618569+717713963+717734683
3198+719711773+721594612+721674575+720042547+718015190+716853815+716834292
3188+717226853+717282131+717105299+717252510+717839256+718395259+718163448
3178+716481676+713724626+711680290+711672884+712800299+713401108+713515106
3168+714032137+714403005+713446288+711289898+708859658+706648214+704761410
3158+703121154+701502739+699886120+698421199+697161385+696274608+696038757
3148+696531253+697653731+698938005+699135034+697198262+694031522+691959060
3138+692374136+694692323+697048808+697521332+695358883+691438289+687563549
3128+685077283+683775804+682675767+681839631+682187535+683605405+684838066
3118+685210804+685194348+685587058+686834380+688569785+689602799+688906992
3108+686533601+683282859+680113053+677997430+677391908+677668376+677555126
3098+676316032+674338643+672564416+671598648+671419273+671537984+671320684
3088+670585606+669898026+669933333+670814425+672197213+673463984+673906737
3078+673249302+671756555+669695463+667218023+664730260+662745092+661514226
3068+661120319+661462987+661992136+661946282+660942141+659311459+658138939
3058+658468666+659861926+660430870+659011054+656449163+654188798+652843561
3048+652392580+652462445+652206024+650937607+649135779+648088926+648334575
3038+649051552+649173853+648438251+647236632+646080494+645214213+644392139
3028+643239741+641922479+641051111+640936590+641218742+641090307+639964464
3018+638279999+637247957+637375120+637766708+637122963+635081394+632604029
3008+631266645+631942705+633863768+635347838+635484576+634515293+632834344
2998+630639281+628486033+627034651+626168033+625143546+623624880+622017199
2988+620733823+619588755+618119533+616334347+614862544+614325093+614727789
2978+615484448+615981207+616075607+615932474+615432460+614161576+612161185
2968+610204180+608940438+608269241+607862543+607729283+607859850+607831462
2958+607173430+605879431+604431154+603366049+602849130+602643088+602406677
2948+601912311+601100860+600171932+599437040+598677988+596955972+593791178
2938+590314197+588359810+588577334+590067388+591451673+591693657+590442108
2928+588307112+586345693+584957631+583823858+582794696+582104723+581732620
2918+581193037+580129391+578743573+577474521+576401674+575253464+573956025
2908+572713789+571683580+571069306+571148447+571609339+571380407+569892335
2898+568064700+567231818+567453493+567568127+566741940+565358478+564261433
2888+563625953+562819776+561186101+558894095+556893555+555779493+554967106
2878+553534238+551653344+550457261+550519758+551075723+550927204+549848261
2868+548754582+548445874+548634712+548439853+547527718+546388260+545495163
2858+544675820+543531724+542102334+540710644+539405949+538074437+536964938
2848+536586178+537024068+537630600+537473291+536116235+534040556+532188348
2838+531038194+530330231+529642165+528941346+528440098+528030520+527253104
2828+525957684+524522048+523198615+521828730+520443061+519487205+519149063
2818+518979038+518419295+517373714+516146065+515065663+514264422+513707522
2808+513258112+512617433+511424567+509684599+507950690+506790251+506225908
2798+505944391+505780911+505638413+505175838+504095848+502628346+501290738
2788+500251665+499313274+498395642+497569380+496670447+495383817+493822663
2778+492625196+492200508+492099750+491462849+490006830+488230209+486709635
2768+485557050+484564877+483556248+482474799+481326440+480144046+478903157
2758+477520181+476113493+475096374+474668993+474345886+473400876+471746893
2748+470035163+468884822+468266322+467669066+466707712+465436640+464142567
2738+463048065+462259353+461765100+461328443+460561275+459333962+457978963
2728+456845115+455809819+454565376+453212883+452101962+451250753+450436123
2718+449655191+449050417+448562896+447927790+446892830+445460261+444017444
2708+442971077+442200655+441260993+440059824+438883713+437893410+437004502
2698+436136463+435307844+434537085+433751814+432829956+431784860+430806676
2688+429963845+429040901+427911467+426839256+426111732+425567810+424786990
2678+423651460+422472207+421575818+420935028+420276621+419506423+418853140
2668+418465068+418089076+417426480+416601004+415898801+415243386+414341537
2658+413206417+412173104+411479241+411085596+410814626+410468779+409903613
2648+409128104+408272108+407398309+406443612+405418714+404542222+404026874
2638+403793230+403555809+403147241+402555221+401704424+400523825+399258925
2628+398390923+398122758+398101028+397751142+396881270+395868078+395151139
2618+394677269+394104473+393399615+392835982+392506255+392211648+391753897
2608+391108806+390398786+389786794+389291081+388740165+388039271+387354198
2598+386865928+386510656+386149774+385801870+385478951+385024753+384381681
2588+383778553+383409892+383191882+382980117+382719807+382313707+381640527
2578+380737406+379799165+379055260+378664794+378601025+378662887+378643812
2568+378396629+377843057+377154693+376752483+376843591+377117853+377148596
2558+376940049+376823395+376879796+376752034+376162482+375413079+375070225
2548+375232994+375419774+375189758+374616663+374059875+373673598+373321393
2538+372924382+372689766+372852348+373299887+373684444+373879228+374035826
2528+374151694+373941538+373277821+372453541+371851049+371577984+371494655
2518+371399096+371165153+370829068+370530907+370357741+370305454+370324042
2508+370308334+370171671+370006433+369990875+370076635+369983656+369577556
2498+369042573+368589498+368209878+367843797+367552706+367329197+366974150
2488+366411116+365903099+365721928+365820405+365995928+366114265+366034713
2478+365621095+365005027+364571886+364502470+364531979+364347106+364033088
2468+363882512+363921409+363919688+363774984+363611579+363525632+363424836
2458+363155811+362726635+362337777+362155148+362122497+362075222+361944955
2448+361765804+361584522+361445128+361382145+361384800+361398302+361343959
2438+361130810+360701036+360113803+359566066+359247036+359138274+359025024
2428+358745639+358359885+358063557+357993281+358087195+358140716+358054693
2418+357937142+357885791+357856356+357832980+357882761+357949784+357848913
2408+357555914+357294631+357249151+357341756+357382336+357332705+357331508
2398+357534334+357973907+358482785+358748930+358568732+358037264+357405413
2388+356823491+356253463+355485097+354197794+352129819+349229861+345644904
2378+341646778+337568502+333676520+330057416+326659202+323398062+320247143
2368+317370298+315115544+313633418+312637430+311943138+312075051+313864219
2358+317588308+322846809+329179952+336550074+344858361+352999654+359131355
2348+361947386+361524942+359320043+356962735+354682024+351723383+347938593
2338+343950378+340168243+336409296+332565599+329188068+327044880+326245921
2328+326121750+325933174+325525429+325301060+325664560+326635452+327979643
2318+329419617+330672026+331600729+332361465+333214693+334298685+335648561
2308+337199018+338729839+340015684+341006922+341744656+342218377+342407476
2298+342382343+342319172+342434741+342860888+343531413+344195167+344604633
2288+344765981+344946889+345318692+345698499+345804942+345615768+345289856
2278+344924561+344579874+344359283+344290615+344259385+344149276+343931977
2268+343632021+343353122+343275104+343432412+343572815+343440154+343118506
2258+342920804+343040824+343436377+343893454+344113072+343940729+343588075
2248+343423773+343544465+343763486+343942150+344063366+344057569+343856502
2238+343602848+343574648+343878419+344342303+344727346+344967385+345164600
2228+345401648+345652870+345892535+346166834+346493008+346788438+346968973
2218+347055967+347151639+347340028+347608566+347873590+348135733+348550061
2208+349199342+349872260+350301324+350571471+350994513+351613724+352166809
2198+352523652+352836660+353266510+353835677+354536946+355364218+356219615
2188+356919237+357341420+357554605+357742208+357995488+358283176+358634707
2178+359176535+359934840+360751041+361436451+361935829+362352326+362861091
2168+363592953+364596272+365873851+367402503+369160049+371162871+373421441
2158+375914065+378701634+381933713+385600840+389437095+393191291+396803177
2148+400178689+403047754+405342678+407565454+410373444+413821701+417389192
2138+420718401+423917979+427167936+430458996+433748710+437086672+440567430
2128+444257446+448114608+451954901+455531930+458652217+461228059+463184691
2118+464307168+464351002+463361896+461653645+459470438+456969099+454470640
2108+452390473+450972864+450295383+450375047+451049985+451852909+452159859
2098+451431774+449308746+445646817+440596752+434586342+428140548+421683907
2088+415435515+409443020+403770640+398624155+394177555+390356597+386952810
2078+383878451+381167405+378837736+376896140+375360269+374181353+373259270
2068+372563163+372087199+371688804+371145180+370387287+369560689+368884891
2058+368487206+368283034+368036599+367644824+367282409+367196387+367486955
2048+368094720+368846629+369576098+370330887+371401938+373139587+375816748
2038+379558677+384311928+389973462+396467840+403500905+410373930+416261291
2028+420597297+423205790+424241273+423954220+422442399+419737935+416032285
2018+411641337+406891863+402128439+397655620+393608125+389937033+386504859
2008+383230666+380203021+377568048+375277052+373107011+370941383+368852202
1998+366973028+365513007+364737984+364597880+364474905+363683464+362184957
1988+360466569+358923667+357687266+356779358+356123607+355556159+355001727
1978+354539526+354252511+354115811+354022757+353888226+353785859+353897015
1968+354170491+354196410+353688804+352910826+352333954+352092493+352000076
1958+351903357+351795604+351664103+351400912+350938225+350432713+350189532
1948+350421119+351186605+352340798+353259703+353048686+351591620+349875028
1938+348830905+348529303+348580094+348696710+348781648+348815084+348771213
1928+348711147+348981444+349903826+351172579+352191120+352975343+353760801
1918+353973238+352884683+351058319+349820908+349735335+350306635+350692987
1908+350453359+349788706+349157864+348779441+348605040+348591277+348833298
1898+349464814+350359220+351039170+351302248+351645028+352363688+352747571
1888+352082507+350848836+349935355+349510219+349255593+348989261+348766388
1878+348747239+349002276+349437399+350211374+351983731+355042906+358084315
1868+358783638+356554466+353348119+351112027+350168775+349856252+349651258
1858+349477867+349430330+349581580+349939208+350455453+351116328+352147548
1848+354144422+357452912+360835941+361635499+359131542+355863146+354100738
1838+353870797+354050396+354159158+355052480+357679786+361263285+363557535
1828+363728307+363062757+362203769+360578398+358412845+356915497+356642582
1818+357105232+357711614+358518615+359961133+361927526+363423789+363624034
1808+362984440+362693610+363554243+365698702+368589722+371012594+371881718
1798+371558012+371768094+374014882+378003433+381063206+380584062+377789537
1788+375934598+376365532+378292654+380688448+383253855+385626423+387176057
1778+388210418+390268967+394700869+401010561+406205854+407406612+405401771
1768+402666863+400754178+400830999+403423821+407090836+409491828+410540103
1758+411748827+413307101+414878091+417540927+422444643+428383766+432293700
1748+432902027+431857867+431155066+431758343+433730272+436188974+437936945
1738+439605178+443616244+450494655+455986688+455788799+452472718+449795033
1728+448574827+448897298+450795509+453725650+457734585+464294938+474300594
1718+485059393+490632062+489029729+484620530+481528929+481300072+484214954
1708+489808492+496465602+502225762+507498027+514737881+524049225+531208405
1698+533707463+533552848+531685679+529010426+528476265+531670868+537562680
1688+545130989+555306296+567758236+576351070+576540394+573812031+573874865
1678+577900518+584750355+592115951+598247989+604014470+610535215+615828163
1668+617450280+617762353+620803164+627033230+633361772+637245414+640129028
1658+645283404+655021045+669945226+685925163+692863116+691845586+693435201
1648+699371333+703888771+702449657+698744418+697595535+699852384+705109090
1638+713021787+720981012+723034474+717798489+711618728+708751046+708785979
1628+709902771+711346299+713067417+713588262+711240379+707982381+707427201
1618+709597056+710034049+705658136+699658348+695317293+692143746+688469475
1608+684165223+680577423+678516480+677365653+676139499+674776085+674062773
1598+674551230+675869016+677033607+677325185+676734025+675515576+673689587
1588+671267874+668668208+666489452+664992142+664290275+665064475+668331973
1578+673837021+678409962+678399789+676075693+676530489+680698453+685298622
1568+687462417+688624989+691362590+696753041+705987489+720905985+739394255
1558+750315262+750086816+749042357+752649605+760392428+770113537+779748250
1548+788557673+797754570+808699439+820853032+832260775+839696012+838930339
1538+832542255+828220498+828022946+828896783+828016513+826755503+827947097
1528+832068983+837980654+845009567+853135674+860945295+865492654+866348014
1518+866064365+865748551+864924458+864239422+865635226+870631621+879137947
1508+888075132+890285080+882950227+874476141+871219265+873303397+878354397
1498+882770778+883541088+881624288+881103817+884283273+889708282+893244768
1488+891871928+887169131+883059139+882035325+883944869+886886679+889471385
1478+891935435+894995208+898721541+901959118+902278298+899097346+895816832
1468+895566844+897989380+900075531+899683194+898805319+900956623+907045874
1458+914024594+916051203+911853543+906570059+903723396+903551501+904463861
1448+904239380+902117548+899400294+897553060+897281230+899075055+902905437
1438+907100030+908535330+906132392+902728007+900738051+899994595+899746776
1428+900305472+902063990+904088130+905312862+906610452+909579789+912962183
1418+912679880+907884403+902337466+899027705+898234356+898659156+899109239
1408+899485194+899996315+900090715+899313075+898549422+898860523+900015465
1398+901131435+901641958+900726382+897382437+892338991+887875860+885073256
1388+882763447+879494902+876278568+875733562+878666396+883258037+887422560
1378+891062123+895364580+900403911+904470742+906178770+906223576+906161341
1368+906882656+908773349+911981529+915741224+918159495+917960896+916183827
1358+914929473+915326821+917213326+919765867+922037078+923426598+924039077
1348+924387354+924840056+925725112+927554692+930444141+933476163+935347782
1338+935936398+936563912+938205889+940134283+940883050+940075264+938700030
1328+938015892+938677291+940491611+942769330+944958932+946672046+947417672
1318+947128712+946596945+946607417+947188478+948002398+948770240+949306345
1308+949559550+949389750+948519055+947284524+946778265+947583283+949051944
1298+950147344+950346242+949700178+948567976+947160353+945279010+942872258
1288+940405664+938226684+936115175+933769087+931117882+928064094+924668610
1278+921537999+919216821+917391354+915512180+913861377+913021426+912606350
1268+911458365+908978456+905664656+902545266+900333747+898790957+896910661
1258+893921726+889978916+885945671+882753573+880766310+879643758+878956178
1248+878593239+878286925+877462085+876048029+874745353+874191221+874498582
1238+875605351+877359830+879266906+880754641+881798128+882949405+884649877
1228+886661375+888303053+889264782+889918850+890694995+891558284+892416561
1218+893594392+895363308+897404129+899425651+901909375+905331638+908973818
1208+911453278+912311705+912437372+913011701+914493154+916649544+919081878
1198+921393632+923221192+924650807+926249848+928129022+929607781+930321167
1188+931025726+932965340+936597273+940985229+944324687+945504313+945404602
1178+945929038+947974123+951006294+954176774+957174087+960151728+963232295
1168+966073946+967834858+967767611+966308076+965401925+966804836+970160974
1158+973684967+976553621+979391457+982322571+984049149+983647013+982389593
1148+982774524+985936102+990452717+993646685+993905574+991893103+989880782
1138+989989095+992588986+996353019+1000023699+1003059386+1004672863+1004298704
1128+1002995056+1002712679+1003859018+1005227744+1006380741+1008191322
1120+1010932812+1013602493+1015255915+1015966010+1016628231+1018268937
1111+1020973475+1023214990+1023277225+1021502175+1019971578+1020109438
1103+1021895185+1025148395+1030159451+1036420597+1041640351+1043526855
1094+1042032836+1038797653+1035357587+1033083833+1033146068+1034921417
1085+1035866764+1034310210+1032007059+1032206182+1036174200+1042549419
1077+1048529982+1051660593+1052257737+1053239587+1056078619+1058663325
1068+1058517760+1056040246+1052969701+1050143684+1048193897+1048133607
1060+1049879858+1051831515+1052867223+1053630202+1055156985+1057569646
1051+1060661210+1064510442+1068591561+1070800536+1068929815+1064046969
1043+1060937154+1063173732+1068863540+1073121491+1073741823+1071649613
1034+1067595498+1062031880+1056634996+1053662292+1054449209+1058775079
1025+1064652940+1069345714+1071657916+1072166794+1071349583+1069357906
1017+1067224780+1066521716+1067521669+1068459386+1067346108+1064620775
1008+1062626780+1062136678+1061702827+1060616852+1059710552+1058923037
1000+1057365287+1055913232+1056170476+1056963077+1055040219+1049781568
991+1044330527+1041603399+1041531589+1041873957+1040473590+1037051776
983+1033186311+1030723832+1030153467+1030155562+1028784143+1025469146
974+1021447794+1018094050+1015606138+1013303734+1010342027+1006168453
965+1000951692+995520773+990224946+984612632+978892827+974465226+972104103
955+970844589+969573105+968487206+968033906+967635661+966511836+964815852
945+963053519+961266052+959493919+958173591+957655512+957810203+958025258
935+957474193+955972544+954535973+954252922+954739883+954624314+953295682
925+951167717+948902490+947485517+947952431+949932288+951518837+951343127
915+949788743+947970383+946734580+946419141+946475990+945863362+944503089
905+943625363+944164461+945540517+946367976+945689149+943479350+940727237
895+939101567+939793934+942306905+944695255+945396748+944353785+942193206
885+939531529+937133977+935454898+934117889+932671818+931383878+930758758
875+930865949+931257986+931081304+929846175+928476177+928312137+928857518
865+928342656+926759698+926178113+927580649+929583695+931026100+932757915
855+935497236+937763061+937508959+934947891+932443223+931928810+933310103
845+935154494+936181524+935903336+934475965+932552957+930997750+930032806
835+929164505+928513429+929174753+931639775+934828582+937197634+937984176
825+937145347+934982075+932191739+929989570+929639871+931459727+934449336
815+937344470+939975478+942737240+945148779+946460955+947326413+948874364
805+950307494+949509882+945951703+941349141+937665594+935829207+936079120
795+938210901+941118676+943136982+943769058+944225724+945283498+946073481
785+946116193+946335961+946719096+945610457+942891257+940916112+940775933
776+940981414+940412620+939645452+939393669+939918928+941154057+941847172
766+940027316+935749917+931955365+931433771+934169651+937951562+940242222
756+940124708+939137921+939259324+940761347+942637080+944014857+944776939
746+945713609+947730418+949972905+949856514+946497982+942703504+941651116
736+943386596+945248042+944752105+941775362+937987392+935097943+934147809
726+935403958+938129366+940941096+942782794+943214402+941899982+938972833
716+935844766+934681371+936790262+941229757+945029246+945699247+943752377
706+941204474+938748128+936563089+935623352+936200449+936322601+933942328
696+929570230+925015990+921254051+918578835+916770947+914537885+911167535
686+908242779+907351514+907421304+906323586+903769848+900875088+898528702
676+897524710+898333693+899221442+896740262+889583363+882080954+881262920
666+886385955+891181282+891520883+886275772+877874318+870684207+866718433
656+864943832+864292008+864830881+866089648+866567184+866210902+866973957
646+869257959+869865949+865575684+857538217+849182542+842095658+836509076
636+832998247+831898360+832997574+836037824+839586203+841313678+841258998
626+842069402+844505851+846397367+846166603+843932494+839810384+834444318
616+830173726+828436077+828923038+831513055+835637184+840147367+845004406
606+850351547+852951063+848065300+837423080+828913688
##END=
