##TITLE=<SNM>
##JCAMP-DX=4.24
##DATA TYPE=INFRARED SPECTRUM
##DATE=3/5/2025
##SAMPLING PROCEDURE=Instrument type and / or accessory
##ORIGIN=Admin
##XUNITS=1/CM
##YUNITS=ABSORBANCE
##RESOLUTION=4
##FIRSTX=4497.3318
##LASTX=599.83466
##DELTAX=-1.4281778
##MAXY=2.0060296
##MINY=0.44667357
##XFACTOR=1
##YFACTOR=1.8682607e-09
##NPOINTS=2730
##FIRSTY=0.46702927
##XYDATA=(X++(Y..Y))
4497+249980789+250892855+252471967+253590020+253514711+252320934+250691064
4487+249541346+249541234+250545981+251632370+252113639+252217326+252372490
4477+252426743+252162324+251966817+252226004+252571522+252377292+251585120
4467+250618514+249907362+249764657+250237631+250858638+251015956+250616201
4457+249993455+249443577+249176589+249304635+249734252+250401457+251369610
4447+252395222+252967895+252945228+252472557+251561607+250526583+250129174
4437+250448611+250451657+249411960+247941625+247010416+246595236+245907996
4427+244798764+244209755+244899165+246360503+247393964+247375763+246633919
4417+245834186+245290338+244759426+243951271+243232414+243335926+244290600
4407+245247826+245602054+245721534+246185910+246827767+246996346+246334901
4397+244946638+243295217+242181167+242171995+242849807+243258272+243184207
4387+243362773+244319537+245459061+245535231+244014648+241741533+240070219
4377+239670704+240302383+241165047+241330101+240488542+239390509+239085253
4367+239857501+241185401+242355171+242839806+242489358+241687567+241157597
4357+241399173+242264867+243176343+243706010+243755046+243362055+242683573
4347+242017022+241612721+241534190+241634416+241569794+241106503+240555413
4337+240484506+240964659+241546409+241936433+242286673+242813485+243435530
4327+243873090+243980702+243852832+243640416+243486097+243572732+243905010
4317+244194936+244310396+244478226+244748356+244817826+244692843+244792973
4307+245037883+244695411+243603599+242700003+242842486+243821917+244859301
4297+245436473+245375361+244670144+243645808+243002866+243314726+244341614
4287+245065272+244769157+243896843+243457894+243897321+244899069+245921635
4277+246568851+246723824+246584564+246439402+246399043+246362561+246199166
4267+245999161+245986750+246046059+245700892+244856781+244222884+244614408
4257+246020169+247657649+248779259+249102764+248629088+247607448+246697599
4247+246597692+247339839+248321902+249058928+249512345+249717854+249583076
4237+249091996+248361782+247626574+247386355+248172449+249775472+251057894
4227+251103915+250278707+249553597+249286945+249345488+249786431+250612293
4217+251325662+251469756+251202195+250882439+250555153+250071061+249382704
4207+248718020+248606197+249345010+250361545+250745683+250484550+250390976
4197+250798579+251151547+250995825+250690138+250841283+251467890+252064523
4187+252316100+252407345+252598417+252805202+252787607+252530335+252264257
4177+252232034+252494507+252856025+253030491+253030905+253269482+254029192
4167+254916118+255136302+254362794+253091953+252083984+251691344+251801444
4157+252166743+252621787+253159031+253919140+254926614+255815471+256139071
4147+255947489+255655345+255443632+255272882+255281815+255572651+255805006
4137+255651118+255453155+255772767+256463740+256844448+256735130+256671386
4127+256994221+257347986+257358786+257302316+257559525+257830228+257616712
4117+257152942+257053195+257355962+257652333+257798261+257883524+257842432
4107+257552426+257080361+256711697+256867244+257675447+258542369+258771710
4097+258609766+258862094+259512485+259665767+258920350+257928572+257529280
4087+257999797+259062322+260050048+260245746+259578669+258793133+258577671
4077+258861503+259232210+259579563+259949519+260126617+259789984+259030594
4067+258457872+258619752+259451182+260517216+261582755+262601189+263387841
4057+263764641+263854993+263902131+263942106+263770910+263204043+262427281
4047+261985892+262183105+262598445+262537238+261880577+261142275+260758839
4037+260691538+260736188+260901784+261317890+261939025+262563271+263074067
4027+263507433+263886067+264110957+264114164+264022153+264038201+264279457
4017+264754649+265336606+265753047+265843733+265841915+266035364+266258276
4007+266166775+265818609+265547522+265564256+265942236+266590953+267085972
3997+266929628+266123801+265191635+264698530+264995586+266067395+267317753
3987+267929972+267722533+267269387+267036505+266869297+266496087+266102808
3977+266122955+266689902+267528813+268275043+268737713+268914651+268894201
3967+268780623+268672150+268656326+268751208+268837795+268719974+268347433
3957+267981847+267966533+268309914+268834477+269690871+271049335+272330274
3947+272751436+272525270+272318533+272004919+271187798+270292577+269956598
3937+270178840+270778153+271734406+272670432+272833971+272090229+271330791
3927+271500743+272602892+273720131+274138391+274307640+275060698+276207257
3917+276538706+275318449+273328034+271941685+271635568+271966474+272806406
3907+274848697+278426997+282245118+284182701+283691063+281942415+279877600
3897+277856748+276594984+277031556+279143174+281244264+281596482+280997998
3887+281305391+282323123+282503507+282086461+282323442+282379082+280858642
3878+279117396+279390492+281757596+284802433+287409708+288546696+287379846
3868+285157139+283946294+283822890+283248876+281519243+279637556+278986845
3858+280646290+285335577+292125124+296104200+292963269+286527663+281743367
3848+279886629+280322658+281998438+284200120+286923303+290460383+294214633
3838+296305226+295643924+293487194+291473648+290006838+288924246+288349435
3828+288371512+288950694+290665014+294109701+297681301+298311114+296594817
3818+295812057+295952593+294394921+291158311+288957968+289620834+292829241
3808+296244545+297789423+298787279+301475686+304572366+304729748+302451528
3798+300669891+299771320+298644765+297356903+296777849+297096696+298002668
3788+299422037+301324430+303361903+305506031+308405673+312155201+315446271
3778+317165217+318038105+319630999+323023842+328338221+334262408+338789177
3768+341540084+343903614+347032613+351537081+357990648+366113870+374041905
3758+380247484+386062561+394299297+406312966+420453567+432350564+439715273
3748+445519694+452742430+460659873+466014833+468553579+471765464+478517619
3738+490171796+505827414+520777446+529978411+534013989+537253566+542295773
3728+548586567+553750646+555986657+556066162+555681593+555320314+555576119
3718+558123511+564021059+572942259+583991189+595042671+602364724+604853605
3708+606094855+610028914+617993192+628556737+638290017+644301972+646877503
3698+648112564+649458011+651402740+654024405+657579192+662395711+667040268
3688+668846343+667354840+664415350+662347536+662861698+666432437+672052932
3678+678297977+683060515+683293349+680022123+677917492+678956408+681668104
3668+683726220+683730495+681656619+679032785+678221280+680798917+686513784
3658+693118448+697491440+699122044+701117819+706283813+714321660+721498807
3648+723682878+720277720+714303922+709771666+708810212+710679840+712604023
3638+712166877+709643859+708097736+710221637+714830845+717297074+714574275
3628+710777529+712589219+721118322+732827405+742861092+747380267+745477906
3618+740527264+737703265+739281866+744240995+750376354+755481156+757559371
3608+756662491+755965456+757658720+759896964+759301383+754640044+748060520
3598+743788918+744787316+749893969+755318957+759505312+763922587+768158457
3588+768002639+761913221+754674437+750865823+750484381+750824029+749980683
3578+748884915+749670068+752680639+756585794+760714212+765675191+770796775
3568+772911998+770050545+764171692+758335719+754907717+755469607+759090818
3558+762392799+763906125+766068502+770305073+772693776+769276175+762998142
3548+759398307+759613530+761096994+763224596+767696362+773356099+775303253
3538+771004660+764407206+761094378+762026480+763517792+762008613+758506468
3528+757517258+761669476+769001611+775783341+780247323+781988570+780528970
3518+776770701+772525132+768375211+764809130+763282660+764254387+765555552
3508+765204100+764087275+763382009+762627548+761662776+761830909+763566094
3498+764639466+762592326+758706951+756998757+758916942+762034200+763817815
3488+764189048+764479373+765379315+766711236+768357664+770663034+774851112
3478+781664299+788615567+790775583+785889705+776762278+768263101+764071323
3468+764808748+767579211+768686976+768044369+768790663+771944483+774765737
3458+775027795+773758406+772816925+772408811+771758675+771087419+771226200
3448+771772457+771695059+771368683+772001144+773196963+773184712+772094750
3438+772467259+775192610+777254745+775713791+772178912+769553483+767075705
3428+763473445+761658054+764553836+769157429+770048630+767275615+765276840
3418+766329730+769256905+772214900+774420091+775392775+774206782+770819299
3408+766835788+764228098+764029529+765960220+768693994+770910097+772708579
3398+774609664+775357936+773481417+770337998+768725771+769273751+769667763
3388+767356842+762334607+757524979+756269564+759075696+763120142+764959206
3378+763976249+762144141+761124367+761723712+764499791+768740000+771986979
3368+771986404+768479665+763531127+760892108+762943331+767147234+768212311
3358+765470178+763888961+766937115+772629139+777012213+778543851+778008633
3348+776809240+776631409+778590494+781359682+782271365+781121679+779940664
3338+779056099+777209251+774937188+773948553+773869495+772793635+770631513
3328+769515518+770914947+774276141+778049597+780636167+780506893+777397355
3318+773800455+772772004+774346840+776281934+777176453+777013425+776025747
3308+774953842+775186038+776973864+778799783+779089151+777216652+773838995
3298+770870281+769920249+770771762+772049574+773254964+775504055+779669481
3288+784372678+787048196+786791498+784853852+782337151+779147088+775570160
3278+773063796+772753308+774261083+775807461+775384161+772808311+770306030
3268+769840171+770721418+771027822+770602608+770824404+772001654+773089638
3258+773855139+774825015+775097984+773191156+770153977+769256650+772073821
3248+776537037+779471933+779814963+778386374+776258772+774382381+773456341
3238+772984483+771705077+769783127+768535305+768310255+768637461+769338388
3228+769802333+768559296+765602323+763648470+765048090+768567209+770841185
3218+770432242+768823843+767531930+766378479+765150118+765110111+767540289
3208+771823184+775594152+776753154+775515349+774155353+774325975+775079543
3198+773949957+769857846+764598884+761119007+760580280+761531013+762350240
3188+763445498+765703331+768196614+768864807+767141874+764573297+763126970
3178+763811945+766120058+768101732+767658524+764535715+760352805+756853276
3168+755187386+755809128+757554203+757962827+756072270+753403835+751602291
3158+751247073+752470202+754458256+755439171+755204742+755444020+756455818
3148+756261077+753635648+749665601+746138762+744165639+743688357+743689251
3138+743418196+743198506+743560168+744079753+743866189+743132465+743003446
3128+743623274+743704373+742639360+741614290+741431928+741177208+740192146
3118+739436408+739574360+739396592+737485171+734190783+731091199+729462510
3108+729547182+730715500+732290847+734131314+736225544+737975150+738246843
3098+736255024+732233292+727433874+723864602+723209362+725023987+726793309
3088+726783419+725963937+726237672+728284493+731639626+734795934+735274874
3078+731969384+726874727+722942390+721597517+722979080+726694917+731074609
3068+733255427+731601533+726839569+720924474+716298485+714886549+716077263
3058+716994690+716276726+715622443+716790441+719321563+721035691+719946431
3048+716415763+713018389+711769036+712152073+712367998+711739557+710880451
3038+710185905+709385374+708344161+707470252+707226124+707502028+707819726
3028+708152675+708927108+709940501+709976233+708047583+704610139+701198791
3018+699112664+698560601+699005085+700103661+701763808+703268966+703514881
3008+702257296+700132566+697737099+695629406+694605676+694781658+694791229
2998+693182447+690544193+688999601+689574955+690984019+691324815+690279072
2988+688947471+688299313+688618542+689560726+690023969+688861649+686316809
2978+684020118+682991156+682340190+680602836+677874039+675648556+674852364
2968+675134649+675733293+676036634+675613015+674602494+673887019+674143015
2958+674812740+674497466+672597211+670358776+669724081+671137293+673136386
2948+674045453+673233437+670933491+668032860+665816885+664991724+665039133
2938+664851156+664005641+663074369+662555804+661993595+660614266+658632273
2928+657173120+656756456+656557504+655426386+653237082+651030806+650019965
2918+650505924+651592058+651945999+651083894+649803147+649084163+648825869
2908+648186644+647019730+646126360+646032180+646337499+646528412+646584243
2898+646175492+644413316+641285275+638201388+636281289+635179459+634116870
2888+633000492+632199387+632085618+632881618+634219728+634991736+634372483
2878+632680560+630691804+628661254+626503981+624466859+623100865+622624860
2868+622611588+622478166+622142411+621900452+621758927+621342454+620410927
2858+618999183+617270379+615742314+615166450+615605638+616176525+616075709
2848+615197716+613627537+611431087+609166491+607748302+607415481+607437112
2838+607124263+606578006+606085730+605425768+604361329+603241314+602469050
2828+601819680+600770427+599311274+598195598+598240327+599282050+600124630
2818+599737700+598143850+596098751+594441029+593587538+593171704+592493748
2808+591449918+590455732+589643971+588935196+588637725+589152588+590105619
2798+590277389+588632237+585453660+582232013+580274012+579691831+579804451
2788+580026821+580124957+580066637+579894484+579495367+578521663+576849839
2778+575008797+573722882+573024444+572227486+570924917+569521660+568553890
2768+568102451+568086435+568364126+568299106+567102585+564901030+562772918
2758+561539899+561000214+560417778+559419316+558256997+557302626+556499543
2748+555506951+554264298+553056611+551973285+550723931+549226940+548020402
2738+547663845+547874091+547697344+546606871+545079955+543964534+543568671
2728+543531790+543374058+542883122+541987837+540639901+539003490+537473638
2718+536342010+535596163+535009515+534315129+533399457+532359999+531284107
2708+530101783+528838807+527766232+527069804+526574816+526006833+525421429
2698+525055046+524729021+523899873+522484587+521158920+520507380+520254032
2688+519695301+518637115+517526734+516741358+516098528+515126004+513641392
2678+511973078+510635127+509850006+509389219+508864689+508168803+507537299
2668+507190376+507102577+507135374+507165109+507023615+506544803+505773592
2658+504960332+504215314+503342744+502198418+501035907+500244437+499871482
2648+499621770+499163089+498280438+496996597+495701972+494863954+494504972
2638+494289654+494098805+494069517+494102314+493838566+493188621+492456843
2628+491877502+491357725+490683661+489751687+488660863+487710608+487167318
2618+486973758+486862094+486678041+486383792+485915923+485264192+484539847
2608+483851331+483213255+482597352+482040662+481674215+481552215+481461416
2598+481103743+480479672+479865300+479467460+479257405+479026038+478561200
2588+477866845+477112033+476382073+475759981+475505803+475735096+476105786
2578+476174124+475848514+475329279+474862399+474551943+474213348+473584013
2568+472788428+472273468+472224400+472347549+472234865+471736176+470997284
2558+470306630+469945128+470032991+470405085+470738735+470938230+471243358
2548+471772259+472168409+471997245+471348704+470706736+470304365+469954316
2538+469481725+468986641+468649992+468537659+468593044+468662945+468601913
2528+468434769+468337494+468437034+468715618+469069751+469365627+469484022
2518+469339115+468894407+468267019+467732502+467474528+467391993+467209535
2508+466667010+465661689+464410230+463417033+463099271+463461124+464162465
2498+464795724+465061706+464831648+464195230+463464410+463034697+463130983
2488+463629544+464141760+464316337+464081876+463625588+463196418+462926160
2478+462788240+462714287+462702515+462701366+462474147+461830551+460963948
2468+460330338+460208753+460453168+460595076+460283759+459742096+459551694
2458+459886620+460303156+460370984+460123251+459805521+459547355+459344287
2448+459127724+458851277+458593718+458461636+458375974+458156859+457816030
2438+457500980+457189216+456793928+456506889+456579662+456854992+456972047
2428+456879653+456724856+456472497+456033469+455534270+455185720+455056446
2418+455073323+455118276+455125645+455148871+455240435+455263948+455021894
2408+454610845+454412148+454599583+454863013+454819720+454536733+454397632
2398+454566403+454821092+454888377+454772119+454699474+454801854+454906658
2388+454673505+453940546+452887242+451749807+450390002+448392313+445690889
2378+442781357+440132702+437691231+435094228+432111764+428823533+425557827
2368+422715930+420657815+419670615+419689088+420159924+420802308+422231375
2358+425077164+428983148+433346218+438444831+444709049+451298846+456505326
2348+459197402+459462140+458309774+456640024+454399610+451290998+447660663
2338+444034858+440509550+437061003+433950955+431482557+429708673+428583042
2328+428072709+427961524+427898961+427799516+427918741+428503283+429556364
2318+430847256+432024284+432870341+433492848+434157277+435032112+436163166
2308+437450134+438552698+439098061+439091457+438909063+438867046+438976189
2298+439073974+439054066+439028926+439284507+439935058+440714915+441317642
2288+441745727+442101933+442315147+442292399+442081483+441764263+441404580
2278+441086977+440863619+440732749+440675386+440599327+440341513+439871952
2268+439400988+439194507+439335617+439674595+439978192+440127853+440153663
2258+440117293+440048061+439947373+439794617+439603833+439463105+439421088
2248+439396490+439338297+439395277+439726120+440170668+440349903+440157204
2238+439921371+439995643+440415115+440983992+441431602+441526420+441325554
2228+441204096+441397050+441713090+441883520+441916317+441936161+441954506
2218+441960185+442009859+442109495+442182522+442246521+442479706+443014829
2208+443739333+444369338+444710134+444824637+444937194+445177972+445485046
2198+445773552+446089177+446523196+447058478+447557837+447865103+447926007
2188+447861178+447891327+448143527+448529500+448834340+448950438+449036834
2178+449404781+450194528+451184184+451983726+452442439+452799762+453399872
2168+454349170+455519594+456761801+457977847+459082261+460088603+461255294
2158+462990766+465487303+468477074+471444033+474060337+476346469+478491043
2148+480627801+482730773+484661178+486330545+487783604+489153809+490648056
2138+492489832+494722844+497153627+499598321+502062157+504597617+507143605
2128+509595924+511940759+514212757+516309189+517927255+518749671+518641932
2118+517687721+516158794+514381465+512513082+510528919+508401573+506103509
2108+503527914+500639757+497592305+494548585+491541842+488598938+485846277
2098+483402476+481208164+479002972+476562011+474000039+471716970+469990144
2088+468725317+467620903+466478969+465352190+464419131+463715142+463059710
2078+462302856+461524594+460878382+460366549+459907389+459507411+459222861
2068+459031055+458846875+458601981+458261248+457854379+457505670+457337856
2058+457352819+457438800+457423326+457156068+456687752+456310553+456242789
2048+456354963+456362365+456185809+455983348+455917147+456009924+456193243
2038+456423493+456744828+457241219+457892249+458499857+458857371+458991878
2028+459097926+459201230+459065862+458536833+457833897+457342578+457155111
2018+456954532+456382752+455419320+454331719+453394162+452768400+452490231
2008+452411173+452260715+451894874+451407447+450932591+450452981+449880881
1998+449279239+448926670+449077894+449597352+449934767+449635190+448778732
1988+447770508+446955589+446536372+446514614+446622864+446571913+446356084
1978+446142871+446016787+445972377+445962869+445897690+445753931+445601016
1968+445400405+445007223+444476853+444068676+443877062+443750085+443586322
1958+443479221+443558694+443825569+444118988+444202863+443960841+443538371
1948+443252513+443366377+443890015+444451745+444456945+443665476+442520352
1938+441676879+441433676+441666095+442032415+442199910+442036275+441649633
1928+441316685+441403080+442066329+442928242+443478774+443838841+444389277
1918+444765583+444223888+442950383+441926175+441714430+442080558+442435296
1908+442360259+441895579+441399794+441105354+440936710+440766248+440669516
1898+440833501+441238265+441587389+441760435+442076410+442679329+443024273
1888+442578321+441669509+440998955+440830758+441007888+441273359+441405314
1878+441318503+441109023+440991968+441333562+442568846+444650091+446516975
1868+446754339+445291996+443506020+442511068+442350464+442458012+442310680
1858+441795051+441236766+441039472+441287588+441831931+442590221+443636730
1848+445208631+447399849+449336602+449332072+447197132+444901621+443966935
1838+444205448+444646614+444891348+445574696+447384472+449738527+451077849
1828+450976076+450500677+450156626+449499982+448522832+447798934+447542938
1818+447548712+447715250+448176069+449088454+450360428+451492279+451943080
1808+451772491+451622925+452143149+453580065+455624398+457487932+458474430
1798+458753460+459348690+461190433+464018866+466011674+465584578+463776461
1788+462760548+463329457+464946374+466950667+469053256+470913281+472174088
1778+473171688+474941138+478269790+482691755+486169686+486948298+485789297
1768+484408818+483709391+484290455+486443899+489254785+491211127+492254222
1758+493363390+494634406+495856929+497814419+501299145+505462306+508241671
1748+508825989+508328705+508121553+508933920+510834718+513141714+514882259
1738+516391788+519439241+524648879+529231766+529874564+527916308+525990051
1728+524904396+524953305+526350022+528786708+532196779+537439693+545006321
1718+552921658+557155166+556625116+554366964+552972895+553423249+556107381
1708+560809047+566134815+570452294+574281582+579739176+586996848+592956544
1698+595669453+596338795+595436938+593632076+593282091+595811744+600751987
1688+607406421+616088534+626161207+633215460+634223939+633004767+633557979
1678+636895756+642308877+648032485+652786537+657366776+662700903+667462803
1668+669897829+671382569+674573461+679941215+685508494+689377853+692300498
1658+696490171+703584176+714015511+725126207+730481071+730809616+733093674
1648+738721252+743738957+744196777+741996945+741119207+743142100+748031041
1638+754919522+761423242+763683947+761065792+757562115+755919324+756039729
1628+756764519+757549417+758508701+758841904+757212066+754379454+752449656
1618+751523807+749253659+744468087+739344142+735749795+733557556+731884584
1608+729986306+727531499+724672152+721942142+719851676+718521606+717782140
1598+717424434+717196258+716800842+716038086+714809087+713118695+711197830
1588+709396030+707910525+706761987+705926682+705527373+706106810+708430493
1578+712516925+716492779+717684067+716837085+717097675+719409170+722073713
1568+723686643+725277814+728103216+732455726+739335337+750632797+765098051
1558+774232114+774970432+774733259+777367111+782644512+789739028+797798634
1548+805926705+813807586+821679789+829841359+838423422+845650274+846953290
1538+842663630+838972550+838346406+839063412+839123136+839021491+840433171
1528+843746893+848197666+853214861+858816341+864299586+867812260+868800194
1518+868641632+868242515+868246088+870005201+874421391+881101795+889202493
1508+897362915+901447433+898155406+892058650+888301784+887895968+889938705
1498+892527572+893406267+892434860+892134709+894352726+898198986+900908258
1488+900794106+899032314+897730128+898006989+899696360+901886429+903976895
1478+906181704+909127958+913094559+916641753+916499143+911982456+907127014
1468+905457423+907067354+909858300+911996621+913931588+917139389+921455975
1458+923994306+921627937+916779386+914037763+913895536+914804986+915661604
1448+915732749+914353101+911952913+910212751+910377758+912186002+914528891
1438+916302360+916544000+915384870+914483843+915094928+916901960+918518335
1428+918956311+918620236+918485602+919153349+920823897+923117972+924527164
1418+923515558+921019914+919194441+918530586+918155206+917456194+916615209
1408+915773905+914263834+911305393+907612973+905105269+904895725+906801723
1398+910010162+913179742+914627282+913638774+911367159+909437425+908272106
1388+906928827+904193713+900714155+899117369+900972130+905070749+909036904
1378+911752238+913591493+914929475+915454740+915170540+915206719+916663958
1368+919357214+922593729+926343703+930114096+931776221+930081044+927269744
1358+926526895+928369468+930530122+930758809+929496566+928976087+930119903
1348+931965347+933825723+935853721+937633315+938641476+939550607+941046769
1338+942360695+942613182+942401468+942801989+943865279+944798275+945330430
1328+946416245+948901169+951865416+953466860+953288582+952646167+952740219
1318+953518927+953877909+952576553+949555835+946435897+945144686+946128855
1308+948213833+949914115+950754079+951435098+952630470+953755590+953472348
1298+951172402+947592602+944391756+943011342+943409693+943819083+942310606
1288+938907299+935467238+933383855+932251333+930806984+928653284+926434119
1278+924576232+922855340+920969442+918969392+917327430+916666255+916934502
1268+916906810+915384041+912786560+910348917+908141364+905256621+901442201
1258+897437953+894369252+893403970+894860060+897244552+898412423+897952625
1248+897174044+896907966+896799621+896493089+896327126+896840330+898128989
1238+899621258+900451523+900419237+900400413+901361101+903156648+904722232
1228+905422074+905774739+906667408+908279635+910157877+911921647+913381566
1218+914277042+914372052+913794337+913063548+912974154+914436561+917833616
1208+922360065+926395388+928625847+928703948+927266170+925602131+924846330
1198+925410900+927474247+931311829+936264642+940320127+942098829+942427757
1188+942745392+943226437+943644760+944932079+948335451+952957739+955763552
1178+955191964+953380401+953170346+954783786+956929828+959176304+961893360
1168+965297816+969341306+973179590+974491156+971786287+967273492+964913886
1158+966345346+970086196+973858057+976673952+978614406+979540637+978988063
1148+977392106+976608676+978283499+981818059+984762781+985733806+986207641
1138+988182232+991237023+993485029+993919368+992725272+990895014+990261915
1128+992185396+995530128+997820758+998693327+999745260+1001012033+1001194395
1118+1001143094+1003084952+1006950801+1010404325+1012362709+1013590559
1110+1014172995+1013739805+1013236491+1013966067+1015563555+1016833518
1101+1017795674+1019315954+1021384917+1022986425+1023153792+1022147737
1093+1021805920+1023848529+1028000811+1031832651+1032501227+1030446239
1084+1030193752+1034913539+1041919872+1045650768+1044282605+1040135109
1075+1035307551+1031116665+1029983761+1033863201+1040875150+1045056272
1067+1041943417+1035164111+1032248932+1035888519+1042578558+1047487279
1058+1048959832+1048364124+1048028623+1049259855+1050863341+1050620298
1050+1048546295+1046768933+1045550016+1042345150+1036713233+1032632862
1041+1033956424+1040363157+1047818951+1051476022+1049402210+1045073500
1033+1044091054+1047396162+1050761696+1050061343+1045830131+1042392942
1024+1043128771+1047786154+1053021634+1055206790+1053593414+1050414135
1015+1047589563+1044760715+1041411070+1039083367+1039559883+1042236422
1007+1044496871+1044368362+1042034789+1039062758+1037241496+1037694275
998+1040298903+1043370411+1044719687+1044154543+1043348461+1042503520
990+1039459194+1033100253+1026159897+1023098407+1025662836+1030665482
981+1032957197+1031361559+1028848177+1027203981+1025208717+1021927090
973+1018969096+1017917355+1017355848+1014229146+1007545105+999467442+993263553
963+990840331+991296874+991609021+989795289+986806157+984490769+983324302
953+982644942+981111517+977195962+971231224+965903734+963148201+961958444
943+960314121+958173311+957271837+958578490+961052057+962907263+963301020
933+962447019+961030872+959588628+957845914+955167461+952048353+950204631
923+950603301+952282655+953514908+953626316+953380656+953811741+954912103
913+955634980+955282188+954689415+955707593+959038734+962435215+962087718
903+956940995+950247255+945758260+944319717+944520520+945165360+946056816
893+946763932+946432005+945294698+944620124+944759416+944896793+944837070
883+945121077+945382497+944807463+943996276+944059765+944623569+944886074
873+945377520+946951080+949091635+950541344+951156641+951915761+952956718
863+952800900+950504527+947838836+947219328+948343490+949040972+948565350
853+948056994+948327730+948739289+948304249+947239491+946968500+948101149
843+949123922+948440031+946809172+945856652+945732673+945956000+946786457
833+948491588+950964580+954302358+957934097+960033176+959596285+957488464
823+954535319+951237294+949825231+953282903+961127605+968814702+972573482
813+973065821+972724132+971774163+969357768+966474174+964980692+964458363
803+962657967+958927135+955381217+954385052+955960782+958111737+958678923
793+956629869+952966098+950600430+951800460+955871068+960126272+962665752
783+963496910+963641115+964086939+964872985+965132427+964616989+964337448
773+965160056+966529495+967298441+967623094+968447170+969449907+969672595
763+969331352+969028330+968214591+966279114+964044635+962809127+963427296
753+966588964+971648462+975729790+976831301+976879093+978778136+981750423
743+982468578+980381558+979135522+981851048+987153079+990394188+988877672
733+984927277+982036792+980276275+977473397+973669378+972013570+974458933
723+978483472+979514923+976868948+974495431+975741275+980573364+986977289
713+992947259+996866132+997884693+997350879+997969366+999460742+997951819
703+991822968+984387273+979992076+980767084+985275220+988582434+986009965
693+979079755+975145695+979246101+987331421+990318065+985126485+976715746
683+970550588+968417116+969046068+970683819+972740849+975172175+976813244
673+974853456+966581690+953209971+943383468+946446298+957431994+966421341
663+970540507+970263135+967254414+964420079+963319588+963363360+964520831
653+967287530+969761096+968493813+963031178+957023625+954303634+955777271
643+960832750+969661365+982183549+996000964+1007889539+1015378130+1014709618
633+1003268207+986918522+976663104+977652505+985736231+994329013+1000625423
623+1005379219+1007609615+1003446039+994838007+990695487+997753313+1016081545
613+1038310785+1048026007+1034004982+1008678648+991953263+992912994+1011025620
603+1038827435+1061936773+1073741823
##END=
