##TITLE=<SNM>
##JCAMP-DX=4.24
##DATA TYPE=INFRARED SPECTRUM
##DATE=3/5/2025
##SAMPLING PROCEDURE=Instrument type and / or accessory
##ORIGIN=Admin
##XUNITS=1/CM
##YUNITS=ABSORBANCE
##RESOLUTION=4
##FIRSTX=4497.3318
##LASTX=599.83466
##DELTAX=-1.4281778
##MAXY=1.8367234
##MINY=0.30339837
##XFACTOR=1
##YFACTOR=1.710582e-09
##NPOINTS=2730
##FIRSTY=0.3267515
##XYDATA=(X++(Y..Y))
4497+191017734+191139569+191157131+190368335+189042234+188144967+188198140
4487+188967963+189831413+190085413+189412197+188297151+187612296+187757738
4477+188356352+188772240+188934303+189394548+190291694+190770477+189978162
4467+188146935+186358202+185766906+186916152+189020474+190354780+190236813
4457+189842929+190253574+190813301+190287077+188704659+187147051+186317434
4447+186008902+185679167+185092139+184443088+184087533+184230047+184834759
4437+185685108+186413483+186579466+185950781+184794339+183831181+183763390
4427+184592484+185412344+185220698+184009341+182638587+181679000+180900710
4417+179993860+179263272+179178426+179529834+179670641+179450650+179289458
4407+179487777+179956211+180490745+180979058+181428032+181857091+182096962
4397+181941503+181597046+181503871+181659139+181687293+181539413+181526851
4387+181746111+181938349+181798465+181215863+180324676+179411798+178745237
4377+178440259+178382225+178271228+177923513+177547051+177525587+177943270
4367+178513816+178954148+179222591+179380281+179368329+179004516+178262360
4357+177530413+177365580+177878354+178601085+179072742+179259753+179278482
4347+179065651+178562337+178027193+177906212+178362364+179064710+179526315
4337+179553912+179298431+178979410+178667133+178298058+177895010+177705577
4327+177956058+178530751+179082133+179354879+179310034+179119695+179112012
4317+179523248+180149337+180321783+179544155+178268910+177634337+178245460
4307+179587537+180742533+181253686+181285343+181420610+182207420+183470608
4297+184234264+183763843+182554472+181863154+182294914+183201172+183587634
4287+183235389+182606565+182064713+181691579+181524778+181554797+181774701
4277+182352217+183316717+184184383+184477079+184395908+184440753+184718570
4267+185059577+185396716+185688767+185798127+185620297+185177108+184584139
4257+183985752+183541987+183423864+183666000+184049413+184407790+184961855
4247+185907243+186870349+187337842+187362216+187292405+187154681+186803221
4237+186338027+186011881+185938446+186053799+186236229+186359683+186285203
4227+186015523+185853024+186096327+186624224+187124976+187546179+187901054
4217+187886837+187218900+186210287+185640036+186003379+186986626+187751605
4207+187858143+187820127+188384977+189369199+189761184+189034586+187817218
4197+187109192+187282683+187946840+188405971+188266853+187880374+187945446
4187+188522073+188919424+188746368+188434961+188466182+188742361+188977632
4177+189207014+189710014+190676483+192009170+193296610+193996535+193858306
4167+193289606+193082611+193448428+193605804+192883370+191855574+191583577
4157+192132833+192720854+192929748+192911838+192748312+192415894+192220032
4147+192581267+193338023+193748162+193385081+192636164+192067465+191781425
4137+191715638+192036557+192836016+193838741+194689333+195266013+195656325
4127+195999702+196256733+196123505+195436316+194601107+194253287+194544467
4117+195093322+195592855+196132077+196874668+197720035+198405865+198664830
4107+198226589+197105967+195943793+195532905+195952888+196584656+196873954
4097+196745029+196465139+196366947+196521257+196610337+196367975+196090054
4087+196372818+197379881+198632303+199450891+199381149+198373111+196944602
4077+196042874+196290968+197358277+198359870+198813303+198937193+199125372
4067+199450873+199722052+199822614+199819634+199768570+199594817+199278793
4057+199024375+199056676+199301059+199481136+199562969+199800853+200232822
4047+200569387+200751938+201076777+201584116+201930611+202033124+202210030
4037+202512412+202486052+201851200+201064007+200888965+201479320+202130985
4027+202056714+201273928+200563916+200627996+201489861+202676130+203717218
4017+204374964+204547044+204217727+203581394+203023653+202810421+202884118
4007+203092053+203472574+204116503+204862057+205350736+205314027+204713967
3997+203805759+203108691+203073080+203707810+204633964+205427812+205880793
3987+206092439+206311996+206553521+206473779+205787287+204706301+203896215
3977+203991359+205012272+206210598+206760533+206630842+206374089+206192025
3967+205852081+205424206+205343471+205706465+206156188+206512770+206999899
3957+207739755+208385497+208500188+208225490+208205576+208679899+209070996
3947+208798772+208052591+207428837+207348049+207906870+208733002+209142619
3937+208862067+208351349+208160731+208248801+208169617+207760767+207338868
3927+207185708+207149679+206925035+206620667+206677133+207194802+207756167
3917+207956280+207831676+207737839+208058061+208891685+209768882+210016227
3907+209582829+209041517+208790862+208757132+208855900+209164693+209668825
3897+210310420+211139218+212062444+212553545+211970716+210522798+209385922
3887+209414773+210423874+211610910+212416814+212816274+212921766+212918003
3878+213074594+213361087+213416490+213097644+212774721+212901329+213548900
3868+214419773+215050565+215030582+214486953+214086605+214157357+214426602
3858+214680306+215020041+215440878+215709391+216080748+216815064+217626579
3848+218277616+218625558+218503741+217940111+217470144+217730991+218601654
3838+219212411+219253301+219469007+220412775+221715303+222634401+222871379
3828+222615044+222216753+222050021+222295989+222681563+222791114+222797055
3818+223220923+224173768+225213951+225936995+226380097+226837067+227540250
3808+228414241+229225616+229997721+230781204+231225943+231132891+231081669
3798+231540678+232291354+233061037+234011983+235317211+236751452+237971085
3788+239038917+240436676+242436045+244718474+246873059+248927204+251139683
3778+253645066+256533618+259991532+264156932+268846901+273504273+277701957
3768+281685694+285953886+290551534+295228646+300074806+305596604+312138479
3758+319442094+327083353+334938071+342945408+350970551+359012175+367082581
3748+375303969+384425046+394984127+405657325+414914365+423588629+432653955
3738+441907198+451259190+461351214+472394775+483368542+492644608+499226451
3728+503416730+506225488+508497638+510755816+513364043+516744219+521499679
3718+527678020+533993962+538896815+542427694+546430613+552907538+561900561
3708+571541241+580391889+588550940+596302622+602759476+607008155+609718721
3698+612392073+615846781+619611886+622786652+625456032+628034049+629964304
3688+631327496+633429605+636331328+638836102+640081311+639940050+639061129
3678+638737213+639497453+640273305+640518472+641349586+643351133+645184798
3668+645575268+645908104+648717489+654202108+659536337+662364330+663340677
3658+664162035+665817435+668582986+671376413+672398267+671636633+671795942
3648+674848474+679120080+682688452+685639376+688221226+689512430+688898955
3638+687967000+689361343+694003558+700232668+705439923+707953059+707889224
3628+706621854+704795645+702661131+701527077+702639318+705555189+708765288
3618+711612236+714328865+716891271+718909892+719980947+719978159+718973658
3608+717040406+714890700+714275343+716687569+721899215+728291746+734333601
3598+738729394+739977181+738227004+736350758+736532020+737808101+738238293
3588+737989015+738869260+741312080+744157425+745657697+744723511+743045184
3578+743263102+744395275+743028598+738910656+735891088+737140547+741711679
3568+745705434+746584774+745554696+744679746+744313878+744325167+745629682
3558+747975703+748929819+747292190+744464964+742569624+742869566+745333084
3548+748243379+748860687+746361837+743247770+742788936+745681321+749288440
3538+750593303+749470748+748135988+747909080+748076055+748030269+748436210
3528+749354854+748754969+745231059+741121689+739915576+741611396+743540326
3518+745235867+748797897+754211642+758462202+759670824+758552171+755650587
3508+750925582+745898194+743265262+744273527+747262223+749292761+749391441
3498+748982156+749264746+749920035+750148964+749650894+748678659+748150135
3488+748856367+750369182+752167097+754804350+758166302+760514135+760716443
3478+759147248+756246431+752501745+748777478+745274336+742166192+741016597
3468+742815348+745612886+746705266+746049908+745539434+746143013+747077547
3458+747253861+747015244+748031036+751136322+754955297+757265079+756972105
3448+754587616+752358185+753206722+757377419+761226359+761209216+757750396
3438+753444781+749347049+745629403+743574892+744195545+746936705+750778328
3428+754627199+756820810+756398005+754569566+753152504+752580076+752522652
3418+752535405+751547419+749122092+746924648+746755094+747887406+748479347
3408+748421784+748687858+749099791+748557121+746858513+744902264+743775806
3398+744400920+747035942+750782719+754413323+757709140+760842441+762836461
3388+762172392+758690923+753947868+749463151+745609541+742802038+742313655
3378+744517301+747263199+747871796+746646588+746249220+747720431+749774384
3368+751892591+755093769+758885356+760592187+759220422+757205216+757392750
3358+760524658+764947420+767235948+765314753+761313053+758684442+758432166
3348+759339591+759885816+759227740+757259644+754504337+751673348+749676401
3338+749465591+751015342+753629527+757208283+761503096+764590611+764514092
3328+762240827+760506538+760205062+760164225+759979130+760884742+763269441
3318+764809714+763391676+760468070+758454606+757308078+755952690+754965680
3308+755731427+757884966+759323771+758266166+754656330+750345209+747968455
3298+749161188+753840965+760111191+764730547+765289247+762336719+758838246
3288+757284383+757977095+759647200+760986349+761667353+761850845+761371940
3278+760108752+758801589+758526456+759181814+759576535+758972677+757735203
3268+757025348+758083789+760669054+762594639+762694086+762657848+763890721
3258+765327506+765562220+765097949+764670266+762797366+758100794+752911309
3248+751328804+754749434+761247197+767503276+769651728+765285692+757091553
3238+751232702+750802441+753531892+755805785+756418354+755838818+754563782
3228+753332372+753094522+754010170+755088752+755030213+753632106+752095247
3218+751644984+752381601+753601094+754306838+753478510+751060012+748346241
3208+746649445+746502610+748306100+752003815+756006212+758331744+758809743
3198+758671201+758386799+757334141+755169313+752552409+750598669+749881218
3188+750278307+751446579+752752348+753130900+752042841+750000177+747704820
3178+745572676+743999091+743321990+743513844+744203350+744965821+745690590
3168+746433966+746746871+745719441+743046438+739682744+737083681+736028724
3158+736473969+738018075+739856758+740616581+739323704+736673280+734392837
3148+733505901+733728489+734318548+735035721+735958268+736907646+737299648
3138+736446720+734059443+730229249+725703137+722278395+721582895+723216970
3128+724973141+725117259+723875325+722664055+722543214+723227424+723160452
3118+721231940+718536845+717377285+718515660+720307093+720767670+719803170
3108+718632250+717687263+716306787+714475143+713609880+714592012+715811784
3098+714740938+711364769+708252653+707363627+708390778+709886171+710760842
3088+710683068+709891955+708829193+707879049+707521055+708174880+709489012
3078+710232945+709438766+707454780+705485360+704101818+702721482+700940781
3068+699572710+699554939+700585017+701680533+702491856+703096202+702951666
3058+701338776+698661243+696512373+696289019+697927136+700049873+701177376
3048+700770669+699263777+697394710+695485222+693280043+690708159+688643962
3038+688076969+688506465+688315098+686905213+685254901+684408454+684584071
3028+685395046+685956254+685360898+683758601+682298958+681471189+680306123
3018+678135788+676184488+676054447+677298193+677880795+676927445+675640632
3008+675361875+675945035+676156124+674970082+672401473+669538009+667766367
2998+667518064+667847485+667524684+666253342+664517521+662776612+661467080
2988+661105114+661435023+661408471+660769002+660493869+661102674+661756569
2978+661526316+660589273+659711397+659124892+658417266+657226555+655697780
2968+654367341+653655256+653414410+653017250+652006616+650505369+648845718
2958+647261331+646080097+645479166+645026325+644264133+643500477+643293221
2948+643594349+643954225+643932272+643118022+641576425+640163962+639562961
2938+639335147+638725575+637936970+637698493+637986938+637996694+637154777
2928+635561052+633672820+631930657+630471920+629212425+628236496+627675428
2918+627202307+626245194+624914964+624071096+624191868+624756003+624829386
2908+623835616+621833581+619512788+617843241+617267328+617262241+617054637
2898+616604722+616362064+616281852+615737021+614320237+612315972+610478265
2888+609434249+609149081+609024894+608474767+607182518+605107588+602704004
2878+600754236+599504707+598398319+597097080+596267917+596708283+597991751
2868+598642928+597781429+596121778+595067588+595092397+595269547+594473417
2858+592828819+591528973+591348966+591866548+592077986+591326665+589703950
2848+587943876+586828708+586458867+586268615+585714654+584651614+583168660
2838+581420364+579619697+577905897+576255271+574790471+573936184+573836006
2828+573899040+573519059+572931160+572737633+572942171+572949976+572189073
2818+570492138+568223368+566123594+564734268+563983505+563458675+562880671
2808+562157471+561254193+560294745+559581997+559208776+558837123+558090925
2798+556926103+555474718+553825102+552120293+550702289+549965987+549945115
2788+550073204+549640120+548585651+547437345+546443506+545300392+543781443
2778+542224375+541219107+540935611+540910104+540540437+539638797+538420105
2768+537189183+536136804+535301857+534654582+534046857+533030717+531147328
2758+528623529+526304652+524783369+524023616+523674508+523333971+522699310
2748+521710802+520507512+519339136+518445788+517758756+516919209+515830104
2738+514807205+513995150+513111698+511904192+510526016+509372518+508596353
2728+507814230+506480655+504617512+502908277+501970746+501722408+501515675
2718+500841744+499838497+499008567+498520568+497969848+496877990+495370158
2708+494131569+493504784+492987863+492037127+490892340+490042096+489429074
2698+488747791+487983020+487183545+486175001+484877002+483558306+482463104
2688+481447347+480306742+479266002+478769152+478892955+479244991+479309837
2678+478749186+477601264+476289258+475230050+474509462+474029164+473630053
2668+472981977+471820186+470413229+469403082+469068086+468990382+468576288
2658+467754442+466935453+466343896+465763627+465007045+464186140+463359416
2648+462334216+461024162+459716233+458799086+458347186+458099162+457803923
2638+457449727+457124034+456773288+456185284+455209773+454018121+453092612
2628+452771379+452809429+452624857+452007967+451331841+450999040+450879767
2618+450438389+449398311+448086584+446994274+446207237+445493514+444765540
2608+444186631+443892751+443752780+443415658+442698206+441896535+441412717
2598+441133228+440606690+439764809+439016136+438697691+438751491+438813062
2588+438504094+437800511+437049190+436557706+436368570+436343028+436176889
2578+435541845+434513788+433599081+433151850+433053066+433024911+432951842
2568+432842569+432714132+432592175+432515273+432480533+432426663+432298783
2558+432097799+431883296+431758796+431758656+431727993+431480352+431027371
2548+430459891+429791850+429110985+428620581+428397436+428323426+428249625
2538+428094950+427913374+427871874+428007559+428146101+428153070+428041219
2528+427890237+427872222+428097702+428309523+428150143+427719429+427385617
2518+427204459+426990304+426750329+426667747+426811551+427062363+427212996
2508+427111250+426817266+426551471+426360592+425991865+425292951+424536160
2498+424087953+423954080+423904740+423816339+423638074+423272100+422764553
2488+422411193+422408232+422522940+422367638+421945216+421629070+421619070
2478+421725416+421673811+421328256+420679832+419910323+419370544+419265766
2468+419473196+419759898+419982660+420032767+419842829+419533129+419345944
2458+419351554+419376572+419274861+419093947+418917703+418735849+418528976
2448+418343881+418249034+418253599+418233284+417979511+417428129+416776743
2438+416270171+415957684+415750254+415603418+415509582+415376649+415091760
2428+414718538+414443440+414287440+414073494+413711179+413332557+413125685
2418+413142340+413268548+413376740+413485700+413643232+413724316+413615879
2408+413505178+413650341+413963559+414124437+414015269+413822578+413747627
2398+413765154+413702921+413471727+413103628+412644828+412199827+411944033
2388+411827268+411396135+410139463+407852573+404508566+400018344+394326155
2378+387616398+380305257+372867596+365700189+359077962+353050428+347319841
2368+341586954+336267708+332361726+330294881+329583597+329972811+332042270
2358+336281576+342387893+350043822+359726421+371530571+383312526+391466454
2348+393644559+390497215+385324491+381249339+378461069+375527811+371972924
2338+368192070+364485225+360991073+357916938+355618863+354437768+354299923
2328+354713389+355305261+356079056+357206908+358871821+361209200+364162947
2318+367389249+370382161+372829650+374927368+377161050+379699030+382243805
2308+384480519+386354639+387957144+389426334+390856533+392113694+392922020
2298+393262836+393492671+394003564+394908654+396022219+397005431+397610857
2288+397913308+398211056+398639053+399020428+399119526+398876031+398413469
2278+397968224+397725182+397616989+397445867+397229099+397166239+397273665
2268+397337919+397228541+397023027+396821660+396613359+396380422+396238082
2258+396332720+396601581+396805388+396846888+396879851+397044561+397248542
2248+397285930+397107351+396882220+396769672+396754061+396802739+397002016
2238+397367780+397709955+397852539+397830169+397792850+397868150+398118962
2228+398511870+398937811+399304272+399575085+399753455+399884227+400034024
2218+400248040+400538261+400854163+401050861+401003472+400804021+400741754
2208+401034867+401624369+402244046+402676956+402943309+403234506+403679158
2198+404203814+404614180+404794362+404850845+405059390+405597461+406330628
2188+406970480+407425099+407838949+408322279+408842335+409357339+409864921
2178+410333408+410723180+411040406+411323240+411687611+412368057+413515039
2168+414962974+416399793+417736260+419111718+420618471+422233625+423958296
2158+425849246+427983481+430467627+433316247+436275500+439012547+441490142
2148+443836372+445947018+447683640+449312001+451188978+453179270+454934883
2138+456570178+458529876+460944437+463568066+466246923+469064601+472024097
2128+474876377+477375470+479567164+481685859+483760161+485386187+485980881
2118+485318589+483744237+481775236+479627515+477210585+474426253+471375708
2108+468306834+465364691+462457218+459464759+456452752+453529424+450679967
2098+447874206+445108655+442272439+439258899+436278740+433793480+432031351
2088+430728195+429451382+428059861+426704508+425492507+424382425+423365171
2078+422525484+421903228+421410420+420901584+420317726+419779760+419465740
2068+419355178+419207994+418857491+418418727+418129935+418059793+418058817
2058+417960450+417731730+417425655+417111007+416857303+416671512+416479030
2048+416263063+416117691+416083160+416075564+416050615+416106819+416382754
2038+416930477+417670647+418419808+419012968+419434414+419799099+420216433
2028+420687010+421087306+421231423+420981308+420331420+419404796+418388169
2018+417465587+416747020+416182676+415573661+414768297+413852614+413062825
2008+412537611+412236693+412013199+411669631+411070581+410288842+409533235
1998+408945685+408576087+408424896+408362176+408156383+407712079+407149965
1988+406628968+406253342+406095879+406134801+406202574+406114068+405844545
1978+405537563+405324175+405148070+404818370+404259008+403639017+403205863
1968+403056728+403122585+403292383+403450821+403464132+403280954+403018434
1958+402831527+402743161+402676399+402565941+402384366+402128118+401804899
1948+401433629+401071802+400796181+400634363+400576207+400610494+400669591
1938+400657952+400606104+400636523+400750883+400834441+400843570+400801303
1928+400697780+400550213+400440173+400404214+400409754+400452230+400538749
1918+400610529+400609030+400560771+400500280+400404214+400251036+400065140
1908+399888478+399761678+399712094+399731816+399797498+399900813+400024442
1898+400128244+400183647+400180894+400118174+400025348+399967924+399982314
1888+400025139+400020644+399949421+399839207+399674323+399419190+399185278
1878+399209599+399543864+399927225+400080855+399959422+399659932+399331416
1868+399232736+399558743+400141415+400585719+400664294+400459338+400183682
1858+400023013+400124446+400513800+400989011+401255956+401218115+401052812
1848+400970683+400969220+400941309+400994865+401352581+401912813+402384052
1838+402707898+403005716+403241928+403259071+403094465+403012336+403240604
1828+403743273+404306746+404786104+405158907+405422193+405580492+405747433
1818+406112222+406713327+407336314+407746401+407959929+408197082+408612988
1808+409181200+409816557+410456653+411042880+411550288+412041145+412655456
1798+413509708+414552957+415579097+416460179+417334466+418433641+419736378
1788+421045074+422272268+423506849+424902970+426511504+428235095+429911959
1778+431386341+432573742+433532842+434458211+435573380+436963612+438510192
1768+440052382+441537043+442994908+444437721+445862241+447347564+449000873
1758+450788125+452556910+454210010+455768577+457270660+458734066+460217682
1748+461760290+463303734+464833519+466443551+468146897+469812089+471418219
1738+473131043+475002828+476902210+478781348+480796135+483023371+485337649
1728+487591366+489769959+491990923+494352136+496845132+499381231+501805548
1718+503993792+506107399+508465093+511075690+513778486+516526719+519322062
1708+522134827+524935048+527669866+530299697+532981725+536101402+539876542
1698+543951625+547937958+551797980+555574792+559346343+563279085+567470166
1688+571879827+576561625+581680619+586949479+591711838+596021077+600281882
1678+604568263+608866978+613350092+618096352+622964151+628016139+633452811
1668+638950392+643867183+648220395+652693474+657878289+663537062+668891780
1658+673556922+677731381+681963614+686971139+692724550+698023934+702532763
1648+706723530+710893739+715190434+719783935+724471030+728423390+730815615
1638+731592790+731486723+731837121+733744448+736709101+739342102+740622713
1628+740463264+739585109+738508688+737105215+735432532+734110316+733188327
1618+731575089+728361505+724565877+721664989+719476815+717311428+715042135
1608+712599037+709589782+706059670+702947275+701128036+700288210+699375559
1598+698025886+696796287+696112496+695705162+695114196+694242453+693279346
1588+692369901+691508611+690674151+689946037+689467062+689324338+689443228
1578+689640728+689924015+690675545+692131563+694059240+696288392+698933101
1568+701981591+705102836+708186030+711569516+715607315+720457692+726285043
1558+732912357+739826722+747276649+755627868+764469561+773085390+781030251
1548+787872836+793364842+798035280+802796663+807777637+811757664+813524567
1538+814199438+815588904+817951859+820753021+823335568+825211186+826401201
1528+827472396+829258951+832163253+835770999+839375679+842569053+845423597
1518+848123709+850706744+853469716+856955785+861128154+864995283+867313359
1508+867771148+867885578+869758827+872847597+875332160+876750686+877745432
1498+878972591+880407285+881582386+882261160+882620548+883142590+884332326
1488+886155468+888131230+890048314+892055017+894245004+896387881+897875608
1478+898047462+897001774+895858939+895800470+897102266+899326540+901838979
1468+903868402+904848373+905168247+905971625+907568835+909022763+909092801
1458+906958635+903862618+902980630+904908097+907475381+909021439+909832204
1448+911340978+913971750+916363208+917008043+915785484+913802823+912296837
1438+911870687+912584235+914147646+915840190+916763573+916565447+916037202
1428+916292125+917141917+917542700+917367849+917394331+917510573+916437427
1418+914144091+912841528+913865683+916223202+918129066+918502043+917520121
1408+916181180+915227063+914445637+913140356+911133722+909035377+907828009
1398+908241197+909906005+911472551+911808524+910569796+907605631+902743128
1388+896783438+892118783+891038041+893505392+897608698+901675140+905260237
1378+908366847+910821444+912806057+914884331+917042609+918772298+920085802
1368+921310871+922319693+923000070+924038162+926225013+929245487+932026021
1358+933822751+934378175+933907284+933387960+933968681+935666382+937231883
1348+937561374+936964067+936814583+938099375+940554391+943116797+944743067
1338+944750733+943214502+941418120+941111766+942966826+945982073+948537859
1328+949920913+950628678+951392682+952337321+953265931+954276705+955455500
1318+956280900+956176854+955499125+955095763+954962448+954212730+952633849
1308+951427039+951856186+953842610+956292886+958226486+959032513+958216381
1298+955962280+953534583+952005809+950980400+949562641+947945709+946792072
1288+945799905+944078510+941452059+938576120+936155810+934323469+932499281
1278+930067124+927264220+924777705+922627302+920366093+918107392+916453177
1268+915510490+914601462+913025299+910717328+908034499+905298775+902813654
1258+900745275+898669788+896028911+893249074+891502312+891132192+891247876
1248+891140485+891119787+891658137+892657900+893825684+895078210+896348576
1238+897367922+897832471+897843342+898087812+899148554+900627361+901622524
1228+902087213+902779227+903880667+904728856+904974511+905180791+906224458
1218+908585393+912044283+915699627+918451379+919780703+920087545+920151868
1208+920441079+921255607+923266144+927037103+931788172+935489511+936891869
1198+936863435+936910964+937312513+937639914+938256804+940044962+943045853
1188+946415192+949191127+950520311+950125591+949298100+950254865+953706437
1178+958106969+961855975+965012204+968155402+970813143+971816251+970873633
1168+969316007+968962195+970205801+971656384+972154105+972486941+974083105
1158+976714434+978968605+980522258+982225256+984242204+985864781+986971726
1148+988176375+989724593+991306471+992604783+993466073+994152583+995598636
1138+998269409+1000837600+1001429959+1000139034+999128679+1000315697+1003650191
1128+1007418362+1010071574+1011467938+1012127199+1012419685+1012978385
1120+1014470642+1016247929+1016829625+1016467938+1017247413+1020251719
1111+1024332795+1027944444+1030943733+1033455545+1034792604+1034783196
1103+1034546949+1035266909+1036495880+1035752017+1031145971+1024547996
1094+1020373048+1020885543+1023900025+1025833346+1026096005+1027084269
1085+1030504620+1035594728+1041047777+1046959313+1053480770+1058916954
1077+1060840728+1058670393+1054490707+1051392041+1050466428+1049858946
1068+1047760322+1045193246+1044868006+1048222153+1054203448+1059929679
1060+1062330546+1060174637+1055045992+1050133174+1048311146+1050499112
1051+1054459695+1056863628+1057135417+1057464977+1059032360+1060785604
1043+1062589512+1066262487+1071487443+1073741823+1070015675+1063571573
1034+1059192785+1058203824+1059779569+1063370589+1067831333+1070926235
1025+1071369808+1069372094+1065518066+1060946795+1058191419+1058952217
1017+1061130008+1060983591+1058686143+1058163613+1060866164+1063538332
1008+1062643590+1058582724+1054672945+1053396445+1054573289+1056343955
1000+1056917150+1055538765+1052921373+1050806790+1050228787+1050425799
991+1050276803+1049688556+1048659941+1046670730+1043769842+1041020808
983+1039510989+1039364920+1038986158+1035915438+1030244191+1025328307
974+1023371989+1022833917+1021474418+1019243454+1016527731+1012543663
965+1007083365+1001596377+997434322+994365902+991242775+987555304+983946722
955+981221242+979407299+977898107+976188837+974457615+973384261+973231641
945+973345235+972693570+970728331+967961456+965496266+963842051+962575308
935+961119290+959777840+959796377+961925177+964904674+966251838+964926138
925+962158775+959535321+957714270+956962949+957447569+958657724+959519989
915+959589400+959585428+960340372+961744681+962993096+963685320+963968677
905+963478412+961485158+958035259+954058995+950706800+948721700+947828004
895+946830053+945053045+943439737+943153105+943640025+943532215+942819084
885+942503252+942516493+941514431+939038021+936513665+935469022+936162291
875+938241263+941368432+944546752+946044933+945208383+943331161+942167350
865+942305265+942953724+942885289+941875352+941089047+941515476+942678591
855+943439528+943247813+942204703+940680668+939302980+938782540+939241026
845+940158764+941086120+941964554+942639913+942559004+941510807+940316053
835+940051582+941085841+943301753+946149467+948151432+948287535+947667161
825+947854974+949070843+950984651+953443917+955748334+956669696+956172672
815+955259324+954348206+953945611+955060152+957504574+959691843+960592299
805+960201899+958860659+957247072+956073992+955510484+955317724+955328107
795+955401142+955458775+956009390+958093658+961967199+965977959+967780473
785+967006225+965287477+963821841+962842776+962906611+964374617+965747357
776+964862930+961836671+958962684+958104878+959225970+960796140+961480141
766+961700220+962528338+963687759+963956829+963120070+962683745+964294683
756+967366449+969134188+967978809+965842344+965976635+968637373+970218484
746+967409796+961968524+958898430+960477381+964503194+967694476+968801840
736+968192894+967020650+966972356+968691731+970784919+971829283+972275225
726+972758032+971836809+967644161+961555127+957790161+958604481+961687467
716+963262166+962662420+962133757+963286209+965736904+968943239+973557439
706+979627099+984283739+984006515+978632145+970433336+961924201+956394006
696+956821549+962063859+966517285+966379927+963493326+960528324+957097101
686+951519238+944140673+937986479+935121899+933840592+931417215+928322731
676+927383877+929363123+930341352+925058344+913981994+907317256+915574395
666+931501121+941079012+941117968+937600609+937355860+940373686+940102734
656+932334466+921161805+913761706+913876624+920016880+926787754+929249878
646+926944904+922162823+916230241+910239260+906908389+907966064+911038805
636+911808942+909293994+906914452+907684310+909671501+908377091+903729023
626+901379309+906061106+914711711+919049940+916503423+913408033+914221237
616+915713355+914215314+911567120+911854588+916841416+923491519+925059877
606+919578395+915851967+924923844+946460072+963930905
##END=
