##TITLE=<SNM>
##JCAMP-DX=4.24
##DATA TYPE=INFRARED SPECTRUM
##DATE=3/5/2025
##SAMPLING PROCEDURE=Instrument type and / or accessory
##ORIGIN=Admin
##XUNITS=1/CM
##YUNITS=ABSORBANCE
##RESOLUTION=4
##FIRSTX=4497.3318
##LASTX=599.83466
##DELTAX=-1.4281778
##MAXY=1.7104334
##MINY=0.1812004
##XFACTOR=1
##YFACTOR=1.5929652e-09
##NPOINTS=2730
##FIRSTY=0.19913322
##XYDATA=(X++(Y..Y))
4497+125007889+124612265+124392223+124065157+123508040+122810158+122152874
4487+121751919+121867202+122718616+124223835+125811615+126697856+126575520
4477+125926000+125490798+125613003+126198324+126953632+127410536+127150036
4467+126305684+125561311+125525129+126219362+127133993+127651757+127501853
4457+126898105+126162385+125341241+124366348+123412017+122836144+122809110
4447+123176671+123627364+123778315+123283797+122261170+121466386+121608965
4437+122517002+123272179+123137785+122168487+121050277+120497818+120663568
4427+121073232+121219478+121074476+120875434+120674194+120352891+119897989
4417+119478324+119333406+119634177+120350926+121169881+121526554+120904938
4407+119426061+118023385+117578698+117917008+118095171+117619427+116936634
4397+116766132+117302548+118136947+118834211+119421581+120020923+120177768
4387+119260742+117514321+115908291+114958889+114469853+114280175+114405420
4377+114556540+114354149+113998515+114109056+114968300+116274720+117405044
4367+117726515+116984275+115613741+114475176+114076951+114163881+114156351
4357+113880239+113750382+114236368+115252710+116190643+116582375+116537521
4347+116380340+116193580+115979225+115915250+116150035+116589204+117039513
4337+117310948+117144777+116375560+115242242+114293570+113941809+114215985
4327+114843840+115384251+115400162+114825983+114203039+114248080+115101319
4317+116225488+116998279+117123075+116639521+115940881+115664133+116152252
4307+116998279+117405221+117089989+116657846+116925558+117944855+118911413
4297+119085984+118586134+118159051+118411741+119334819+120337914+120698225
4287+120202389+119364856+118821845+118680922+118693681+118749292+118851854
4277+118899477+118804586+118662465+118728797+119347129+120639714+122073194
4267+122744388+122353507+121481307+120775680+120375510+120219638+120342760
4257+120728562+121326801+122182631+123131200+123641685+123513718+123335321
4247+123679028+124316705+124697755+124646511+124246080+123630002+123142892
4237+123165642+123615727+123996795+123980566+123676830+123366892+123215613
4227+123258204+123463335+123719935+123906208+124055391+124286247+124526579
4217+124571873+124515064+124742197+125331924+125825693+125802897+125382362
4207+125005475+124995251+125386974+125941079+126319968+126449526+126600159
4197+126913661+127083957+126811464+126322344+126092423+126265919+126632319
4187+126962921+127113011+126963491+126505184+126005568+125987149+126844018
4177+128352445+129743260+130405623+130341209+129904547+129383800+128854147
4167+128280332+127781212+127697200+128190521+128955492+129556088+129851134
4157+129957568+130025967+130112775+130149023+130101456+130136105+130381292
4147+130624253+130544320+130202063+130023170+130218573+130444555+130261098
4137+129782566+129529634+129705019+129991468+130067098+130036182+130291181
4127+131023637+131881665+132251396+131963366+131467866+131255522+131461336
4117+131997144+132637525+133046086+133096440+133021755+133064430+133272517
4107+133651125+134106037+134369933+134416564+134650797+135247006+135675754
4097+135349315+134508882+133999463+134183968+134478967+134177588+133473103
4087+133205100+133729852+134577262+135200010+135610563+136154809+136879930
4077+137373410+137312841+136917469+136631497+136617812+136751823+136836928
4067+136699419+136349464+136068150+136080386+136264910+136426459+136645361
4057+137089720+137639831+137974418+137945953+137673816+137384439+137352484
4047+137825506+138699811+139379339+139298312+138540609+137697323+137255358
4037+137337798+137858125+138644975+139444455+140004014+140194290+140022919
4027+139618362+139234150+139121056+139304486+139639512+140105433+140739275
4017+141263792+141212568+140539120+139706049+139121112+138823400+138684217
4007+138603985+138595744+138877871+139680849+140863688+141961899+142633597
3997+142850226+142711762+142300704+141768282+141445426+141635965+142213250
3987+142688825+142826325+142870693+143087125+143451832+143842152+144152726
3977+144201397+143900991+143540960+143561044+144055412+144715306+145187140
3967+145400513+145578068+145905535+146226745+146251141+146023503+145844657
3957+145797408+145773938+145893712+146507282+147755415+149231308+150191008
3947+150379078+150404157+150728182+150773373+149844598+148392213+147360652
3937+147075419+147546027+148914307+150828498+152029682+151613899+150392595
3927+149908853+150510207+151179502+151203440+151186920+151933622+153117387
3917+153473096+152175656+149883428+148093135+147626138+148181861+149371464
3907+151595761+155301507+159668971+162839387+163756487+162635387+159844309
3897+156260825+153851695+154186908+156651547+158538161+158090069+157090668
3887+157825565+159648916+160555184+160850090+161837647+162205741+160248212
3878+157781281+157571089+159827097+163228808+166782060+169094363+168654671
3868+166646085+165607041+165628313+164757141+162386860+160275096+160371446
3858+163575425+170025271+178326886+182989115+179183427+171344927+165203400
3848+162593760+163265384+165964265+169171424+172273197+175626415+178819561
3838+180038639+178640463+176318506+174233851+171998085+169703238+168579293
3828+169115055+170582809+173008300+177190613+181566898+182405254+180152351
3818+178651501+177963956+175372818+171272580+168725240+169444590+172854327
3808+176489822+178293959+179755801+183168962+186998635+187829021+186326655
3798+185100805+183752861+181134409+178436444+177473414+178377793+180300168
3788+182843019+185865242+188802678+191450559+194525990+198109999+200760536
3778+201712080+202468773+204960623+209961685+217014869+224452871+230472174
3768+235027744+239127833+243313682+248459737+255885467+265304478+274293227
3758+281420179+288571845+298550023+312458732+328823258+343452683+353355876
3748+360943268+369701600+379317203+386611616+391877145+399258778+410930169
3738+426054289+441999310+455259332+463272160+466612600+468344989+471043945
3728+475086373+479308929+482969138+486626242+490551441+493879346+496277054
3718+498953148+503479196+510901203+521213630+532086496+540178948+545430034
3708+550003041+555132557+561674319+569820203+577519960+582220448+584232944
3698+585605901+587853902+592240570+599726711+609412359+617831353+621436895
3688+620739023+618950283+617728941+617309155+617753375+619484192+623771705
3678+630675892+635239544+631837478+624900887+621681343+621853912+621307356
3668+619860125+619956063+621535340+622734307+622708975+622919224+625283106
3658+630010685+635902731+642778630+652233338+664474447+675331260+677702701
3648+670826278+662518638+658264502+658167367+660270300+662618543+664158419
3638+665220475+666843718+669362957+672602857+676980770+682380776+686041996
3628+685254883+682537705+681890384+684897247+691738873+700867151+707875808
3618+709458041+707494898+704771883+702009954+700322952+701361061+704427718
3608+707036834+708600134+710666548+714042872+717565572+719242845+718932131
3598+718821525+720260524+721655146+720799634+718690414+718537751+721348398
3588+724246003+724397244+723394757+723656903+724249071+723053659+720405853
3578+718692135+719065636+720207242+720254163+719222191+719072970+720951100
3568+723187165+723839799+723994184+725322876+726944098+727060242+725649231
3558+724229464+724096558+725287853+726732390+727349553+727199434+727328075
3548+728524161+730426986+731615064+731096458+729632315+728522439+728037809
3538+727777534+727225552+725791267+723665883+721989134+721124268+720590845
3528+720928051+722852728+725132721+726103478+725805785+724490788+721641526
3518+718341310+717282322+719655035+724191598+728607003+730707991+729472543
3508+726405961+724583059+725459075+727345737+727514938+725540870+723931322
3498+725212794+729261433+733625726+735714367+734727370+732028077+730091876
3488+730586983+732902971+734837826+734911613+733476431+731551978+729603055
3478+727624571+725404222+722853626+721028329+721620348+724220709+726215955
3468+726460740+726447045+727064133+727263792+726863201+727623523+730256138
3458+732803217+733266220+732210076+731418398+731095037+730186991+728980803
3448+729333350+732116457+735770268+737439908+735221504+729922749+724740437
3438+722795030+724810931+728648162+730913562+730007537+727630483+726449215
3428+727049914+728096629+728661707+728967258+729520961+730537143+731432317
3418+731378137+730622904+729997958+729332751+727926754+726638023+727040785
3408+728850216+730464179+731176232+731426330+731903253+732953186+734182497
3398+734852793+734610553+733297276+730817175+728076424+726797272+727295148
3388+728248020+729168489+730673417+732217784+732008920+729716130+727319469
3378+726684646+727791004+729483244+730593045+730121211+727856409+725492976
3368+725757068+729723838+735767948+741362750+744644183+744396255+740683998
3358+735624864+731834704+730328653+730513794+731281450+731814648+732270018
3348+733359763+734894252+735719156+735004932+732926320+730249927+727745729
3338+726152570+726151896+727780452+729970943+731604288+732893318+734491790
3328+736285581+737676087+738077127+737275122+735699325+733996757+732753526
3318+732878051+734809988+737025623+737325785+735939096+735026335+735472051
3308+736470647+737158604+737210390+737001825+737457045+738958681+740344847
3298+739875183+737600803+735337872+734020630+733013802+732211572+732623987
3288+734005962+734258979+732551248+731041679+732276230+735948300+738945211
3278+738534368+735111722+731241713+728829711+728369327+729807279+732432485
3268+734575680+735048187+734594388+734806620+735957355+736757040+736011985
3258+733840876+731340645+729766943+729985984+732096327+735410612+738796514
3248+741101128+741674961+740932001+740213512+740737954+742442617+743759860
3238+742770094+738885268+733795377+730507583+730768008+733399052+735581909
3228+735521966+733353402+730189011+727252268+725913922+727221361+730495759
3218+733299596+733452409+730773247+726734411+723190981+721730130+723299492
3208+727440627+731996722+734665257+734804450+733212788+731137618+729988978
3198+730637945+732212321+732735192+731667074+730597535+730871206+731697457
3188+731068770+728112719+724127913+721104586+719681302+719164792+719126177
3178+719878342+721301027+722384486+722342130+721297510+719553933+717174560
3168+714846747+714225918+716220266+719072072+719594120+717001841+713753036
3158+711971518+711402773+711120646+710903550+710426927+708987479+706915752
3148+705889092+706938277+708936591+709923139+709668925+709401765+709382682
3138+708552015+706303378+703585452+702150045+702831416+704617574+705617217
3128+705010307+703480982+701899572+700455859+698959087+697333226+695619508
3118+693865454+692341742+691690604+692240416+693194560+693350141+692624393
3108+691908972+691576481+691167883+690664693+691019635+692623645+693992748
3098+693155346+689967008+685847800+681972478+678903875+677044454+676500405
3088+677100430+678574228+680214682+681106489+681134627+680819871+680223662
3078+679182785+678207387+677940751+678022246+677302484+675203816+672462392
3068+670250424+668900179+668100045+668126237+669668658+672028574+673057703
3058+671788354+669682727+668434781+667962423+667312782+666268238+665270016
3048+664650608+664452146+664364215+663754311+662563764+661662752+661480080
3038+661235445+660260946+658945200+657758544+656573235+655476456+654952537
3028+654742625+654089093+653190251+652874897+652948610+652357714+650951043
3018+649466545+648154915+646916623+646124047+646116040+646531448+646807738
3008+646790601+646674607+646651707+646413433+645198490+642893876+640468554
2998+638739345+637476133+636205737+634982262+634078108+633591457+633263830
2988+632579091+631445867+630508337+630310324+630639896+630990273+631097287
2978+630974707+630870687+630928983+630561843+628692170+625147094+621383837
2968+619383016+619914380+621899374+623471355+623719545+623134037+622403873
2958+621546304+620397552+619162028+617946636+616297987+613906789+611501598
2948+610338440+610751753+611567303+611184747+609212662+606683432+604754040
2938+603677167+602954711+602060959+600953366+600122662+600092391+600834042
2928+601898717+602729458+602526506+600672099+597766225+595205003+593455738
2918+591856106+590100107+588759216+588227777+588078182+587696786+586890703
2908+585659857+584028383+582376740+581367218+581184846+581235808+580819353
2898+579830036+578634624+577524524+576526153+575635656+574940403+574313811
2888+573312633+571787574+570230859+569103922+568327024+567738672+567351851
2878+566862731+565736728+564037192+562385549+561155152+560419040+560265591
2868+560378853+559854074+558259044+556387837+555255399+554844555+554470157
2858+553987023+553912375+554429970+554929755+554723473+553693296+551996454
2848+549775618+547475756+545788156+544942784+544481988+543816632+542661294
2838+541037977+539231314+537702626+536845580+536766330+537160971+537411930
2828+537081497+536263290+535183573+533703190+531632473+529361610+527687442
2818+526968953+526813821+526620148+526074565+525114471+523768267+522239167
2808+520939136+520130434+519617403+519051502+518428989+517947501+517448129
2798+516478868+514904343+513078298+511522257+510625474+510309634+509895909
2788+508832880+507475414+506496237+505796981+504751052+503267863+501897337
2778+500990900+500289249+499354637+498085550+496725203+495577161+494800376
2768+494327270+493935622+493472843+492914276+492205964+491298592+490280352
2758+489244675+488159720+486962250+485602651+484055178+482467745+481102084
2748+479989552+478930264+477871501+476912530+475995467+474989088+473965497
2738+473099396+472356960+471454900+470188508+468716993+467361809+466219231
2728+465209634+464344506+463639188+462896040+461863132+460540464+459133906
2718+457793464+456571412+455536333+454706191+453921772+453008413+452032866
2708+451192957+450488312+449667449+448519183+447185552+446117322+445599278
2698+445354792+444770856+443537466+441996429+440773104+440021725+439229187
2688+437976414+436609481+435774436+435576873+435561718+435250667+434446530
2678+433268180+432036960+431010638+430251289+429699756+429153125+428276697
2668+426989201+425731751+424979998+424636020+424267682+423733586+423135282
2658+422403285+421434585+420449647+419770446+419399040+419094612+418642685
2648+417863654+416620423+415012409+413418091+412233455+411606526+411387447
2638+411243016+410852603+410139127+409360022+408846318+408578559+408162777
2628+407309922+406199373+405263563+404723892+404433308+404099283+403558788
2618+402842731+402084317+401422740+400929616+400575722+400284502+399983703
2608+399587640+399031879+398380966+397792203+397326468+396869564+396254085
2598+395427534+394519862+393719167+393033044+392283199+391464955+390918024
2588+390879185+391048723+390948220+390540894+390096749+389641230+389001691
2578+388285559+387885792+387985135+388294801+388314670+387783904+386906129
2568+386135704+385702672+385408197+384977523+384518486+384398975+384666247
2558+384879377+384673469+384234226+383989067+384021396+384013164+383667576
2548+383031967+382427189+382117971+382086728+382132714+382102181+381984878
2538+381891035+381944916+382120217+382238231+382172227+381926170+381513942
2528+380954439+380383786+380021436+380006881+380257166+380453607+380284817
2518+379753303+379133371+378676130+378474301+378494469+378616337+378739478
2508+378845931+378854836+378571025+377959624+377314361+376949092+376801443
2498+376534507+376020990+375495425+375155151+374899478+374617388+374414810
2488+374359919+374291632+374075584+373849620+373863577+374156031+374475651
2478+374532189+374265253+373802250+373261643+372711981+372209353+371795778
2468+371568916+371702122+372212384+372809229+373147707+373086005+372627530
2458+371888723+371191187+370885188+371029656+371434775+371884420+372110459
2448+371824739+371069057+370290812+369834058+369572398+369190291+368619488
2438+368069415+367756942+367706167+367780665+367861187+367925657+367936770
2428+367764500+367304865+366630229+365973366+365580259+365558744+365774081
2418+365908110+365761658+365481551+365343556+365383593+365421796+365349580
2408+365213905+365134692+365237141+365516237+365771200+365858682+365905416
2398+366051007+366158807+366052317+365856624+365802481+365836942+365729591
2388+365450458+365110707+364579866+363449748+361389845+358385750+354694185
2378+350703617+346754845+342942010+339120008+335236604+331621707+328750332
2368+326741353+325375617+324509666+324073491+323903130+324109786+325324168
2358+328117865+332461840+338064425+344966217+353146039+361429470+367654718
2348+370161722+369029059+366197870+363787927+361984669+359680130+356430278
2338+352602514+348501003+344133942+339673524+335770288+333131500+331878315
2328+331595664+331813621+332168001+332445638+332799083+333663051+335215987
2318+337032415+338407206+339062909+339454706+340244401+341583084+343106646
2308+344459211+345549218+346446825+347292121+348207277+349122806+349771474
2298+349967242+349848030+349796170+350111561+350735384+351317899+351593403
2288+351601598+351518119+351461582+351511497+351695141+351892817+351932630
2278+351807019+351666068+351598006+351512731+351263868+350846664+350417860
2268+350124246+350012031+350098615+350364802+350644273+350706648+350524313
2258+350339508+350392716+350646743+350848572+350832932+350664478+350499281
2248+350438739+350509271+350665077+350818750+350916597+350950273+350931826
2238+350929094+351062862+351392584+351845896+352290190+352640156+352878280
2228+352981964+352909374+352733437+352681577+352897550+353276775+353658396
2218+354012290+354315333+354465415+354480494+354600566+355017808+355627188
2208+356200760+356699721+357220796+357717924+358024223+358135914+358262759
2198+358582191+359095296+359731879+360473642+361306478+362086744+362570214
2188+362677378+362678725+362975071+363668154+364432068+364871011+364976005
2178+365149060+365739470+366626001+367364620+367748411+368071697+368756249
2168+369865638+371147708+372465625+373952106+375702980+377561054+379406892
2158+381489808+384167885+387406811+390841730+394253151+397656153+400998763
2148+404075523+406729054+409009683+411166722+413468380+415973625+418545362
2138+421101608+423751846+426676429+429931407+433389563+436874958+440305199
2128+443653759+446901740+450086936+453202759+456019430+458212689+459610043
2118+460118994+459603607+458063207+455787928+453184986+450530182+447906847
2108+445264279+442498683+439565158+436581231+433779751+431292578+429004503
2098+426626776+423859571+420557671+416847958+413012972+409198566+405332299
2088+401353817+397421621+393855591+390892805+388503815+386489523+384727949
2078+383203301+381848791+380556842+379340738+378333836+377610071+377087349
2068+376632503+376199659+375796972+375377935+374895661+374422443+374095789
2058+373973247+373985782+373966812+373749491+373348451+373010422+372969787
2048+373178501+373368357+373389274+373402669+373680493+374317749+375278591
2038+376623748+378474563+380766791+383217370+385572647+387794755+389941355
2028+391900044+393348211+393997927+393790784+392894150+391644970+390371393
2018+389062046+387364081+385116903+382664378+380449042+378574093+376895772
2008+375293034+373738154+372264581+370926946+369762590+368796211+368007227
1998+367301797+366705400+366461476+366590267+366563850+365908110+364863303
1988+363946053+363269920+362679436+362107136+361546474+361021021+360675097
1978+360606586+360621852+360398208+359891127+359429621+359371437+359698315
1968+359982763+359807649+359204143+358544923+358058048+357693752+357430520
1958+357375030+357476506+357462101+357176531+356759289+356433047+356309233
1948+356463280+357043512+358056776+358973502+358955617+357855956+356492092
1938+355585991+355103643+354759628+354538491+354546685+354733024+354917417
1928+355058069+355441560+356326931+357393926+358102238+358565615+359174359
1918+359524661+358864730+357484177+356463991+356329775+356696802+356874535
1908+356513644+355800356+355144840+354760451+354620772+354694409+355037115
1898+355648142+356273798+356528386+356488387+356814143+357727166+358344029
1888+357815246+356602623+355696485+355371964+355325417+355316810+355316773
1878+355387791+355556469+355793097+356349643+357900970+360705630+363521290
1868+364198059+362188482+359231196+357122238+356294790+356214866+356242218
1858+356127646+356004917+356042521+356194361+356390503+356805275+357827519
1848+359893522+363019036+365933217+366430981+364176731+361467336+360108148
1838+359950733+360037691+360122704+361051703+363564058+366790562+368665624
1828+368582482+367896135+367271713+366109752+364425445+363162981+362783681
1818+362926054+363259892+364009101+365540072+367619321+369271861+369678551
1808+369130947+368714379+369379623+371444241+374347160+376724700+377497033
1798+377231369+377754277+380351607+384382623+387127191+386371209+383622414
1788+381995617+382633920+384641701+386902873+389121090+391155849+392660853
1778+393960771+396303513+400726514+406663386+411408102+412491673+410753185
1768+408424063+406822410+406966392+409426101+413039763+415694304+417143256
1758+418593668+420118203+421435521+423760190+428379258+434122869+437847661
1748+438331767+437466751+437341029+438665231+441112443+443667790+445366392
1738+447075844+451189627+458168686+463818342+463765771+460428362+457699285
1728+456625517+457253419+459393284+462385966+466227725+472229516+481163186
1718+490687341+495792199+494901403+491730838+489716322+490081553+493023236
1708+498204126+504322024+509692284+514604255+521134418+529420804+536036054
1698+538940170+539586630+538505379+536582872+536617109+539972890+545633510
1688+552871497+562921442+575601419+584668857+585113375+582199906+581874486
1678+585618585+592420960+599850225+605982529+611730630+618441968+624316278
1668+626753162+627733049+631191803+637732068+644265898+648011980+650319587
1658+654622740+663346536+677100206+692089025+698965822+698411296+700086923
1648+705740695+710129758+709177036+706377914+706143007+709170600+714982423
1638+723126923+731024916+733016271+727895922+721941090+719517863+720281253
1628+721954859+723210663+724254684+724474099+722367424+718955928+717178975
1618+717508847+716660145+712012977+705909373+701259435+698106793+695102699
1608+691527838+687816255+684592745+681982356+679911826+678500366+677930498
1598+678110850+678539878+678527157+677692075+676244844+674678251+673242695
1588+671828017+670365669+669096994+668254204+667936007+668649856+671259422
1578+675594230+679083254+678927523+677201233+678102619+682307064+686905665
1568+689364962+690941283+693773931+698617391+706627712+719859110+736763850
1558+747333822+747984735+747730895+751348636+758424719+767401008+776630687
1548+785121298+793581077+803347098+814490454+825818577+834335081+835109846
1538+829680953+825753920+826243789+828768417+830059467+830227995+831630849
1528+835097498+839746163+844695739+849665221+853957523+856741229+858666280
1518+860507068+861456722+861196895+861532979+864647305+871499856+881702912
1508+892137208+895118853+887394102+878044836+873934009+875393513+880484302
1498+885733068+887342690+885435300+884178748+886327256+890892630+894473777
1488+894425882+891347102+887694863+885501903+885408509+886835834+889289518
1478+893174270+898837471+905241312+909671609+909489761+905879504+903074245
1468+903047379+904472534+905072335+904472234+905069566+909339343+917224764
1458+924472368+924094153+916439597+909026608+905277532+904621530+905623643
1448+906492775+905862441+904284025+903383238+903827308+905586450+909121199
1438+914187592+917700564+916875061+914358814+913731324+914460889+913997287
1428+911926158+910002903+909252983+909743151+911908273+915866437+919448780
1418+919364292+916010269+912712223+910855347+909721749+908734303+908107786
1408+907951979+907710113+906590060+904703025+903432779+903951683+905931140
1398+908013868+908955515+907905208+904772921+901109531+898881249+898171515
1388+897109684+894269103+890974799+889672673+890755383+892811096+895118179
1378+898517851+903507539+908400240+910612133+910188269+910042640+911935587
1368+914706572+916828738+918614447+920702414+922338004+922692347+922367040
1358+922265639+922463053+922856834+923772438+925327730+926945510+928230648
1348+929712603+931884085+934270194+936438982+938938241+942078685+944723872
1338+945590385+945157690+944886638+945259540+945602658+945259540+944300831
1328+943214678+942392767+942103306+942608366+944017731+946026223+947949029
1318+949374408+950700182+952490905+954476947+955816640+956227333+956188419
1308+956092107+955814170+955108852+953989996+952660780+951491935+951079969
1298+951522841+951700649+950402639+948123244+946409826+945619570+944682788
1288+942960165+941071109+939619538+938210398+936110831+933255957+930169769
1278+927122569+924023658+921160478+919195689+918159152+917227907+915845857
1268+914290266+912765581+910811643+908093417+904973927+901856158+898635267
1258+895092286+891320461+887623171+884353338+881858793+880397269+880083786
1248+880645197+881143672+880661885+879630811+879589203+881234970+883635971
1238+885677241+887366413+889072198+890312211+890397074+889660026+889123011
1228+889404465+890524667+892337841+894697084+897264817+899380622+900536446
1218+901098680+901964220+903330330+904631558+905795240+907481119+909803543
1208+911786142+912681691+913239659+914868963+917822694+920974363+923262588
1198+924710867+926191399+928701958+932556252+936904530+940406800+942494692
1188+943569320+944232731+944991407+946432875+948855728+951611895+953562839
1178+954488396+955246398+956400576+957792953+959526502+962009896+964836632
1168+967057730+968740391+970800669+973306514+974957295+974486734+972187957
1158+969709428+968788510+970427543+974501027+979598702+983937625+986946809
1148+989169927+991037730+992887423+995226011+997792023+999579004+1000222584
1138+1000094092+999571970+999018790+998726486+998726336+999041166+1000048218
1128+1002176671+1005455859+1009513029+1013709318+1017247958+1019351341
1120+1019598071+1018598352+1017877019+1018045398+1017934642+1016842877
1111+1016493174+1018910414+1023645363+1028574510+1032346036+1034606871
1103+1035270506+1035058275+1035225905+1035777288+1035631884+1035213856
1094+1036591266+1040334954+1043958082+1044398036+1041664320+1038752721
1085+1037826116+1038112284+1038045307+1037840110+1038827630+1041751951
1077+1046130388+1050199382+1052283233+1052991994+1054608052+1057921290
1068+1060756707+1060332169+1057182670+1054792670+1055464986+1058203193
1060+1060185193+1059495440+1055906736+1050827845+1047584803+1049472886
1051+1056404313+1064494482+1069508566+1070004272+1067018512+1062849912
1043+1060239074+1060256436+1061119057+1061052230+1061514559+1064868507
1034+1069966705+1073208774+1073508488+1072755500+1072140657+1071284022
1025+1069941111+1068374818+1066537848+1064171495+1061731580+1060703499
1017+1062460546+1066660652+1071213154+1073741823+1072815443+1068581737
1008+1063051517+1059039846+1057899139+1058931111+1060586458+1061201076
1000+1059424497+1055025331+1049610432+1046148124+1046647197+1049926535
991+1052710540+1053404109+1053026717+1052223141+1050063632+1046159723
983+1041588437+1037630722+1034835566+1032972702+1031445473+1029374943
974+1025790728+1021114150+1017763345+1017225882+1017315159+1014483409
965+1008232979+1000854489+994038382+988171855+983660287+980883840+979020977
955+976416126+972698780+969459629+968102948+968086335+967904486+966865629
945+965339672+963940859+962894444+961958110+960786870+959187949+956802888
935+953320898+949574292+947457439+948159539+950963077+953651518+954061913
925+952044365+950013797+950597733+953543981+955851438+955429145+953334668
915+951571035+950427783+949055013+947307171+945848939+945206257+945404869
905+945939115+945932230+944891951+943237128+941834125+941223024+941278177
895+941543317+941439596+940484179+938657910+936496755+935141870+935683001
885+937753531+939292958+938736187+936746404+934676023+932881633+931684725
875+932118992+934444409+937104189+938067313+936757330+934192141+931675446
865+929812881+928669181+928346268+928870337+929961803+931283311+932637747
855+934108326+935857665+937585976+938663373+938930159+938551270+937219285
845+934666070+931553540+928908951+927404397+927627255+929623699+931842477
835+932292085+931190441+930598273+931286230+931840756+931157514+930317717
825+931195455+933913082+936537091+937618155+938062225+939167835+939821217
815+938275953+935991769+936007709+938493049+941286109+943580096+945732197
805+946880238+946120964+944475420+943316753+942776146+942795304+943520752
795+944272019+943931596+942364928+940495030+939328206+939329328+940300759
785+941892197+944176605+947443071+951317719+954239346+954533522+952401103
776+949822818+947896869+945491378+941440194+936995454+934632320+935305160
766+938019569+941448875+944638486+946377572+945817808+943824283+942292413
756+941977209+941413478+938567509+933998319+931160956+932594118+937019925
746+941326445+944375740+947234880+950600951+953889119+956406338+957918002
736+958324879+957894429+957321568+956594997+954727943+951611371+948819134
726+947819041+948902724+951718310+954657373+954449557+949722016+943859230
716+941298831+942857117+946097915+948518447+949221296+948675750+948037858
706+947659119+946522078+944182667+941293743+938322351+935349462+932882307
696+931181087+929090650+925073591+919204969+913396663+909936001+909619599
686+910525624+909538403+905479212+899587016+893826156+890309293+890524892
676+893495910+895792890+893971335+886877891+877175555+872813058+880012992
666+891354586+897119862+896529714+892534956+886869210+880356933+874258193
656+869480513+866291052+864958019+864837685+864128625+862198709+860442785
646+859587647+858052560+854332520+849833749+847620135+848269177+848878557
636+847174269+845234325+847115449+852756199+857537098+858147451+855577248
626+852280100+849442662+847011054+844368861+841161440+838074353+836308550
616+836263200+837158599+837643379+836869138+835631070+835627553+837702948
606+840288267+840219868+836705399+832846990+832086593
##END=
