##TITLE=<SNM>
##JCAMP-DX=4.24
##DATA TYPE=INFRARED SPECTRUM
##DATE=3/5/2025
##SAMPLING PROCEDURE=Instrument type and / or accessory
##ORIGIN=Admin
##XUNITS=1/CM
##YUNITS=ABSORBANCE
##RESOLUTION=4
##FIRSTX=4497.3318
##LASTX=599.83466
##DELTAX=-1.4281778
##MAXY=2.1597736
##MINY=0.54735458
##XFACTOR=1
##YFACTOR=2.0114459e-09
##NPOINTS=2730
##FIRSTY=0.56690019
##XYDATA=(X++(Y..Y))
4497+281837157+280954635+281303323+282582450+283904781+284440482+283967395
4487+283084695+282593058+282609297+282667999+282526888+282367849+282359078
4477+282361449+282062484+281400311+280816783+280841615+281416490+281910616
4467+281928840+281880806+282448332+283675038+284890810+285333020+284702376
4457+283513925+282840847+283089466+283305222+282543127+281452642+281412016
4447+282518384+283475166+283247882+282030007+280661597+279799758+279629133
4437+279853897+279957760+279671004+279122561+278621501+278491206+278828160
4427+279217712+279220349+279168640+279611709+280145454+279907029+278912732
4417+277828114+276942273+276239681+275884681+276031037+276543002+277172401
4407+277821654+278457454+278820367+278528869+277592919+276463290+275496492
4397+274774135+274410630+274605703+275366079+276363902+277018252+276886979
4387+276124736+275382643+275147033+275264320+275177348+274595687+273809234
4377+273191036+272721920+272316337+272119960+272163787+272254108+272394152
4367+272807321+273529649+274355602+274990632+275078730+274548096+273995179
4357+274133564+274838201+275341869+275411950+275649842+276461630+277363651
4347+277587556+276994457+276141241+275612741+275378791+274849876+273742056
4337+272621465+272153860+272223586+272288541+272277044+272642475+273677753
4327+275114615+276321438+276758254+276338951+275511723+274931129+274861077
4317+274993536+275008886+275003196+275162857+275412098+275602340+275704158
4307+275689105+275609511+275769825+276371517+277074969+277324180+277021037
4297+276522466+276121684+275905009+276017554+276629411+277504377+277967477
4287+277601631+276775293+276176593+276022799+276056225+276128825+276400320
4277+277050818+278022446+278949299+279364809+279187486+278908731+279060214
4267+279554577+279740611+279130503+278039929+277364599+277639650+278508689
4257+279235640+279558785+279821834+280322924+280795537+280755443+280302003
4247+280119140+280475207+280789284+280542740+280100590+280203978+281017752
4237+281983661+282460807+282324141+281894052+281499996+281321458+281475726
4227+281973349+282606126+283008924+282907076+282364886+281777269+281555438
4217+281772350+282210737+282696565+283180468+283589074+283839559+283982300
4207+284172898+284522268+284961484+285240388+285114656+284542626+283762040
4197+283148583+282916322+282962845+283017518+282942932+282860197+282873769
4187+282814444+282574301+282549557+283184409+284101365+284410552+284074310
4177+284156126+285322589+286768074+287136023+286212549+285136021+284936652
4167+285466485+286011994+286409429+286996631+287827829+288529621+288791930
4157+288652034+288352388+287999195+287406126+286534331+285932431+286202059
4147+287102835+287653500+287200000+286141134+285480739+285714985+286299669
4137+286422437+286126140+286123117+286619228+287082210+287206668+287355365
4127+287820628+288256289+288139091+287429862+286598900+286230210+286641334
4117+287660256+288776936+289611098+290104364+290249890+289963075+289333054
4107+288748607+288593243+288797738+288848855+288426025+287852454+287670035
4097+288033954+288791041+289787679+290803874+291496480+291621116+291193930
4087+290532083+290129967+290121729+290000412+289366628+288686527+288795368
4077+289952022+291743499+293545584+294738894+294862433+294058705+293162285
4067+292882344+293078335+293243478+293336970+293512632+293474110+292858164
4057+291961122+291453009+291551419+291919043+292266013+292665107+293138134
4047+293334273+293034034+292626910+292638111+293087492+293582210+293718461
4037+293397865+293132148+293690814+295062128+296252772+296380340+295470556
4027+294133498+293053947+292786986+293446048+294484231+295185312+295467326
4017+295836046+296439310+296710627+296186928+295171651+294348187+294122119
4007+294450805+295039222+295608704+296046054+296329757+296412285+296201388
3997+295658131+295050245+294944338+295556224+296374710+296869547+297165697
3987+297577266+298003622+298241247+298430363+298808328+299319582+299760991
3977+300112435+300405977+300371159+299609360+298174336+296720672+295941657
3967+295972535+296461327+297089096+297761048+298339687+298569755+298403397
3957+298145000+298164142+298570289+299189820+299760458+300043006+299850482
3947+299289416+298899538+299117161+299729314+300217602+300431698+300578055
3937+300909082+301807191+303590163+305749589+306912437+306228039+304453246
3927+303082850+302879748+303462831+304015304+304221992+304340642+304536751
3917+304456091+303564738+301906549+300248005+299410317+299702555+301080863
3907+303589778+307293603+311622560+315097443+316389282+315309791+312536019
3897+309178689+306524633+305563199+306431468+308075670+309109408+309615150
3887+310474647+311317343+311157978+310699204+311238846+311956907+311397826
3878+310506117+311070325+312968538+314935530+316420960+317015274+316006813
3868+314187540+313330206+313635008+313509751+311858733+309669230+308893593
3858+310975618+316353486+323573769+327620059+324464055+317846383+312562985
3848+310172660+310661630+313315864+316877333+320274667+323210916+325340739
3838+325729846+324437593+323009621+322279855+321671228+320746035+320002520
3828+319769162+319916378+321133454+324439578+328467082+329554158+327295788
3818+324868008+323159681+320815761+318100158+316795073+317897677+320997854
3808+324319150+326305670+327918757+330577258+332744122+332079697+330097741
3798+329254453+328895838+327548467+325876025+325313388+325900175+326941825
3788+328441183+330636820+332930779+334762349+336794028+339584128+341966245
3778+342666229+342753379+344479397+348893519+355141729+361072010+365001104
3768+367376701+369702041+372748642+376932280+382847478+390230148+397378038
3758+403057952+408447435+415780174+426229151+438928645+450444519+457649482
3748+461917988+466242619+471399012+476229088+481018687+487536911+496668535
3738+508460763+522026155+534701973+543531343+548043579+549900366+551119161
3728+553226404+556530276+559974607+562409529+563714140+564792238+566907660
3718+570638481+575787109+582648391+592053703+602515540+609400588+611412592
3708+612771904+616850199+623177499+629510844+635208567+641449281+647736577
3698+651995453+654514650+657831442+662924836+668444110+672712824+674360405
3688+673308028+671940358+672453834+674453451+676061501+676846710+678706934
3678+682502473+684589092+681372221+677469293+678544488+682177165+681630085
3668+676922214+674281463+676529106+681947511+687952822+693412594+697865209
3658+700375754+700939309+702370452+707815822+716733320+723710644+722827826
3648+717151734+713574470+712801056+713373620+715643310+719905860+724312307
3638+725937603+723351969+718510158+716294578+720397586+729269390+736114611
3628+735215969+729920480+726693416+727357189+730837376+736490828+743380973
3618+748332662+749028202+746332512+742306312+739328340+739378953+742398173
3608+746179429+748387957+748262373+746295293+743299127+741091014+742025631
3598+745646988+748843708+750385914+751798862+754314622+757648127+761480055
3588+766058253+769881884+770857630+769718726+767773633+765395606+763894293
3578+764879463+767154072+767239236+763708259+759152344+757143897+758425512
3568+760344410+759626231+756670840+755127093+756634036+758665953+758817020
3558+758316938+757980784+755792407+751866721+750385381+753782300+759446242
3548+763271769+764010039+763037907+761957379+762564909+766574930+773357033
3538+778680554+777278689+768233533+756967226+750670270+752185095+757563437
3528+760496841+759688341+759185059+761188469+763083956+762378282+760248518
3518+758754495+758272726+759167813+762750173+768835315+774542520+776610767
3508+774027563+767911425+760282063+753662524+749805587+748670771+749789881
3498+753069218+757580031+761458008+763822286+765322058+766317540+766235753
3488+764752161+762390076+760036229+758524427+758939818+762267456+767314444
3478+770904213+771893709+772272179+772460584+769629235+762888854+755669431
3468+751334991+750171077+751472724+755449141+761100104+764446647+762431088
3458+757771874+755814987+757755813+760054009+759997648+759116429+760179356
3448+763141385+764847341+762536580+757145438+752730930+752968111+757798958
3438+763239528+764746531+761367273+756606181+754751527+757587617+764319286
3428+772252088+777732781+778613880+776145237+772779136+769393892+766405608
3418+765603509+768218539+772140669+773520250+771104353+766946939+763558258
3408+761970536+761753980+761857694+761250046+760095317+759549660+759745414
3398+759944546+760099406+760538860+761051032+761632604+762881861+764347437
3388+763734573+759807168+754822883+752606414+755502480+762871608+770188227
3378+771775475+767568930+763056161+761098148+759901578+758707320+759588597
3368+763081052+766055942+765803471+763839413+763502726+765745213+768557182
3358+769301734+767232184+763623865+759965229+757496171+758153484+763413117
3348+771249612+776443935+775587252+770388307+764718913+760590184+757850697
3338+755700427+753755453+752883539+754856724+760079849+766605096+772556179
3328+777496549+780319126+779632654+777040619+776043063+777213141+777570630
3318+774478277+768387801+762064827+758368381+758591574+761557574+764542835
3308+765760029+765414215+764599789+764317626+765164411+766744192+767605497
3298+767190283+767057706+768685136+771584225+774842641+778289935+781029600
3288+781767633+781654021+783320685+786388977+787199847+783615531+777621895
3278+772692726+771079876+773357092+777979977+781326046+780372287+776375779
3268+773227242+772572003+772672695+771623518+770483073+771376440+773735384
3258+774854968+773686431+772065520+771607457+771152713+768353368+763271413
3248+759125912+759161590+763608574+769633147+773652649+774251705+773204543
3238+773301324+775206353+777131058+777203836+775121959+771562119+766853300
3228+761412314+757368039+757717823+762525735+767511502+768725318+766977105
3218+765110658+764347911+764727447+765576010+765281876+763257130+761642264
3208+762986346+767287478+771814827+773058276+770317485+766851462+766019968
3198+767586058+768928184+769379668+770636926+772708965+772804383+769388617
3188+764500994+761127485+760210707+760368057+759930085+758800189+757686057
3178+756334330+754321675+752636402+751852379+750826909+749491124+749769613
3168+752212772+755031912+757013394+758227744+757994415+755293273+751424423
3158+749638162+751703504+755953668+759007144+758909119+756175914+752316072
3148+748017666+743099225+738221913+735676758+737052131+740700692+743307839
3138+743835479+743778762+744171870+744509209+743839154+742389106+741659429
3128+742617989+743948439+742928125+738699949+733098650+729023794+728183113
3118+730068822+733245095+736242743+737436468+735792444+732628971+731045457
3108+732709928+736069688+738137045+737236803+733717086+729151392+725609984
3098+724838822+726466192+727925130+727724754+726995077+726769157+726610800
3088+726428559+726572751+726094775+723851518+720912840+719382072+719724686
3078+721171178+723622101+727147152+730225164+730627339+728181394+724842259
3068+722302852+721158258+721303221+721589533+720397763+717992771+716733735
3058+717771118+719248725+718921698+716890196+714441939+712296529+710739625
3048+710149223+710775718+712369070+714172163+714924301+713570678+710377928
3038+706960977+704985244+704717009+704993838+704795121+704727084+706186911
3028+708949689+710583638+709270375+706157752+703463070+701938288+701342255
3018+701742238+702897737+703376364+701787813+698390064+694841011+692885783
3008+693252696+695115706+696770635+697126287+695994198+693640055+691290357
2998+690677848+691881471+693126401+693192304+692217150+690301690+687492033
2988+684825501+683530136+683693946+684604915+685380760+685083247+683363600
2978+681180853+680147441+680766113+681672638+681247052+679746569+678869914
2968+679358795+680149574+679859233+678391998+677043293+677159394+678462227
2958+679142891+678000193+675929813+674663073+674643634+674851834+674261076
2948+672871300+671192250+669448838+667888734+667064884+667055343+667070040
2938+666394118+665066512+663402634+661651813+660084182+659051659+658900947
2928+659576099+659994988+658621273+655590200+652980682+652266533+652903163
2918+653811051+654769136+655710924+656045063+655453356+654397364+653414328
2908+652743324+652413097+651822753+649908182+646700735+643871401+642915746
2898+643595698+644554495+644795706+644244122+643380268+642687929+642247231
2888+641646872+640382799+638391834+636214421+634896712+635331840+637117804
2878+638464435+637935312+635952705+633889555+632283164+630934934+629966714
2868+629638028+629740202+629818965+629614381+629084666+628192365+626803538
2858+624942425+623085282+621860087+621338017+620807236+619549563+617923378
2848+617263694+618263858+619921750+620767765+620541193+619802982+618703252
2838+617025565+614781774+612217832+609675935+607562529+606104598+605139875
2828+604304528+603515349+603226371+603977620+605504654+606627142+606242924
2818+604155594+601104489+598393094+597117167+597372483+598350956+599054911
2808+598670574+596873468+594345025+592507617+592359039+593638758+595028356
2798+595190328+593907349+592027923+590188678+588349907+586663746+585718580
2788+585594656+585548488+585007335+584229653+583713036+583465840+583175854
2778+582780613+582389875+581749038+580424573+578683354+577515587+577439727
2768+577797927+577638681+576864555+576002124+575284597+574534711+573571766
2758+572312967+570800987+569356272+568323156+567533800+566499143+565195599
2748+564128998+563543693+563053211+562208560+561101896+560172317+559519508
2738+558754924+557688620+556697819+556139776+555912137+555800777+555740386
2728+555496686+554620802+553034384+551205984+549509984+547884036+546361269
2718+545453915+545546488+546100975+545974740+544712563+543102439+542120647
2708+541797295+541469082+540710307+539614962+538506994+537736721+537434230
2698+537233024+536545426+535201759+533554238+532032834+530876150+530106469
2688+529511977+528892120+528452607+528529296+528775485+528282634+526832407
2678+525313374+524551813+524429844+524397308+524243692+524083853+523888099
2668+523323654+522228547+521060602+520419943+520218855+519850224+519044035
2658+517958825+516690307+515358494+514421329+514288811+514659102+514630536
2648+513623201+512023803+510777747+510411427+510539440+510338530+509470528
2638+508420463+507812755+507600821+507242265+506532976+505814027+505365091
2628+505041442+504597899+504015319+503360080+502594193+501739703+501042682
2618+500731835+500728042+500731183+500465733+499845045+499092315+498586780
2608+498397190+498176722+497709355+497226815+496976656+496844464+496606009
2598+496228755+495718361+494935079+493860803+492879071+492477310+492721988
2588+493171309+493241835+492662752+491709526+490955225+490710014+490812276
2578+490926748+490807594+490359132+489725407+489260765+489233237+489563464
2568+489839967+489605750+488788597+487820200+487196757+487028917+487030487
2558+486789810+486143431+485382314+484926267+484866172+485011905+485119709
2548+484948817+484493392+484144822+484225334+484564244+484818848+484829812
2538+484525454+483971856+483535010+483532787+483805705+483935674+483764723
2528+483482382+483288940+483208783+483260937+483525587+483872112+483905508
2518+483404596+482602705+481917714+481554358+481396741+481260016+481222560
2508+481479950+481824549+481710167+481022539+480339712+480191193+480395658
2498+480400785+480075862+479747857+479515892+479128089+478598226+478279644
2488+478265450+478330405+478382677+478455070+478489977+478513654+478688191
2478+478983807+479157218+479089744+478826813+478407598+477947343+477705451
2468+477787237+477917473+477738936+477214999+476584740+476137997+476147717
2458+476676928+477301201+477390069+476820558+476094793+475681772+475552040
2448+475428323+475234140+475096970+475018799+474820407+474433522+473993802
2438+473642714+473456264+473446960+473445686+473212831+472809145+472576883
2428+472686613+472947737+473072580+472966257+472737256+472490978+472184220
2418+471749656+471302053+471087394+471255323+471710511+472117428+472120302
2408+471678863+471126035+470853266+471016542+471467582+471827442+471743700
2398+471252833+470796460+470753729+471050916+471333257+471424881+471418154
2388+471327656+470933363+470059731+468757698+467108844+465128695+462956082
2378+460819532+458693947+456255291+453308227+450084392+447060253+444613182
2368+442878304+441825601+441332927+441186304+441224590+441559765+442512191
2358+444328856+447154070+451273406+456944489+463614374+469703901+473692556
2348+475105860+474565151+473363484+472492608+471660758+469838463+466595545
2338+462394868+457980479+453955109+450758152+448571938+447175613+446184932
2328+445522611+445323330+445434068+445489333+445475702+445768118+446557593
2318+447609200+448593214+449359250+449908730+450375475+451034329+452068956
2308+453289528+454258934+454726242+454831883+454927715+455293975+455961453
2298+456738512+457449846+458089854+458653498+458961264+458821901+458301935
2288+457718733+457382224+457366726+457506059+457578333+457480931+457271635
2278+457102076+457065954+457075466+456990124+456857013+456832389+456895536
2268+456882586+456765626+456646977+456527557+456320216+456075806+456004539
2258+456219050+456552270+456722510+456639302+456430984+456218309+456040809
2248+455972002+456090503+456330321+456538521+456677143+456818580+456958920
2238+456977500+456810786+456588719+456536506+456756025+457151563+457547634
2228+457789852+457774295+457552938+457409456+457631909+458145474+458529307
2218+458507053+458300424+458352815+458799528+459393101+459893509+460298707
2208+460659782+460897585+460932433+460867034+460883776+461026754+461230213
2198+461490447+461825712+462124854+462276693+462409329+462767144+463402262
2188+464165098+464899575+465517477+465981436+466315605+466602716+466948027
2178+467400993+467874494+468225672+468440983+468655998+469023592+469633790
2168+470450438+471293934+472071053+472979148+474254956+475838114+477516097
2158+479236189+481078071+483085392+485266006+487607881+490014859+492336881
2148+494489551+496464187+498214652+499658478+500888295+502249564+504019824
2138+506115391+508286878+510420198+512460175+514326089+516115788+518116353
2128+520454198+522907196+525104048+526837978+528202092+529317823+529883927
2118+529333292+527616490+525391012+523230726+521103688+518800988+516436947
2108+514257519+512198518+509893684+507108088+504034996+501103251+498562244
2098+496340856+494256993+492196066+490065354+487800820+485561355+483730556
2088+482551796+481869591+481309088+480580211+479592137+478465382+477482909
2078+476883438+476634020+476442681+476025541+475363042+474685282+474236672
2068+474086642+474124483+474183215+474156693+473974156+473527383+472823042
2058+472161195+471863357+471861934+471862231+471787823+471751315+471753745
2048+471702451+471589461+471484413+471450276+471518669+471688138+471934505
2038+472204489+472428305+472614043+472865684+473240153+473686659+474126320
2028+474446768+474497707+474256022+473888013+473568424+473359514+473231796
2018+473047836+472615939+471908191+471143163+470551723+470116033+469608039
2008+468897446+468129810+467527287+467119096+466763207+466346008+465885693
1998+465505475+465343236+465433053+465634911+465694384+465448373+464989066
1988+464523061+464104054+463651414+463159511+462699522+462279152+461882133
1978+461583464+461471808+461481231+461403120+461126350+460847743+460893525
1968+461251015+461482446+461291819+460923366+460740413+460709210+460576366
1958+460306679+460060253+459898992+459736604+459502120+459233025+459038012
1948+459040798+459356001+459991712+460641143+460761393+460191289+459433224
1938+458969798+458721031+458437890+458201510+458210103+458350207+458310232
1928+458099218+458207259+458981177+459985727+460516301+460629557+460789811
1918+460746103+459891731+458545427+457723593+457907020+458679130+459267014
1908+459248049+458823531+458429534+458223290+458090061+457954906+457915643
1898+458149504+458653202+459090848+459217646+459292172+459540228+459574069
1888+458999549+458155046+457604558+457463684+457519779+457527098+457353540
1878+457114848+457015904+457058101+457299015+458199524+460029168+461930641
1868+462393327+461147063+459453197+458381588+458041493+458098032+458258790
1858+458409947+458622887+458921941+459080891+458958389+458840777+459166589
1848+460216714+462028370+463935652+464469574+463084718+461190208+460274379
1838+460504536+461120927+461554335+462184950+463742891+465918230+467228263
1828+466974874+466097063+465368128+464584668+463656837+463065635+463102438
1818+463481204+463783428+464023157+464605589+465688784+466775801+467233034
1808+467119897+467122060+467870049+469537276+471698865+473402688+473900163
1798+473611866+473885465+475673741+478507757+480466510+480065076+478398027
1788+477590772+478353933+479963554+481574182+483023164+484366801+485511335
1778+486682895+488597644+491811818+495905906+499194547+500197438+499422127
1768+498130377+497083245+497089527+498765703+501460029+503679640+505041501
1758+506187280+507193253+508062144+509695737+512813456+516572073+519182243
1748+520057238+520152063+520483594+521517539+523207316+524910843+525925942
1738+526839579+529247061+533439796+536881876+537065124+535462705+534292389
1728+534107718+534955570+536770516+539196370+542316223+547007737+553626860
1718+560314495+563608114+562815913+560808176+559955346+560980283+563825322
1708+568038030+572600227+576453786+580071292+585037086+591320234+596368526
1698+598913859+600110014+599966710+598772985+598845230+601694536+606719952
1688+612974652+620744177+629606202+635516807+635775975+634205677+634600207
1678+637788156+643071317+648850116+653770098+658322398+663492243+668427931
1668+671568408+673768342+676969448+681190691+684775304+687050446+689425213
1658+693483950+700059513+709458246+719690904+725157018+725864885+727721079
1648+732290210+736792904+738333273+737997119+738344593+740571434+744985644
1638+750989592+756060228+756593558+753154975+750350118+750394982+752232330
1628+753757645+754174578+754234258+753988899+752655189+750964227+750464560
1618+750540004+748222132+742405522+736081778+731783194+729523105+728026178
1608+725995684+723124449+720084427+717599900+715803445+714385163+713175732
1598+712292084+711644727+710865090+709977175+709454039+709315476+708840878
1588+707475283+705567113+703969316+703288533+703753411+705478926+708458082
1578+712067883+714542216+714379948+713289937+714212167+717696206+721619284
1568+723678167+724528271+726353647+730506319+737921497+749483716+763024098
1558+770480702+770237654+769837968+772531999+777534538+783557688+789788326
1548+795902507+802019593+808312579+814986582+822455869+829208576+830548628
1538+826643804+823539893+823437068+824311708+824264947+824432965+826764646
1528+831288617+836664113+842013948+847610802+853060558+856555147+857619080
1518+857686406+857325598+856586498+856678715+858814228+862881499+868393899
1508+874901603+879529644+878288506+873501397+869869431+869065554+870819516
1498+873726487+875540129+875320788+874989849+876844029+880976254+884974303
1488+886245666+884956109+882889225+881109483+879844995+879326007+880189209
1478+883035137+887896861+893963749+898987920+900049424+897308989+894056559
1468+892068558+890896998+890135200+890376351+892331874+896347347+902201768
1458+907517762+907735978+903097803+899294441+898987624+900973254+902555761
1448+901557493+898405459+895622708+894647139+894865118+895733061+898003224
1438+902004829+905752185+906856893+906072870+905269112+904597219+903482969
1428+902303883+902051293+903005171+904724166+906861279+909115560+910421296
1418+909653927+907467742+905188333+903066629+901020252+899363900+898286928
1408+897550140+896756516+895495169+893754068+892256844+891865751+892928559
1398+894998880+896783778+896763806+894412626+890839155+887849745+886594680
1388+886856871+887022399+885778121+883969576+883521944+885382227+889028950
1378+893309399+897259798+900075145+900986233+900115505+899035510+899220478
1368+900540201+902177706+904020566+906080456+907703738+908530313+909102640
1358+909836524+910513691+910901347+911222032+911899318+912944998+913740281
1348+913746149+913404602+913772581+915445112+918203386+921183788+923247767
1338+923899628+923786194+923720587+923663929+923361082+923319656+924131415
1328+925519472+926956304+928436163+929924378+930947359+931333059+931548785
1318+931925239+932214870+931979467+930850460+928676365+926174592+925237190
1308+927343248+931282031+933629477+932357996+928848235+925796538+924696926
1298+925282825+926132573+926101044+925467911+925138632+925248451+925160975
1288+924154410+921935392+918834386+915348628+911576499+907656444+904467665
1278+903007779+903250589+904077698+904396783+904121614+903714282+903112679
1268+901757633+899703551+897707253+895919036+893585576+890425838+887408988
1258+885708069+885479838+885854810+885770061+884751880+882968760+880789509
1248+878652811+877187057+877091225+878584419+880837158+882631717+883788283
1238+884905792+885850365+885753763+884499350+883226742+883118879+884172619
1228+885369426+885825296+885470474+884841489+884790462+886175733+889268442
1218+893523110+897923572+901246587+902589542+902452343+902550308+903771414
1208+905159708+905502381+905193489+905855188+908251410+911259251+913060447
1198+912904875+911588708+910819797+912202876+915980872+920631730+924261029
1188+926219397+926990026+927158280+927160473+927648702+929312758+932186067
1178+935367082+937656862+938486223+938307894+938550941+940545639+943930231
1168+946728035+947702834+947838789+948416686+948968685+948396833+947099452
1158+946391704+946732303+947990449+950445818+953989419+957190940+958666353
1148+958690652+958424669+958588360+959341150+960566642+962323803+964672968
1138+966649235+966734281+965464103+965519990+967790925+969697021+969404309
1128+968838679+969865927+971061016+970710520+970558741+973305992+978191126
1118+981880402+982597454+981475026+980413818+980235785+980414826+980374110
1108+980809297+983419467+989058813+995262841+997353253+993120632+985488306
1098+980458267+982559406+991061334+1000632293+1006754890+1008947713+1008054819
1088+1004445789+999706092+996452181+996134873+998181429+1000817438+1002696628
1078+1004219276+1006558840+1009914807+1013678875+1016544124+1017020144
1070+1014666594+1011054126+1008650437+1008473589+1010199162+1012569900
1061+1013855012+1014335300+1015998882+1019259668+1022459885+1024148358
1053+1024275068+1023016980+1020545729+1018711818+1019849596+1023662500
1044+1027143042+1028411442+1028713696+1029405324+1029401649+1027851739
1035+1026522414+1026729014+1027266907+1027002820+1026556551+1025831616
1027+1022944084+1017688659+1013195625+1012213477+1014110921+1016721209
1018+1019367057+1022225786+1023925875+1023294580+1021895914+1021535580
1010+1021370230+1019887526+1017664952+1016202755+1016021995+1016245189
1001+1015687975+1014414478+1013608587+1013670697+1013135885+1010004890
993+1004519752+1000169311+1000152361+1003800388+1006849597+1005408972
984+1000069271+994959165+992916344+993110319+993587406+993869569+994669001
974+996699555+999112489+999073493+994437510+986780352+979847418+975612248
964+973652221+973050854+972475031+970013439+965842869+962877699+962638148
954+962832064+960565160+956131391+951813546+948855429+947245897+946735503
944+946790679+946368235+944624941+941761530+938772653+936869402+936975665
934+939006633+941606136+943442773+944516722+945279528+945771135+946261024
924+947107275+947741594+946993189+944121836+939728250+936381469+936944254
914+941342523+946226235+948556612+948440452+947587800+946369302+943683035
904+939012560+933402253+928440489+925179940+923635363+923216178+923771614
894+925573107+928385965+931261110+933006123+932403452+929281525+925712855
884+924424127+925853136+927994990+929458551+931121125+934120136+937486474
874+938630653+936416851+932478601+928826129+925852958+923340339+921753032
864+921552715+922579549+924614132+927293050+929931490+932551735+935801735
854+939246777+941319824+941191040+939411180+937086788+935530832+935576822
844+937191451+939906995+942610330+943166418+939996130+934813127+931784365
834+933068411+936203140+937039138+935633895+936247352+940702396+945991721
824+948854243+949384432+949317344+949803321+951413327+954099534+956099270
814+954749202+949874854+945370619+945540237+950258242+955151852+956809685
804+955407464+951946775+947862436+946300376+949818137+957953982+967052951
794+971915268+969383329+961248609+953032104+949116019+949423548+951075810
784+952251874+953587125+956111300+958872716+959554091+957557793+955210228
774+954820143+955598358+954869096+951741776+948636384+949111396+953824542
764+958881309+959932738+957249020+954528675+955296934+960773597+968302208
754+971598791+966295361+956709526+951570736+953701152+958278105+960195995
744+959883192+960414389+962698183+965101872+966130662+966740681+969106440
734+973394475+977500742+979503263+979599688+979354448+979613319+980362020
724+980920005+980100837+978407623+979145656+984366055+991403059+996522351
714+998373804+996664944+991409697+984618703+979548127+977576247+979469423
704+986136551+995450120+1001868452+1001451460+995674618+988796564+983868284
694+981978249+982007348+982072007+982604507+984990535+988538699+992071396
684+996314922+1002060709+1005833668+1002217407+993140841+984947567+980304473
674+977199140+973074679+968176506+964649795+963962079+964738042+964233633
664+962040040+959539156+958850906+961806772+969623828+982460729+997085492
654+1007303926+1009555539+1007789310+1006706767+1002557354+991443478+978680540
644+974976922+986461504+1006762832+1021544707+1022894182+1018575626+1020292191
634+1028707414+1035061146+1032379739+1026026718+1027582318+1038945524
626+1051822488+1060883112+1069353096+1073741823+1063204304+1044686333
617+1039628499+1053274018+1068120612+1064642203+1038262667+1004119236+986102533
607+994882713+1019665518+1038217270+1048614211+1060068923+1070286409
##END=
