##TITLE=<SNM>
##JCAMP-DX=4.24
##DATA TYPE=INFRARED SPECTRUM
##DATE=3/5/2025
##SAMPLING PROCEDURE=Instrument type and / or accessory
##ORIGIN=Admin
##XUNITS=1/CM
##YUNITS=ABSORBANCE
##RESOLUTION=4
##FIRSTX=4497.3318
##LASTX=599.83466
##DELTAX=-1.4281778
##MAXY=1.706808
##MINY=0.17781857
##XFACTOR=1
##YFACTOR=1.5895888e-09
##NPOINTS=2730
##FIRSTY=0.19890264
##XYDATA=(X++(Y..Y))
4497+125128359+125916965+126998976+127370317+126837458+126134963+125849124
4487+125807362+125621499+125403942+125549477+126034443+126438228+126617707
4477+126879220+127369904+127708848+127495275+126886119+126318566+125936285
4467+125654178+125445873+125259635+124970394+124581794+124210988+123964417
4457+124078905+124808210+125866654+126446121+126070243+125052474+124084698
4447+123707704+123947806+124197695+123863054+123146994+122625975+122342939
4437+122058638+121933014+122193589+122636231+122964000+123082106+122884788
4427+122320591+121640707+121152028+120871861+120609195+120179153+119546646
4417+118929391+118632425+118759689+119238103+119911350+120345995+119948125
4407+118664484+117215876+116342817+116164304+116384626+116632631+116502292
4397+115844774+115148879+115038150+115396058+115638419+115663008+115795138
4387+116042608+116082223+115753694+115184951+114690254+114588478+114790727
4377+114800514+114422761+114055075+114032849+114185686+114234939+114180493
4367+114123667+114027093+113815105+113543149+113318693+113186057+113253589
4357+113723809+114510513+115080803+115033435+114553306+114014288+113528760
4347+113097620+112718967+112284763+111864507+111917434+112685295+113690006
4337+114294765+114380089+114188611+113973904+113943803+114139068+114410687
4327+114736094+115171142+115386168+114913801+113979041+113380459+113435533
4317+113705557+113818470+113883415+113980110+113942322+113885318+114274526
4307+115157662+115961605+116335533+116570573+116942814+117232084+117120962
4297+116641461+116129554+115949634+116212469+116690929+117077381+117274531
4287+117403661+117636488+117941291+117970407+117440333+116580126+115884521
4277+115576934+115622155+115971870+116528061+117184041+118004961+118995057
4267+119742398+119813371+119405282+119080353+118997344+118896271+118685080
4257+118568736+118697950+119080728+119727306+120571895+121364730+121828688
4247+121872259+121642563+121460628+121554501+121745061+121624311+121116125
4237+120592172+120426398+120666931+121100958+121485348+121736549+121948303
4227+122227983+122502817+122510822+122088860+121467415+121065879+120963400
4217+120890159+120804873+121028439+121696811+122514366+123142673+123482957
4207+123600313+123653596+123826101+124147721+124438284+124493808+124299265
4197+124058178+123978188+124028771+124054588+124087342+124253734+124408671
4187+124253987+123845346+123629523+123912465+124496011+124865018+124691210
4177+124230561+124178347+124977002+126338918+127590602+128322475+128494230
4167+128166498+127477698+126740481+126298834+126322025+126765998+127411076
4157+127909063+127892620+127207233+126170397+125412444+125213458+125284336
4147+125471211+126100034+127190632+128048832+128182349+127958221+127933164
4137+128196776+128594028+128967094+129107154+128997954+129027333+129528169
4127+130283891+130753615+130541251+129605619+128405550+127776033+128165851
4117+129052980+129600679+129789869+130327997+131452472+132435332+132485024
4107+131732949+131002332+130887357+131407898+132272361+133056233+133341819
4097+133042772+132472407+131969002+131648516+131479873+131350397+131187229
4087+131184763+131644691+132452702+133034166+132988242+132505910+132041099
4077+131838625+131919299+132250725+132718490+133088125+133154841+132847188
4067+132247678+131664386+131476058+131694927+131931570+131942313+131915625
4057+132124604+132590456+133136767+133560914+133750948+133734055+133666608
4047+133823523+134431376+135287121+135766143+135536287+134991383+134664138
4037+134525840+134193589+133622380+133287514+133668436+134650414+135534197
4027+135715316+135329014+135129015+135659099+136607236+137143798+136919023
4017+136461102+136364406+136423323+136006958+135084422+134353926+134388920
4007+135096889+136033215+136886710+137573953+138086076+138352773+138271564
3997+137911688+137562367+137411526+137354118+137288817+137328142+137556676
3987+137870985+138140419+138258384+138069962+137550536+137049578+137161722
3977+138254625+140011195+141471184+141814758+141139224+140159402+139327242
3967+138760374+138758555+139625924+141027577+142138638+142483525+142247697
3957+141816896+141384041+141035920+140975840+141417919+142188424+142712518
3947+142681799+142451099+142479325+142744288+142937284+142935550+142845679
3937+142820162+143056562+143716273+144601977+145104005+144835414+144215947
3927+144018516+144498130+145198469+145620374+145965158+146832996+148130942
3917+148726045+147727175+145780233+144252863+143691947+143802159+144500867
3907+146230496+149082247+152132554+154193515+154977818+154605699+152842642
3897+150055085+147816793+147536475+148921460+150018395+149621096+149289783
3887+150741382+152926110+153674586+153344032+153549205+153692734+152604002
3878+151555552+152260100+154397301+156881151+159369267+161043335+160450303
3868+158315173+156936591+156786781+156359720+154834008+153247937+152976993
3858+154766055+158964076+164863087+168518960+166126433+160716681+156424955
3848+154472960+154603721+156154040+158513569+161452914+164887292+167924634
3838+168904972+167580750+165724972+164537746+163618715+162507176+161677782
3828+161562254+161979557+163199556+165978676+169536475+171323653+170917580
3818+170324098+169616213+167384135+164307777+162436963+162848454+165333767
3808+168443179+170670513+172683965+175776990+178467149+178224187+176363891
3798+175490083+175172803+173999525+172431367+171737262+172193356+173474437
3788+175489276+178191209+181163775+184061592+187132081+190526525+193509909
3778+195432281+197118929+200221272+205773250+213347904+220912528+226522457
3768+230715341+235265965+240657137+246877741+254743521+264647538+275197065
3758+284809675+294258986+305739973+320360350+336645739+350539427+359950735
3748+368201177+378574730+389868795+398343244+404208058+411327631+421740556
3738+435054879+449767611+463396757+472925206+477460980+479261281+480936455
3728+483215929+485489441+487537259+490205125+493640666+496286109+497294213
3718+498383198+502154336+510095916+522165304+535953512+546697573+551629315
3708+552484356+552867425+555699753+561725466+569301864+576294060+581732610
3698+585298639+587248553+588989909+592334257+597874273+603813331+606930486
3688+606677119+605956166+606266903+606814508+607241673+608488332+611250653
3678+614019424+613257149+608790932+606140014+608198218+611996541+612495625
3668+608817030+605122461+604700845+607528411+611617410+615757180+620389471
3658+625264405+628561245+630196447+633104556+639268596+646847768+651188784
3648+650226914+647113996+644668749+643550066+643743175+644912029+646966184
3638+650216414+654082944+656963531+658693862+661575424+667078243+672199494
3628+672588937+669879411+668627465+670639098+675280164+680758911+684582619
3618+685608384+685494319+685704526+685607184+684629640+683846855+684737256
3608+688389154+695278383+703622418+709116913+708673024+704192970+700451455
3598+700361313+704077105+709869325+714790718+717188269+718172038+718633925
3588+716786528+711630555+706516128+704564040+704774247+704703903+704167022
3578+704960607+707982107+711861160+714311433+715037522+716021516+718242382
3568+720099903+719688937+716903368+712659169+708631553+707270116+709769209
3558+714203367+717329783+718193711+718354723+718973797+719966489+721393621
3548+722970291+722988064+720529018+717697102+716735457+716770779+715732715
3538+713780027+712815006+713799525+716077536+718251081+718788187+717087703
3528+715033098+715648422+718948374+721478664+721494263+721104670+721734393
3518+721963199+721081197+720661307+721287055+721684297+721271906+720703828
3508+720627560+721597454+723582840+724916454+723808121+720981605+718696544
3498+718131466+719252848+721659474+724211738+725219879+724123095+722033843
3488+720111977+718452215+717002885+716353214+716960663+718305077+719616793
3478+720895287+722451334+724085898+725104764+724657801+722202654+718277404
3468+714907633+714556437+717887736+722949517+727048453+728507382+726594666
3458+721952400+717187594+714916932+715015399+715211283+714346230+713540721
3448+714159045+716136931+718257006+719400436+719496203+719288545+719648291
3438+720725726+721755916+721956825+721269356+720418852+720215244+720561040
3428+720465048+719536850+718879904+719644241+721509337+723248218+724400272
3418+725590124+726826471+726421880+723201347+719369989+718733516+722080489
3408+726204323+727693250+725753760+721570532+717154822+714733948+715230106
3398+716999285+717606510+716891669+716942290+719145007+722191855+723413354
3388+722143034+720588188+720504945+720758049+719542324+717251639+715751088
3378+716566646+720032784+724618354+727480267+726990108+724249235+721416044
3368+719574872+718751965+719092212+720920485+723687756+726308414+728502058
3358+730229690+730081727+726534746+721186413+718186737+719862698+724085598
3348+726563168+725883274+724340052+723419878+721994246+719570372+717984178
3338+718954523+722318220+726530771+729296842+729209924+727482817+726077658
3328+724806739+722506529+720101703+719974439+723038910+727837388+731643098
3318+732170229+729551521+726535345+725570775+726159552+725941920+724033703
3308+721845009+720703978+720327284+719558523+717641607+714929306+712964169
3298+713377310+715992868+718356748+718535008+718274704+720709603+725190407
3288+727665427+726738204+725755860+727514389+730299134+730540614+727467968
3278+723427753+720741025+720197995+721607803+723740252+724457268+723086981
3268+721617328+722054691+723973933+725300873+724498814+721542259+717865988
3258+715592926+715766087+717368704+718625600+718865206+718611127+718656648
3248+719232375+719850924+719968139+719304969+718065622+717579962+719460881
3238+723027886+724924104+722983940+719049840+716123882+714966503+715006175
3228+716271095+718553531+720191921+719781855+718234058+717502193+718144740
3218+719090412+718974246+717096627+714151546+712421364+714118099+718987145
3208+724012479+725915897+723916637+719763781+715871678+713702858+713421706
3198+714664353+717105251+720038183+721821086+720760299+716747156+711634304
3188+707919037+706913670+707968308+709096139+708873333+707717304+706625544
3178+705599329+704252215+703181679+703244524+704133725+704791646+704708628
3168+704185921+703520501+702387945+700368587+697928139+696308648+696134663
3158+696612673+696613873+696219181+696658794+698633756+701104201+702045223
3148+700248747+696357919+692553634+691064707+692039702+692869958+690829077
3138+686422292+682778568+682000433+683300300+684491877+684520824+684015516
3128+683695292+683386918+682721048+681800799+680848078+679806939+678678133
3118+677880274+677790806+678075708+678114929+677992315+678126929+678166825
3108+677134836+674588871+671223150+668468028+667482385+668399859+670299452
3098+671862847+672207819+671244073+669507142+667673994+666382751+666228789
3088+667007149+667215707+665584667+662903864+661053617+660667099+660905354
3078+660965949+660660800+659860466+658426060+656596211+654815709+653447072
3068+652841272+653140722+653782069+653718474+652700509+651771336+651820382
3058+652244546+651784235+650396025+649357136+649528046+650377426+650712723
3048+649715456+647378274+644592930+642636492+642054165+642352416+642851949
3038+643096504+642614444+641166089+639071737+636959612+635378143+634554636
3028+634241687+633943812+633356235+632454060+631494515+630982607+631021379
3018+630861867+629824328+628246608+626843962+625765026+624777808+623787965
3008+622903638+622275828+621881960+621459108+620795113+620009628+619449574
2998+619240154+618855436+617401869+614722603+611830505+609770501+608545102
2988+607565796+606746976+606608837+607410071+608703152+609795961+610196128
2978+609597303+608104214+606462150+605390488+604797962+604142517+603251853
2968+602343753+601612264+601100431+600632170+599810500+598498071+597166819
2958+596366223+596081172+595902049+595570839+595149599+594811152+594464680
2948+593590590+591787177+589531926+587826305+586999536+586507502+585853331
2938+584876987+583376211+581482768+580027213+579599711+579704815+579469035
2928+578697873+577831208+577363546+577499285+577844632+577413042+575487952
2918+572478901+569556430+567675811+567175752+567756804+568412550+567928278
2908+566025010+563623446+561693181+560380602+559381685+558604075+558162249
2898+557949716+557583259+556923276+556318151+555999840+555570763+554503077
2888+552869862+551203650+549866735+548808836+547789482+546730083+545835482
2878+545359159+545365533+545710242+546010105+545697343+544477419+542737863
2868+541202665+540207198+539571963+539064105+538558159+537852955+536858088
2858+535849121+534995842+533906107+532266443+530561496+529486985+528992814
2848+528469957+527636739+526780872+526221868+525884959+525448832+524657310
2838+523404089+521775299+520145196+518999029+518481122+518283850+518015223
2828+517469905+516629150+515587786+514453955+513340035+512464182+512008558
2818+511754404+511169152+510005773+508546882+507199843+506114496+505192859
2808+504257687+503224722+502223893+501479954+500952823+500219834+498947714
2798+497407904+496270511+495890555+495953737+495801724+494999178+493566422
2788+491806018+490085023+488734460+487881893+487253970+486360606+485082749
2778+483884761+483218741+482954763+482637727+482026602+481098817+479832434
2768+478334321+476964897+475980416+475167520+474094172+472638580+471144703
2758+470082791+469528325+469003331+468004863+466592055+465169423+463867456
2748+462563801+461326554+460357372+459644068+459014683+458368574+457638434
2738+456704911+455518322+454219092+453049752+452124553+451299209+450313078
2728+449014336+447420605+445702347+444172099+443106025+442485339+442019140
2718+441418777+440569847+439478988+438174883+436738490+435403300+434490588
2708+434096533+433864053+433246441+432075076+430738461+429745169+429271358
2698+429136557+428970370+428361908+427134860+425546229+424045941+422947056
2688+422377366+422220254+422084778+421696385+421192127+420656634+419719436
2678+418146291+416503702+415618101+415508722+415367209+414590948+413399859
2668+412302175+411366553+410293917+408986475+407775325+407047173+406755597
2658+406471633+405937752+405266220+404528769+403620707+402598729+401637458
2648+400681025+399632612+398739548+398325658+398301547+398270950+397950876
2638+397286394+396346384+395293659+394345100+393622684+393080104+392631679
2628+392242274+391808772+391130566+390175407+389238622+388655021+388424002
2618+388221669+387752995+387047416+386377159+385883813+385421701+384849986
2608+384264209+383773675+383264467+382586486+381829011+381228761+380882964
2598+380676394+380451113+380134901+379708824+379161332+378503561+377750249
2588+376908706+376068738+375418242+375044660+374806330+374496643+374045668
2578+373507400+372955558+372457262+372096729+371945317+371968865+372019561
2568+371983414+371844488+371553399+371027955+370375884+369910548+369847740
2558+370112469+370467302+370736942+370908903+371016031+370940437+370475813
2548+369618109+368634228+367808284+367237694+366857251+366588435+366481644
2538+366663167+367074470+367397693+367379920+367106792+366829728+366622145
2528+366331282+365872732+365474965+365467841+365806663+366024894+365768153
2518+365191751+364717190+364527268+364410316+364102466+363688088+363493217
2508+363619469+363861736+364033622+364034897+363714823+363072464+362447053
2498+362148840+362062972+361854827+361381654+360777616+360303056+360133832
2488+360176204+360132107+359811246+359300651+358832802+358609996+358721099
2478+359066146+359344485+359259630+358798568+358221378+357759829+357438030
2468+357199925+357062799+357061074+357130031+357142367+357023352+356767886
2458+356412003+356042996+355738371+355468618+355201753+355065789+355173705
2448+355335992+355222226+354792812+354340337+354120155+354103731+354063722
2438+353790482+353257577+352675700+352360426+352405010+352527212+352440594
2428+352263309+352239348+352218650+351865054+351275641+350925345+351004763
2418+351208334+351241031+351193672+351237244+351254942+351084331+350878474
2408+350863175+350946380+350929319+350914433+351145151+351568191+351846193
2398+351776824+351509659+351305713+351194910+350981028+350572761+350139072
2388+349811237+349365136+348376831+346581554+343877391+340114952+335200759
2378+329387953+323187016+316952670+310768232+304755924+299224831+294372321
2368+290102868+286360415+283361020+281323176+280376567+280852309+283180397
2358+287478667+293623826+301649587+311708785+323223613+334120773+341647975
2348+344031165+341515124+336535686+332135388+329261251+326715287+323501353
2338+319831119+316274539+312896106+309455653+306127860+303613131+302478043
2328+302591753+303260435+303834625+304241860+304992435+306635812+309190006
2318+312068831+314565543+316449987+318056841+319800822+321785532+323919181
2308+326144809+328378274+330355785+331766793+332605599+333236934+333960099
2298+334679627+335217595+335721328+336443181+337314459+338032562+338413943
2288+338500936+338505848+338692132+339109773+339503565+339639942+339549162
2278+339327367+338987983+338607614+338315176+338105306+337915684+337806531
2268+337835516+337895548+337856552+337734312+337609785+337489195+337315659
2258+337086515+336906230+336890219+337048756+337310522+337595798+337815493
2248+337884149+337789957+337626808+337570075+337780433+338221921+338629063
2238+338790787+338801961+338916026+339232088+339627493+339936467+340118402
2228+340254591+340413802+340570052+340686555+340836317+341162090+341697846
2218+342284935+342721511+342975440+343184936+343473212+343843943+344249285
2208+344684736+345190119+345794869+346492387+347235275+347941379+348588838
2198+349306491+350215866+351192060+352011030+352716496+353531904+354420430
2188+355093425+355492204+355917306+356606574+357457229+358245226+358912446
2178+359549106+360212763+360842898+361336733+361695428+362041374+362477426
2168+363040329+363800054+364853529+366232927+367952872+370051461+372480022
2158+375121866+377984267+381153992+384549673+387927881+391096781+393983255
2148+396587976+399007801+401440487+404078394+406987590+410105870+413334427
2138+416586721+419824128+423154527+426784489+430744686+434819623+438852302
2128+442923453+447161502+451529252+455794337+459625845+462766997+465081493
2118+466379860+466387547+465063419+462858527+460531395+458750630+457925173
2108+458299542+460030661+463171364+467662967+473168786+478700178+482661612
2098+483680890+481390693+476342186+469416321+461397198+452863580+444193622
2088+435503267+426727119+417994429+409778334+402487213+396142176+390592560
2078+385787033+381734856+378414694+375766400+373669199+371971715+370600828
2068+369571913+368836074+368174854+367348235+366348980+365397909+364697879
2058+364282789+364036997+363779843+363432734+363113598+362962785+362996833
2048+363259836+363939430+365234835+367264204+370128742+374005771+379240263
2038+386276593+395300146+405968012+417578326+429369675+440576484+450332239
2028+457649721+461665676+462124188+459572599+454961043+449134663+442673873
2018+435964854+429264908+422709701+416366164+410354249+404814720+399686495
2008+394708220+389760617+385025734+380732489+376937428+373590943+370630826
1998+367991532+365676923+363799041+362379034+361152398+359765238+358142147
1988+356487109+355027580+353914710+353202306+352762992+352336128+351747014
1978+351010538+350242414+349563570+349054212+348727014+348547404+348453249
1968+348335584+348091667+347742871+347387588+347031405+346618901+346235233
1958+346070959+346123417+346124580+345871363+345483983+345210593+345098815
1948+345050256+345137174+345548627+346110331+346208085+345495382+344359563
1938+343405530+342878286+342705500+342750796+342923207+343158613+343365221
1928+343536394+343919537+344703897+345546790+345987978+346239133+346717331
1918+347051353+346556656+345475846+344708659+344648364+344941403+345068855
1908+344894007+344689198+344709184+344867459+344898169+344703447+344470142
1898+344501302+344870796+345280599+345512368+345794757+346257469+346418143
1888+345862851+344995061+344436244+344261396+344224574+344223637+344279282
1878+344378837+344507489+344728120+345261626+346450203+348330409+350083464
1868+350435898+349186089+347486917+346323313+345746836+345422863+345187907
1858+345030158+344946765+344941815+345036495+345304485+345889849+346970622
1848+348734326+351069933+352946990+352850323+350879486+348927960+348227406
1838+348478822+348831331+349012178+349638751+351363908+353690966+355131371
1828+355103586+354484887+353845453+352959851+351990819+351625862+352057376
1818+352754256+353240815+353692166+354565918+355820677+356796009+356999729
1808+356739838+356726002+357434581+358941431+360897157+362591529+363489092
1798+363882847+364748613+366894260+370058510+372486209+372469298+370847070
1788+369880663+370584142+372418753+374520941+376545661+378327176+379633718
1778+380749775+382658142+386184388+390879787+394632363+395585684+394435205
1768+392914143+392085499+392714697+395015807+397816112+399530020+400328404
1758+401378130+402762965+404224707+406560763+410539146+415109230+417928809
1748+418210861+417439400+417252328+418283793+420312600+422521354+424113697
1738+425623435+428722741+433808070+438118638+438711014+437078886+435701813
1728+435234564+435868487+437771079+440610194+444253242+449485297+456815452
1718+464440746+468510359+467843289+465396617+463999782+464775856+467906996
1708+472961615+478649370+483451784+487647799+493143682+500349573+506602255
1698+509952603+511422481+511657024+511379210+512628006+516460301+522054913
1688+528596697+536813354+546797952+554597344+556717043+556407281+557757057
1678+561946548+568286448+574935247+580465252+585698281+591882794+597881248
1668+601599327+604041088+607937952+613899509+619991029+624419150+627934597
1658+632510155+639577270+649695058+660911204+667547704+669398851+672430475
1648+678240994+683391343+684230448+682595134+682358153+684977011+690247425
1638+697229872+703437408+704895362+701362180+697354137+695470817+695224463
1628+695551136+696411615+698077002+699415641+698816141+697126755+696740687
1618+698063128+698674852+696412590+692403421+688448999+684868645+681278018
1608+677429036+673565431+670409542+668722107+668767853+670161538+672194770
1598+674198979+675560041+675778873+674893721+673526809+672184121+670815484
1588+669212942+667493784+665966610+664720364+663752344+663590282+665168226
1578+668511825+671563697+671953365+671135182+672304486+675967557+679993974
1568+682579685+684686260+688094353+693585474+701842365+714102875+729475927
1558+740854060+744671169+747154513+752522794+760911824+771198947+782146841
1548+792720066+802694240+812430084+821990592+830921003+836814990+835184850
1538+828061189+823098850+822956587+825232124+826571963+826818992+828206527
1528+831473257+835502673+839593735+844501853+850418638+855483344+858092678
1518+858860839+858712052+858121026+858040632+859731067+864041035+870950063
1508+878336052+880700456+875572006+869487835+867574368+869695942+873658614
1498+876876073+877812370+877436576+878209537+881283608+885359520+887710651
1488+887124274+885141888+883437580+882374768+881848686+882078167+883566269
1478+886418733+889875122+892663616+893606288+892469982+890969881+891352199
1468+893999180+897166318+898127588+896040286+893656908+894091347+897854311
1458+902658113+904649948+902722083+899421831+896619913+894859884+894143468
1448+893921411+893580565+893158200+892907720+892687014+892624769+893714729
1438+896436928+898795108+898162385+895774658+894728270+895730487+897180417
1428+897671701+897438395+897329129+897760044+898708865+899795975+900111624
1418+898777709+896418255+894620729+893994080+893912562+893641535+893371332
1408+893728602+894445543+894485515+893651734+892923769+892798079+892659191
1398+892024669+891152566+890027959+888096494+885535381+883479876+882568551
1388+882014422+880370033+877490272+875031376+874740475+877138101+881508139
1378+886597143+891304878+894818487+896831246+898186083+900278485+903283561
1368+906059382+908005095+909715104+911414238+912333662+912304564+912430029
1358+913456769+914874677+915955037+916814166+917949197+919372879+920814635
1348+922233517+923727769+925446326+927650394+930210232+932259662+933065770
1338+932991452+933032173+933847656+935507418+937556849+939339451+940712287
1328+942191390+944021913+945521639+945885584+945427522+945389725+946533005
1318+948415875+950135632+951292861+951883737+951800269+951072005+950208151
1308+949616750+949142639+948827215+949331549+950820475+952277980+952689096
1298+952084046+950966038+949602051+948069553+946437463+944891691+943653169
1288+942657926+941684732+940645843+939221786+936892929+933919575+931089609
1278+928300365+924916495+921369889+918792352+917242606+915618090+913334979
1268+911116063+909932736+909730628+909321911+907384672+903536590+898611748
1258+894124195+891147016+889340791+887436698+884949529+882776134+881718947
1248+881261335+880434603+879231253+878387798+878144518+877906412+877092805
1238+875923202+875202586+875424343+876255799+877033860+877677006+878799214
1228+880831545+883293441+885073044+885511983+885299450+885893176+887946281
1218+890900362+894109571+897395949+900474144+903018308+905248174+907422544
1208+909261316+910714921+912362835+914436488+916569461+918675662+920880404
1198+922893688+924541226+926173016+927849127+929338204+931222798+934455030
1188+938601437+941961234+943655794+944507573+945689475+947459554+949381645
1178+951028358+952345474+953808228+956271999+960257919+964974804+968495087
1168+969734434+969607095+969595921+970134976+971033402+972612246+975323497
1158+978695667+981802060+984263282+985612645+984776539+981809260+978908350
1148+978270303+980182344+983646908+987495214+990978001+994261304+998074063
1138+1002328461+1005783800+1007678368+1008498200+1008600941+1007741363
1130+1006470293+1006297957+1007664644+1009184093+1009673653+1009689701
1121+1010554980+1013197311+1017946893+1023925323+1028949307+1031378881
1113+1031455674+1030435384+1029355623+1028962656+1029772139+1031383080
1104+1032057424+1030211452+1027075512+1026172512+1029238858+1034326886
1095+1038710423+1041804142+1043953689+1044869888+1044820168+1045006077
1087+1045695570+1046053291+1046456682+1048567232+1052502232+1056624415
1078+1060059281+1062715636+1063510420+1061592829+1058518008+1056900017
1070+1057811867+1060054331+1061447041+1061215535+1060916235+1062008444
1061+1063190722+1062494029+1061189512+1062176956+1065427711+1067863660
1053+1067727171+1066726754+1067099248+1068564702+1068856727+1067170192
1044+1065607621+1066425354+1069309240+1071842530+1072408733+1071880627
1035+1071720815+1071488860+1069810798+1067029204+1065499255+1067125346
1027+1070962703+1073663230+1072443530+1068140462+1064235235+1063021536
1018+1063900613+1065515454+1067847311+1071056895+1073741823+1073690377
1010+1070500066+1066646061+1065079890+1065904597+1066216346+1063755275
1001+1059598069+1056315141+1055216857+1056025365+1057570462+1058310576
993+1057044830+1053269343+1047289938+1040705633+1035709397+1033059716
984+1031633109+1030016993+1027710034+1025259312+1023896600+1024212399
975+1024991959+1024359312+1021867493+1018430603+1014852649+1011354188
967+1008022964+1004821929+1001091288+996048931+990015380+984323052+979942064
957+976840096+974549111+972809030+971698372+971009854+969835751+967740500
947+965654997+964493868+963903217+963350663+962941497+962347621+960727305
937+958383074+956860775+956778582+956921520+956042818+954616361+953993763
927+954379831+954776548+954686705+954603162+954837668+954988780+954705679
917+954219794+953944267+954003212+954221894+954224294+953341317+951224542
907+948920508+947888518+947896693+947560045+946611974+945935305+945710549
897+945224364+944131479+942730820+941666433+941820246+943385816+944825922
887+944087008+941361284+939133518+938884614+939134193+937769456+935271563
877+933789311+934172379+935438574+936249632+935997353+934735132+932962279
867+931641863+931547821+932229665+932373728+931758479+931738605+933070345
857+934652414+935173246+935144973+936020226+937683738+938413053+937598920
847+936650099+936594903+936938225+937232350+937708261+937870773+936494262
837+933641348+931098158+930264677+930831630+931762003+932579811+933503509
827+934745556+935871963+936020376+935149323+934667263+935786170+937901745
817+939814462+941662534+944234221+947281069+949611051+950267321+949369271
807+948138697+947527123+946945471+945490742+943753436+942943803+942993523
797+942749269+941569091+940242526+940389214+942534936+945014906+946056345
787+946443088+948004684+950271521+950999636+949462938+947055187+945057203
777+943947744+944115881+945398724+946555879+946539005+945622731+944475326
767+943306698+942473592+942516638+943212430+943776159+944277417+945776393
757+948796393+952151240+953923419+954083680+954613286+956181707+956810604
747+954918436+951688529+949290527+948584461+948928532+949311750+949861155
737+951944182+955944351+959943620+961633005+960022139+955105321+948288535
727+942693623+940420412+940486106+941093106+942216363+944522572+947282868
717+948928532+948962654+948150172+947019790+945295008+943514130+943785683
707+947234422+951530367+953070289+951195444+947804075+944101632+939986572
697+935241115+929960653+924744834+920999045+920014901+920963048+920667647
687+916763470+910602355+905345141+902309467+901295401+902474378+904755689
677+904753740+900743897+894919129+888785912+879797531+866591049+856444839
667+859341175+870820324+879718037+882637471+881651827+879797156+879198780
657+879487582+878253109+874851165+871555938+869540330+867761702+866163660
647+865518563+864513721+861132326+856477387+853743188+853959770+855303434
637+855833565+855491818+855603484+856575254+856383644+852894633+847289972
627+843070897+842027358+842269438+841096535+839126823+838704233+839321132
617+838014740+833955401+829343733+825833949+823520315+822678660+824087493
607+828443883+836790542+849040927+860244850+861986656+852458169
##END=
