##TITLE=<SNM>
##JCAMP-DX=4.24
##DATA TYPE=INFRARED SPECTRUM
##DATE=2/5/2025
##SAMPLING PROCEDURE=Instrument type and / or accessory
##ORIGIN=Admin
##XUNITS=1/CM
##YUNITS=ABSORBANCE
##RESOLUTION=4
##FIRSTX=4497.3318
##LASTX=599.83466
##DELTAX=-1.4281778
##MAXY=1.8381871
##MINY=0.34012952
##XFACTOR=1
##YFACTOR=1.7119451e-09
##NPOINTS=2730
##FIRSTY=0.35792372
##XYDATA=(X++(Y..Y))
4497+209074291+209306032+210349982+211032794+210442839+208626911+206430695
4487+204982172+205066063+206522942+208202475+208923150+208687475+208493753
4477+208810187+208960700+208451938+208127149+209159731+211389511+213321118
4467+213596781+212183232+210128129+208538493+208039253+208649420+209645950
4457+210010622+209479734+208730752+208378562+208423040+208555397+208364095
4447+207637153+206927445+207089970+208026162+208738151+208706537+208361031
4437+208209247+208332342+208653737+209055385+209363236+209495488+209495784
4427+209458356+209527520+209806838+210131889+210000212+208923777+207122367
4417+205758537+205926737+207297618+208325170+208090626+207287278+207005783
4407+207323696+207593632+207547134+207430619+207313408+206944053+206197265
4397+205186007+204136069+203441541+203351313+203419310+202989896+202333075
4387+202447396+203634183+204961264+205281719+204405847+203096157+202087372
4377+201460006+200988933+200653925+200624800+201093923+202241297+204041889
4367+206018462+207410826+207709607+207036787+205995814+205147430+204648208
4357+204309056+203906817+203505012+203403573+203635610+203743003+203278267
4347+202266157+201050037+200174391+200303475+201569018+203144814+203904867
4337+203356274+201854464+200284726+199536302+199871867+200756339+201459048
4327+201737531+201791950+201785753+201793447+202038593+202621951+203109335
4317+203005790+202465013+201914280+201361526+200691597+200240178+200453275
4307+201205216+201927736+202274025+202407949+202678267+203185410+203706341
4297+203790371+202998060+201487424+200299993+200479318+201845481+203193488
4287+203769586+203907130+203957092+203426935+201846978+199867950+198680154
4277+198744234+199630186+200598479+200997655+200664439+200171850+200219549
4267+200740480+201107554+201147420+201260557+201590813+201848145+201953240
4257+202153837+202483832+202684760+202626547+202460139+202540688+203209643
4247+204261027+204865744+204559407+203870886+203543015+203711267+204067862
4237+204257754+204094410+203766731+203634618+203702668+203721834+203754580
4227+204081006+204597723+204794265+204356930+203526720+202851394+202695884
4217+202953390+203191851+203102824+202819049+202710125+202853814+202850733
4207+202299999+201422404+200997132+201541199+202666151+203452578+203426604
4197+202912063+202450530+202291677+202474379+202923831+203330736+203270346
4187+202624144+201733667+201042255+200740131+200847681+201448795+202544065
4177+203692101+204191549+203843154+203310925+203488526+204543496+205699313
4167+206016008+205319008+204234844+203423628+203055143+203027394+203325096
4157+203921248+204565814+204989414+205174292+205172011+204899046+204389101
4147+203878319+203381133+202692699+201990842+201794770+202215045+202838947
4137+203372656+203867212+204301815+204389640+203963063+203384911+203283594
4127+203774965+204281412+204304722+203982839+203673857+203467514+203337525
4117+203386252+203713809+204194404+204549224+204543722+204043055+203109144
4107+202180681+201851574+202252526+202909921+203346142+203535198+203681342
4097+203777002+203557307+202955932+202437839+202473596+202828258+202965054
4087+202934833+203181319+203740496+204250668+204455444+204292362+203843850
4077+203427005+203367416+203532082+203422026+202894689+202459147+202596395
4067+203093476+203379950+203251249+202896238+202519659+202280919+202319897
4057+202613020+202954330+203131044+203054655+202790917+202516873+202444280
4047+202765953+203482642+204162390+204193064+203511384+202752671+202513479
4037+202788497+203221115+203614302+204067949+204757411+205637008+206348231
4027+206482781+205987232+205268088+204792611+204662048+204726163+204954388
4017+205349925+205566138+205178731+204431786+204115997+204573352+205332204
4007+205774344+205691149+205233254+204737827+204477466+204386785+204287383
3997+204325507+204703062+205094717+205009573+204637206+204585903+204902163
3987+205128368+205194955+205450494+205925292+206295640+206527573+206982525
3977+207825739+208687370+209013465+208597560+207643246+206444796+205331264
3967+204862698+205582206+207348033+209174581+210040077+209810964+209131477
3957+208613872+208538615+209079739+210362865+212289215+214284711+215328435
3947+214988848+214375583+214771800+215568568+215081653+213177725+211308387
3937+210585902+211344023+213444823+215873773+216901585+215808439+214026387
3927+213709327+215470401+217685262+218372165+217765236+217742153+219064534
3917+220283665+219535276+216990055+214484282+213226782+213161831+214423491
3907+218156596+225006022+233131890+238808387+239866177+236939624+231417801
3897+225062652+220611014+220260895+223401607+226263818+225984134+224967933
3887+226747982+230363266+232317539+232553476+233112949+232759331+229707141
3878+226774495+227521997+231424886+235860178+239657798+242044131+241714920
3868+240081119+239963873+240725597+239085947+234460816+230181191+229505186
3858+233787126+243166263+255214238+260989163+253524469+240655145+231138395
3848+227394358+228696755+232902655+237907342+243215007+249139470+254180106
3838+255321370+252442464+248617826+245227894+241530826+237812640+235792407
3828+236140906+238181630+242261128+249433969+257198715+259477847+255986686
3818+252289008+249382980+244459711+238344608+234804355+235843222+240865474
3808+246882725+250717738+253369829+257462888+261179002+260662388+257470217
3798+255156633+253124126+249943340+247133024+246711878+248591870+251842046
3788+256279688+261732190+267086927+271898537+277715538+285427084+292693774
3778+297185086+300998792+308141098+320429902+336729405+353131826+364917839
3768+371088858+374021870+375382341+376596058+379602150+384032220+386540221
3758+385588431+384562063+388005978+397957000+412300767+424425931+430417365
3748+434867593+442222457+450176938+453461078+454064211+458453022+469495067
3738+486282181+504711748+518806609+525466214+527335221+529570954+535622830
3728+545798072+557315089+566388098+572087000+576058740+579075695+580885269
3718+581711614+582531099+585134012+590497487+595342679+593765681+585384833
3708+575444778+568682742+567180392+569426953+570937972+569401850+567483055
3698+567952805+571070068+576728199+585126700+594941866+602188728+602278486
3688+595565507+587767284+582824258+580919842+581566636+585467209+593957592
3678+606114057+614554164+610881328+601174651+596337398+596388579+594215934
3668+587339524+579940616+575028437+572644872+571757354+571521469+571946340
3658+573162077+574459146+575953140+580021635+588167470+596834096+597823384
3648+588530401+576138540+566836575+561927216+560269061+560191906+560779686
3638+562125150+564263640+566726936+570053797+576262627+585384415+591378425
3628+587959404+579941626+575238627+576025211+581074568+587648350+591714408
3618+591412615+589667800+589250624+589588279+590057541+592348633+596996412
3608+600764786+600811093+598930561+598545208+600633874+603667263+606036763
3598+607679703+609053997+610303297+611942338+615043550+620367474+626901912
3588+631391135+631293648+627838835+623529059+619447124+616169877+614485226
3578+614509319+615358365+615919056+615607654+615022381+615819062+618849526
3568+622194108+622726738+620421231+617601270+615193890+613161278+612142953
3558+612491819+613424703+614296240+614910758+614457164+612665416+611147120
3548+611235764+611932311+611234023+608603884+605386244+603300363+602817452
3538+602774627+601975440+600710541+599967339+600215445+601134263+601802539
3528+601668633+601267333+601031901+600250610+598513803+596808819+595848499
3518+594733522+592315487+589148889+587023804+586768178+587483735+587994778
3508+588276029+588720293+588859003+588050137+586905844+586682738+587451216
3498+587950143+587097477+585064169+582791356+581008486+579973275+579567588
3488+579385635+579057868+578506960+577858008+577363225+576957469+575775295
3478+573012294+569227696+565919219+563835218+562637690+561884113+561346609
3468+560958227+561041996+561863571+562713765+562426212+561043911+559857977
3458+559552320+559431261+558593636+557131778+555971574+555705956+555719744
3448+554944789+553430009+552171900+551419750+550292344+548374524+546664526
3438+546380525+547611964+549414435+550566980+550210698+548372470+545931073
3428+543863436+542606719+542043382+541710741+540963326+539490397+537886695
3418+537035038+536766739+535956062+534209924+532603089+532297223+533207197
3408+534367993+534966426+534733571+533830768+532529486+530874534+528920922
3398+527300125+526790580+527083077+526709804+524690632+521911268+520199425
3388+520163494+520716734+520804369+520707160+521090076+521784743+522323047
3378+522723338+523055526+522838964+521608813+519921586+518962484+519166233
3368+519831514+520224667+520564967+521347095+522177861+522206132+521340549
3358+520098734+518595618+516580938+514324976+512720230+512406216+513226850
3348+514657094+516335026+517856003+518458126+517609917+515882754+514595120
3338+514448054+514912128+515061841+514718233+514374486+514121854+513332206
3328+511604522+509501685+507959330+507242102+506873147+506588414+506906780
3318+508354815+510415454+511728365+511397431+509841741+508173942+506902741
3308+505583807+503857584+502498785+502750093+504521404+506155535+506339160
3298+505419088+504565691+504476873+505037181+505663085+505903809+505784387
3288+505508498+505166631+504944638+505164124+505777145+506254450+506301314
3278+506259325+506564147+507084590+507239038+506863120+506513210+506575497
3268+506711875+506604500+506488455+506422755+505863039+504458281+502667960
3258+501251991+500482154+500055055+499607414+499119943+498771147+498575789
3248+498351185+497897033+497137711+496294689+495882353+496116636+496448232
3238+496276759+495893773+495870515+495885660+495207879+493869448+492261115
3228+490315407+488223850+487003274+487301342+488419800+489037348+488374016
3218+486638985+484771684+483648769+483269543+482870263+481997298+481149994
3208+481011771+481300090+481088507+480237443+479501726+479139596+478514423
3198+477162448+475417598+473981192+473331508+473374611+473461862+472982190
3188+471994086+471070010+470657012+470762855+471060227+471080560+470419421
3178+469098851+467723060+466785580+465904817+464405496+462447462+460780672
3168+459675967+458817486+457895847+456774638+455445189+454172039+453339010
3158+452887226+452245724+451129807+450054069+449622096+449607229+449192838
3148+447971112+446401148+445277780+444815029+444416828+443575965+442633540
3138+442158951+441994197+441493426+440404770+439019371+437682123+436562689
3128+435797971+435495064+435523892+435545061+435329648+434833090+433986760
3118+432777012+431440599+430219152+429128269+428207187+427624979+427307658
3108+426799157+425751481+424437212+423582143+423607386+424162124+424535431
3098+424350762+423681372+422746607+421753803+420928851+420450258+420272866
3088+420122143+419772825+419333575+419063430+418919428+418527389+417645651
3078+416527262+415728284+415598068+416011519+416458986+416323165+415325939
3068+413857257+412572235+411679111+411024658+410665243+410741492+410970483
3058+410846535+410211648+409282837+408286656+407242427+405994136+404511632
3048+403222571+402754910+403194439+403856552+403941749+403223023+402038796
3038+400887435+400108407+399663098+399127928+398134880+396916531+396184576
3028+396331816+396908489+397019207+396185133+394733093+393383868+392535485
3018+391937504+391128846+390163339+389551640+389390716+389051983+388013394
3008+386594361+385558593+385245102+385270309+384975653+384136949+383187875
2998+382638881+382441435+382175782+381681347+381134965+380635621+380099545
2988+379498640+378871552+378180889+377457185+376955473+376874210+377023540
2978+376983361+376462675+375415208+374042203+372757354+371915412+371531973
2968+371381285+371259182+371052892+370715168+370264951+369728666+369071984
2958+368255249+367353212+366567116+366062375+365783283+365513626+365133947
2948+364658453+364052743+363293142+362528563+361922122+361455889+361071336
2938+360731941+360178804+359076327+357651097+356704703+356686772+357107535
2928+357141690+356549002+355692471+354876885+354091833+353345672+352832888
2918+352600486+352310530+351625612+350736492+350189693+350159541+350240003
2908+350065118+349722902+349382846+348940532+348255126+347439226+346750722
2898+346355654+346243718+346247966+346095955+345543689+344612859+343653758
2888+342962746+342450520+341951210+341578426+341414055+341234992+340916034
2878+340635862+340429294+340060896+339458076+338778310+338118147+337562121
2868+337265481+337163537+336938376+336491187+336068580+335789383+335442746
2858+334878085+334276170+333929568+333923962+334044220+333932075+333434576
2848+332781306+332264205+331869068+331441133+331008951+330677355+330397601
2838+330099046+329872457+329747151+329448248+328717023+327767044+327029343
2828+326532158+325991451+325429158+325166116+325227638+325243479+324947222
2818+324440741+323984778+323723791+323584279+323363157+322910433+322207131
2808+321314425+320355011+319521981+318986149+318737556+318562984+318257605
2798+317852127+317543232+317416985+317331963+317047125+316441416+315662735
2788+315024089+314679123+314471092+314156765+313660902+313043250+312350846
2778+311619830+310933833+310345879+309775161+309124223+308468099+307966178
2768+307618288+307271198+306833932+306351335+305888723+305427120+304886657
2758+304238262+303569812+303006126+302573038+302160667+301639562+301031450
2748+300508152+300167468+299911703+299583415+299068681+298296756+297352068
2738+296521894+296022619+295776115+295593953+295411130+295206232+294890861
2728+294433575+293947357+293522904+293102594+292632357+292187014+291834214
2718+291538479+291262677+290974794+290568324+289998580+289439281+289079953
2708+288839037+288461169+287859568+287237128+286850800+286720323+286618919
2698+286316204+285779275+285169735+284668389+284284706+283910337+283559975
2688+283359046+283279159+283133555+282852339+282531727+282209584+281787237
2678+281196638+280530416+279960289+279561427+279270044+279005418+278759332
2668+278534101+278263313+277891277+277528206+277377170+277430788+277406886
2658+277106155+276670578+276369099+276269644+276222711+276095020+275928108
2648+275813978+275682944+275367381+274828294+274167834+273519508+273031758
2638+272792549+272708100+272609064+272444675+272269007+272143892+272120408
2628+272195630+272257186+272118110+271639970+270922254+270325770+270097215
2618+270049307+269854315+269489190+269151204+268951704+268874932+268833378
2608+268696826+268431957+268175373+268061435+268090037+268218999+268437179
2598+268678182+268773389+268586074+268178194+267772124+267517194+267362416
2588+267192875+266975409+266705421+266367888+266065155+266018814+266310475
2578+266744485+267050996+267110011+266965642+266763896+266660768+266665677
2568+266648791+266573499+266550311+266598411+266595974+266538804+266576076
2558+266708032+266725823+266530327+266260217+266059793+265949685+265912692
2548+265891001+265753944+265453892+265118205+264855859+264624379+264385674
2538+264197001+264050283+263822754+263499880+263251148+263147881+262989986
2528+262576692+262011370+261595221+261516639+261706687+261904760+261854380
2518+261521426+261125279+260925987+261001627+261215316+261359945+261339995
2508+261215090+261093422+261027461+260973756+260808463+260465969+260091879
2498+259928100+260026684+260204476+260273292+260202022+260056592+259882159
2488+259695575+259546593+259482513+259449489+259341887+259144493+258914475
2478+258679443+258480987+258419291+258513593+258608156+258526580+258246182
2468+257862552+257461966+257076246+256715926+256406595+256181191+256032958
2458+255908452+255779473+255677233+255606955+255490110+255252049+254917528
2448+254595176+254398356+254354469+254366603+254315770+254190394+254046009
2438+253893998+253738175+253658200+253732343+253901466+253993383+253888671
2428+253624602+253336457+253132883+253044970+253060586+253163313+253321208
2418+253469162+253548423+253551939+253485805+253338407+253150953+253028328
2408+253014854+253070143+253195066+253440769+253789861+254161740+254511076
2398+254825699+255094154+255411006+256146792+257964879+261597292+267571021
2388+276184795+287732086+302650715+321372674+343983683+370013677+398598188
2378+428856453+460030438+491262531+521475952+549506805+574039393+593836569
2368+608891889+620620593+629861837+635538247+636174074+631791460+623054713
2358+609842809+592128660+570419235+544992653+518204659+496187210+484741881
2348+486012733+498613809+517645709+535811433+548024858+553810245+555342920
2338+555275758+554973095+554500003+553980186+553564054+552642973+550384295
2328+546630266+541731422+535961076+529285490+521468640+512365236+502127428
2318+491180294+480140408+469586392+459666148+449984679+439942472+429103897
2308+417353119+404975602+392609192+380922825+370226791+360380499+351071849
2298+342144549+333651764+325725624+318503169+312061518+306284417+300883478
2288+295666547+290707487+286208532+282311719+279059906+276393175+274144089
2278+272146573+270383340+268939848+267793031+266766803+265750706+264809553
2268+263995029+263236385+262507476+261886255+261360102+260775195+260035928
2258+259200670+258376484+257639758+257036259+256569399+256185891+255806352
2248+255379340+254909085+254447570+254075481+253848144+253707780+253499139
2238+253139516+252730399+252453849+252395478+252481284+252556297+252520941
2228+252385190+252201443+252009567+251844657+251724312+251640456+251601914
2218+251623935+251662042+251650518+251614796+251658613+251835866+252085799
2208+252290087+252363168+252295101+252147321+252034183+252068129+252267770
2198+252540386+252794358+253019432+253216026+253334090+253358740+253385915
2188+253518915+253741361+253953639+254072470+254069475+253996638+253970334
2178+254044094+254141494+254179236+254174518+254199743+254301443+254440345
2168+254472359+254267792+253871437+253472174+253227846+253149560+253130585
2158+253095611+253092774+253148098+253109747+252813246+252348266+252003318
2148+251969719+252206387+252607008+253223929+254236875+255721329+257576043
2138+259679298+262005816+264597222+267498359+270714867+274216943+278006521
2128+282159395+286789261+291976180+297688191+303738604+309854021+315804127
2118+321469221+326777965+331547812+335434216+338107946+339416992+339339246
2108+337892916+335131796+331197102+326400376+321158411+315754095+310284358
2098+304829174+299474055+294256322+289275537+284711527+280633283+276969273
2088+273712690+270986038+268857123+267179627+265690943+264289144+263103315
2078+262233275+261580302+261002532+260473925+260040036+259734030+259577511
2068+259606914+259799556+259951949+259815223+259421096+259040878+258834727
2058+258792981+258888571+259036595+259098656+259078428+259113140+259267780
2048+259505544+259770553+260010947+260193492+260277836+260216558+260094107
2038+260115711+260326928+260567965+260760450+260984741+261276942+261560856
2028+261756040+261862945+261961547+262132184+262437755+263000971+263871098
2018+264728551+265042635+264674672+264041579+263627884+263599317+263837256
2008+264115373+264263693+264282216+264276158+264290102+264288709+264254484
1998+264247242+264471359+265229671+266510881+267676116+267993438+267457170
1988+266638311+265977295+265622005+265589678+265758784+265930170+266017369
1978+266062335+266140029+266304452+266534069+266831945+267429595+268532839
1968+269744711+270244682+269804857+269099205+268790658+268891940+269155992
1958+269543870+270061057+270531608+270801456+270973017+271296361+271907433
1948+272789380+274027000+275790093+277657324+278394660+277317894+275406602
1938+274109185+273817367+274034172+274291643+274489612+274688556+274905883
1928+275257725+276203875+278041477+280078110+281307477+281945166+282779815
1918+283299388+282377680+280541732+279524834+280078614+281463440+282483767
1908+282562819+282030363+281569335+281501042+281683361+281945985+282426075
1898+283389041+284672619+285647928+286218734+287215368+288899044+289947921
1888+289184717+287413946+286142676+285786882+285930798+286198627+286423614
1878+286584990+286774185+287152175+288244086+290993177+295581767+299953553
1868+300861717+297791109+293662033+291051304+290256991+290342466+290527918
1858+290596107+290655174+290829363+291129276+291648657+292699519+294641049
1848+297828120+302308395+306584678+307564913+304382404+300174780+297859351
1838+297580606+297949213+298320361+299780095+303556407+308554340+311615339
1828+311553051+310325442+309069039+307020481+304288224+302373955+301996122
1818+302447558+302950767+303763220+305627631+308353516+310456945+310715705
1808+309677986+308939485+309733345+312443842+316321053+319475118+320361278
1798+319672286+319821824+322674374+327697723+331234008+329682357+324786403
1788+321197684+320890495+322675523+324845104+326916780+328678794+329533271
1778+329916396+331821473+336980609+344648581+350727301+351318771+347559171
1768+342792074+339032787+337794210+339816794+343346742+345427122+345852237
1758+346370312+347169604+348120176+351009074+357354073+365155708+369772500
1748+369382237+366657361+364715761+364868608+366869745+369273644+370516712
1738+371553838+375607745+383445520+389508537+387803448+381481776+375588944
1728+371463035+369452742+369655968+371303330+374341976+380567693+391231556
1718+403130689+408435429+404092123+395828085+389266002+386545966+388125157
1708+393431533+400177797+405436056+409555628+415874828+424879352+431500171
1698+432286824+428963306+422339667+414376378+409592395+409858918+413718582
1688+420093384+430115189+442699310+449235906+444246190+435647039+430914376
1678+431637489+436311833+441483224+444755770+447847408+452351950+455037588
1668+452499574+448504507+448538593+452741795+456659394+457110413+456516680
1658+459355651+468494464+484692684+502710089+508768197+503868378+502532627
1648+507576588+511484891+507763172+501155374+498563046+501688526+510079645
1638+522998252+537070691+544334578+541978657+538403204+540527244+548668657
1628+559487700+570199192+581016877+592217164+601889303+609797477+619410009
1618+632996682+646775824+654240709+656475189+659047532+663915563+669630202
1608+674187458+676978869+678890178+680924600+683140139+685164256+687234748
1598+690096768+694072163+698550105+702510041+705628453+708494442+711726009
1588+715522027+719783478+723882821+726819210+728560822+730948287+736457297
1578+745753692+755436554+759979604+760518430+763556067+771803149+782350724
1568+790721963+796720221+802930096+811049539+822997311+841799070+866196743
1558+882234737+882372960+877725320+874802649+874013906+874593120+875071505
1548+875162168+876940059+881621680+887623559+892482190+892396331+882619812
1538+868220581+859142907+856602665+855201632+850101233+843425299+840328056
1528+841994254+845887620+849988147+854742675+859237400+859771839+856083893
1518+852041231+848824775+845184249+841767178+841300422+846106967+856330884
1508+867360325+867994689+854556126+840302152+833497395+833258342+836445065
1498+839282016+838368560+834378820+832179645+835166309+841897045+846558612
1488+844354771+837316602+830473825+826164675+823893916+822804425+823425559
1478+826800571+832755447+839805941+845283268+845206741+838643613+830995173
1468+827648920+829120074+831602937+831223294+829673454+831989335+840219497
1458+849808771+850564158+840876283+830558917+824899359+823239497+823203566
1448+822317824+819561230+816222427+813956055+813086537+813819433+817280931
1438+823322222+827839647+826657543+822358281+819570560+818770468+817873723
1428+816151888+814929396+815222694+816942371+820020047+824289506+827466131
1418+825899300+820007165+813976109+810181623+808241833+806904446+805716841
1408+805444643+806617903+807971724+807792974+806746586+807034940+809402351
1398+812669013+815170329+815407224+812852707+809542454+808495092+810184756
1388+811974276+811181704+808733030+807848890+809912976+813756693+817906242
1378+822356540+827817643+833563478+837244879+837905008+837436093+837683642
1368+838823408+840991805+844622652+848436845+849667623+847723307+845201936
1358+844323854+844886913+845403944+844933707+843825972+842985909+842898031
1348+843479961+844446897+845678510+847515311+850599532+854968150+859302855
1338+861654668+861284077+859303691+857430054+856662341+857094558+858433199
1328+860341514+862540759+865148267+868802789+873868372+879537192+884259619
1318+887304775+889373875+891407879+893565553+895703938+897994821+900676350
1308+903873657+907741746+912101659+916045858+918630179+919950157+921014650
1298+922515467+923985368+924366265+923375445+921815021+920364827+918704060
1288+916254133+913271995+910722770+909395758+909309134+909596234+909151135
1278+907872867+906790130+906556578+906805310+907249226+908110388+909193263
1268+909924488+910642134+912483322+915611274+918513054+919586738+919019014
1258+918477611+919205493+921053296+923144052+924720005+925327072+925018525
1248+924583174+924784695+925236409+924936914+924038707+923826881+924654897
1238+925311753+924828076+923474186+921618444+919100137+916012225+912985800
1228+910769634+910134016+911366535+913399912+914534735+914414059+914135037
1218+914338646+914545389+914587796+915352863+917295089+919236828+919782966
1208+919424074+919903015+921873722+924388478+926572195+928626950+930970755
1198+933442756+935700841+937793059+939867799+941583019+942420088+942597166
1188+943185572+945144511+948284927+951247846+952816627+953375717+954698550
1178+957941885+962168241+965604948+967866725+969633753+970901158+971229621
1168+971045021+971151631+971708492+972668673+974180354+975910824+977006234
1158+977218547+977323068+978165359+979500796+980260362+980424907+981618918
1148+984912458+989102952+992205418+993647674+994374512+995458780+996928471
1138+997648973+996675283+994828524+994487388+997345996+1002230809+1005978292
1128+1006937220+1006528330+1006963193+1008860158+1011205773+1012693430
1120+1013218678+1014118347+1016519809+1020022460+1023624200+1026698673
1111+1028352824+1027798887+1026239577+1026396601+1029352766+1033417362
1103+1036518992+1037942586+1037843288+1036921197+1036120826+1036213508
1094+1036427284+1035113433+1033279278+1033489712+1035316137+1036124168
1085+1035604700+1035319828+1035090106+1034356931+1035556026+1041508534
1077+1050160049+1056042576+1057063617+1055726438+1053914984+1051629741
1068+1050164506+1051737047+1056494708+1061344426+1063140839+1062541013
1060+1062435936+1063194945+1062032617+1058602176+1057309633+1061025154
1051+1067292547+1072113923+1073741823+1072518566+1069887034+1067922872
1043+1067557225+1066952177+1064055410+1059807259+1057030192+1057332960
1034+1059883995+1062774565+1064579335+1064442434+1062120355+1058611855
1025+1055442680+1053339530+1052520636+1053143093+1054915343+1057221268
1017+1059709284+1062346108+1064876253+1066224782+1064779184+1060517036
1008+1056559885+1056141386+1058633163+1060623367+1060396013+1059265786
1000+1058517501+1057740805+1056690518+1056143754+1055998846+1054521912
991+1051015501+1047617649+1046618891+1047389598+1047369056+1045403015
983+1043040966+1042328124+1043021677+1043096951+1041664305+1039790250
974+1038733417+1038382254+1037398397+1034715197+1031125643+1029148739
965+1030092904+1031816689+1031028504+1027012303+1021633439+1016793191
957+1013717605+1013259553+1014819212+1015829877+1013751447+1008459067
948+1001908126+996169393+992145115+989365820+986825439+984189450+982010538
938+980764163+980150828+979626415+979239043+979329636+979786573+980415645
928+981428121+982734591+983472918+983005815+981729566+980261755+978568887
918+976513505+974611039+973589441+973471133+973596962+973639438+974086488
908+975056626+975056487+972304419+967447529+963411552+962187947+963039081
898+963799343+963230505+962085585+961870347+963121876+964714610+964655004
888+962414814+959911339+959314577+960664568+961975007+961477403+959591162
878+958263733+958352934+958631678+957849690+956488558+955619249+955277416
868+955112593+955710817+957934225+961048946+962400887+959878820+954804812
858+950842508+949949941+950862632+951327647+950773501+950155779+949764367
848+949148943+948998465+950453324+952637598+953438248+952725546+952208097
838+952633559+953476338+954114392+953826596+952212484+950449494+950588832
828+953313185+957189561+959694151+959135409+956538624+955124361+957198614
818+961830656+965685445+966308807+964389908+962460842+962227499+963677693
808+965758352+967228113+967191973+965116397+961117954+956642657+954017392
798+954593334+957514612+960297319+960859334+959591580+958761684+959642552
788+961167602+961794237+961824807+962773289+964844338+966184789+965006028
778+962052231+959862804+959779661+960759061+960966082+959995665+959109227
768+959343405+960126159+960194539+959292990+958386079+958334202+959254135
758+961011066+963382515+965836620+967585752+968074025+967795907+968006619
748+969283703+971082345+972209090+971432325+968714238+965706683+963859437
738+962653240+961295659+961123872+963531462+966277750+965675070+962458683
728+961409650+965112776+970958188+974095749+973026591+971126841+971785020
718+974438069+976020219+975188373+973613744+973443210+974868475+975776083
708+973660398+969164421+966140502+966893522+970011029+972922558+973591182
698+970458356+964330789+958868363+956814096+957373325+957474642+955094349
688+951201679+947929864+946013123+944777193+944257655+944808597+945200427
678+943645921+939650124+933854500+927976570+924460619+924472526+927620045
668+933422005+939996413+943675168+943541889+941588799+939387534+936102211
658+930123798+922413175+915417900+910049759+906410835+905187090+905707324
648+905316261+902637447+899699457+899330816+900974522+900600449+895889790
638+890246804+888923065+892514151+896748863+899137860+901765771+904137987
628+901252152+893565483+888287378+887677804+887139465+884944746+884754019
618+887871107+890724005+890499088+888016503+884928103+881808717+879042861
608+877409043+876182304+872852275+868046357+867245150+872020220+874283320
##END=
