##TITLE=<SNM>
##JCAMP-DX=4.24
##DATA TYPE=INFRARED SPECTRUM
##DATE=2/5/2025
##SAMPLING PROCEDURE=Instrument type and / or accessory
##ORIGIN=Admin
##XUNITS=1/CM
##YUNITS=ABSORBANCE
##RESOLUTION=4
##FIRSTX=4497.3318
##LASTX=599.83466
##DELTAX=-1.4281778
##MAXY=1.7619742
##MINY=0.22053829
##XFACTOR=1
##YFACTOR=1.6409664e-09
##NPOINTS=2730
##FIRSTY=0.24067011
##XYDATA=(X++(Y..Y))
4497+146663649+147455760+148281062+148580408+148253220+147489414+146517431
4487+145475291+144605648+144320350+144778618+145630199+146321224+146463274
4477+146045352+145514874+145408139+145793961+146325910+146689438+146726860
4467+146411014+145979407+145852096+146176840+146574985+146446374+145532472
4457+144267800+143543285+143920717+145000723+145747277+145555764+144840094
4447+144472298+144889621+145790710+146444704+146321251+145589399+144935497
4437+144827690+145052701+145002739+144376660+143550396+143171185+143414158
4427+143830600+143954143+143814436+143679778+143543912+143231671+142822503
4417+142602677+142755315+143341811+144275119+145090287+145177443+144446845
4407+143353389+142302559+141510820+141216813+141438374+141699181+141489062
4397+140890189+140403871+140327602+140654889+141348665+142186644+142498703
4387+141709370+140118327+138666992+138012626+138047196+138113113+137596847
4377+136540840+135688642+135769887+136798133+138157835+139208847+139662348
4367+139548948+139078485+138486975+137828114+136984261+136026363+135322788
4357+135133119+135412951+136063975+136975634+137853849+138338206+138216887
4347+137476818+136409560+135585884+135390921+135684846+136066772+136269980
4337+136210592+135911973+135539409+135363933+135470187+135567559+135384428
4327+135112987+135041531+135007324+134746880+134446235+134395374+134489051
4317+134580575+134890355+135531563+136046613+135998276+135737405+135957376
4307+136660760+137213903+137347145+137488087+138081085+138999201+139617752
4297+139302288+138055786+136735086+136310589+136893990+137815420+138574250
4287+139191685+139596585+139324400+138199334+136824931+135953317+135707348
4277+135752179+135907469+136279697+136987176+137920938+138705467+138986261
4267+138855072+138785459+139022965+139263731+139115280+138673330+138358138
4257+138335309+138468106+138650955+138782072+138683673+138441590+138405639
4247+138563471+138505028+138234686+138304498+138995841+140012782+140935565
4237+141431936+141261354+140553730+139797632+139305575+139075515+139212371
4227+139921630+140999493+141794402+141797925+141072148+140128016+139519681
4217+139479943+139888530+140519550+141150034+141454065+141101960+140143508
4207+139197796+139092196+140162741+141848505+143112151+143416273+143172728
4197+143067537+143115211+142753835+141842357+141035698+140941967+141358536
4187+141678277+141715109+141736312+141868755+141927725+141885091+142118792
4177+142938128+144080837+144979175+145404507+145599216+145859269+146139355
4167+146101788+145602312+144963402+144513770+144187118+143996295+144364246
4157+145358631+146184514+146132808+145517162+145116512+145207510+145549426
4147+145866053+146021170+145965877+145670844+145049105+144091116+143158263
4137+142840601+143336309+144214996+144925190+145286103+145442546+145619538
4127+145912156+146131845+145976774+145434046+144804244+144336650+144091225
4117+144076079+144283310+144652650+145093310+145422786+145343793+144758695
4107+144103112+144059525+144856948+146035217+146908620+147097099+146667136
4097+145992139+145502406+145418745+145693573+146132009+146449117+146407118
4087+146109816+145947561+146094578+146321142+146390583+146371767+146476005
4077+146773635+147130898+147348572+147339627+147157686+146858548+146422892
4067+145897645+145540981+145628782+146078251+146451169+146373438+145821030
4057+145056770+144437419+144239886+144574265+145349668+146164018+146420885
4047+145979462+145488631+145591615+146074610+146253809+145884423+145317050
4037+144976115+144919514+144903968+144833229+144928731+145303039+145706214
4027+145918231+146063268+146372149+146865114+147353366+147657443+147783357
4017+147842899+147832447+147646855+147238985+146650200+146051980+145800254
4007+146209649+147211716+148361108+149186810+149545761+149655784+149739154
3997+149744929+149522224+149079866+148604436+148368482+148537765+148987697
3987+149466832+149860209+150091295+150043176+149838361+149860263+150285786
3977+150889808+151390874+151706238+151816206+151612734+151052580+150388316
3967+150045937+150245903+150863502+151590441+152121790+152305884+152233565
3957+152126439+152155371+152429236+153082176+154185866+155415868+156008040
3947+155587457+154914013+155061774+155998959+156608203+156145595+155086601
3937+154502456+155149930+156962406+158998703+159994496+159446347+158216544
3927+157656772+158167654+158878002+158953954+158897108+159804309+161621489
3917+162725523+161579409+158705178+156188220+155414869+156094180+157503181
3907+159911879+163910394+168690287+172189725+173280102+172265604+169490789
3897+165655128+162636931+162166350+163966876+165654310+165473168+164976326
3887+166405141+169052535+170532929+170777891+171163821+170896921+168746805
3878+166461351+166465274+168719381+171734745+174542141+176252931+176069591
3868+175327442+176041277+177517531+177267066+174879798+172608582+172465234
3858+175232167+181173048+189035048+193213252+188923936+180789987+174532624
3848+171990222+172970213+176287401+180443703+184541888+188268326+190726986
3838+190491033+187844093+184883232+182798280+181284142+180067924+179557533
3828+179856216+180598620+182240996+185714391+189887673+191654836+190881722
3818+190132562+189209815+186259634+182303308+180054775+180765179+184053617
3808+188197660+191257754+193737536+197317466+200745948+201034842+199113924
3798+197945562+197548044+196611749+195616501+196017706+198174868+201506894
3788+205559784+210145150+214987754+220112878+226195927+233506963+240985120
3778+247685731+254506771+263117603+274428533+288198505+302510470+314527154
3768+323484343+330507810+335626468+338678100+341119107+344060608+346732992
3758+348798384+352416580+360322076+373347974+389244070+403016621+412107769
3748+420090415+431022407+444260103+454669809+460780300+467550306+478956493
3738+495224173+513384638+528379564+536454942+538857447+540262380+544183981
3728+550842766+557934847+563553345+568182262+571615974+570916322+565225506
3718+558827192+556638992+559769771+564918432+566602979+562922344+557558361
3708+553375162+550749417+550537146+552904018+555098502+554664116+553368733
3698+553900064+556412555+560275458+565816152+572684557+577980725+578623604
3688+576248741+575032941+575795940+577233818+579092024+582119792+586824442
3678+592355474+595085793+591884656+586808823+584718440+583473328+578727560
3668+571829807+566674317+563934336+562535614+561842210+561956954+563280960
3658+565260557+566127294+565683211+566476793+570601439+576644188+579344832
3648+575721950+569418620+564829550+563103377+562635211+561659215+560680858
3638+561526564+564428509+567747041+570809678+575332423+582453962+588799281
3628+589427122+586049711+583537692+583852938+586778275+590920937+593749110
3618+593973695+593614244+594936978+597719529+600665461+603607034+606954153
3608+610038911+611669881+612514679+614996768+620355266+626615298+630624837
3598+631954618+632124464+631527461+630347112+630668352+634529476+640675091
3588+644816700+644086537+640158071+636162480+633768584+633419884+634562239
3578+635759950+635802811+634722132+633801347+634689805+638206297+643487355
3568+647895864+648946032+646922701+643751349+640339976+636867725+634128253
3558+633058035+633434486+633847477+633164752+632043609+632466553+635433988
3548+639456313+641718067+640949837+638297903+635382628+633016337+631519397
3538+630846044+630186420+628723479+627176051+626984630+627659073+626872973
3528+623917743+621084121+620784966+623136001+626425402+628502999+627913697
3518+624921199+621230648+618358088+616898344+616924423+617876955+618277742
3508+616910693+614440882+612551147+611792798+611498292+611274688+611170223
3498+610335451+607327007+602685959+599412031+599516096+601637716+602927869
3488+602232467+600748568+600246005+601462495+603799364+605924508+606656959
3478+605637666+603515174+601261229+599221990+597074253+594698337+592551690
3468+591150934+590782438+591508024+593012773+594574258+595182775+593986117
3458+591305633+588769714+587763352+588198210+588994516+589123208+588239436
3448+587067514+586867412+587844352+588671533+588020591+585842016+582958669
3438+580216690+578211557+577138361+576637287+576214089+575775090+575417673
3428+574978202+574287305+573652780+573534077+573833377+573960435+573449517
3418+572324125+571028669+570068582+569731433+569983659+570364469+570155394
3408+569061385+567656379+566664510+566140625+565659564+564777572+563128077
3398+560705013+558252745+556677785+556138862+556277688+556850318+557390040
3388+556931827+555148446+553160893+552140910+551798567+551247331+550671831
3378+550984171+552202913+553249993+553260818+552276249+550667981+548681917
3368+546749394+545532468+545342100+546036812+547593429+550158298+553264450
3358+555550976+555770802+553931229+551344059+549491736+548880131+549059022
3348+549479423+549858561+549892451+549412625+548843663+548701641+548524385
3338+547390094+545708271+544971352+545470465+545928933+545597160+545090528
3328+544971207+544972297+544726173+544119072+543118994+542106130+541821613
3318+542318219+542635355+542106820+541361256+541442329+542388032+543229452
3308+543241075+542672622+542191598+542209796+542829573+543735793+544121360
3298+543442304+542184551+541295512+541129226+541367540+541583589+541532809
3288+541297764+541405679+542406811+544061500+545218639+544956678+543788497
3278+543024482+543084487+543360432+543446481+543492829+543603614+543698271
3268+543623010+543028913+541767928+540482170+540132417+540937949+542175543
3258+542935200+542835239+541987972+540482606+538296222+535841884+534163476
3248+534128860+535321050+536096834+535342335+533967368+533756260+534943510
3238+536035521+535851292+534535531+532534285+530040464+527859529+527412394
3228+528959531+530746109+530925181+529602265+527939185+526317985+524642120
3218+523414333+523244923+523827542+524195602+523754497+522760448+521904282
3208+521494886+521117128+520300662+519310536+518702782+518357206+517802991
3198+517199159+516893720+516329299+514712095+512496870+510897428+510258617
3188+509902399+509242158+508476108+508247092+508666476+508844386+507856149
3178+505882145+503624532+501160895+498369481+495879946+494595859+494619179
3168+495275279+495827968+495679771+494348210+492019586+489864476+488935263
3158+488941220+488891712+488460777+487859379+487098524+486142360+485197420
3148+484372745+483554426+482807700+482312765+481850447+480961371+479630719
3138+478255243+477047507+476046521+475484678+475450717+475408073+474746706
3128+473615248+472638053+472109701+471878542+471626279+470983836+469785362
3118+468411885+467486559+467015778+466252307+464770660+463302670+462984518
3108+463980964+465288407+465714075+464746687+462804320+460941719+459987262
3098+459826533+459746441+459249980+458257130+456980271+455964066+455742605
3088+456222067+456856410+457364713+457710216+457601211+456705452+455221045
3078+453680845+452321425+451091205+450141579+449773555+449823027+449634148
3068+448917606+448133613+447715500+447506934+447259503+446991331+446551424
3058+445558756+444110453+442887389+442225404+441625459+440524221+439094843
3048+437919252+437284074+437098428+437099372+436994835+436764075+436710318
3038+436843477+436634948+435834464+434916039+434296117+433781784+433073161
3028+432150087+431023824+429709116+428437997+427498905+426955732+426661480
3018+426355642+425798557+425048998+424453267+424150951+423865780+423373060
3008+422798032+422242038+421532906+420510961+419210166+417732187+416251194
2998+415054791+414322376+413979270+413884939+413970117+414116716+414132262
2988+413887119+413293639+412216665+410683948+409136956+408127325+407748368
2978+407605983+407287322+406653306+405852277+405229267+404957354+404731425
2968+404160030+403327146+402607698+402140659+401746083+401155109+400268686
2958+399359051+398850458+398790308+398754893+398318328+397427255+396306984
2948+395156202+394070656+393236283+392870766+392796812+392451745+391598556
2938+390637053+389995954+389618923+389165577+388407191+387383212+386349027
2928+385554899+385020154+384555475+383968170+383219010+382451399+381887740
2918+381629012+381524439+381298619+380843675+380333048+379996335+379833681
2908+379637937+379276161+378832331+378393369+377835050+377049858+376244434
2898+375656948+375120059+374345473+373496861+372992082+372846282+372648686
2888+372124328+371368812+370581659+369904237+369533416+369631924+369962426
2878+369935365+369251151+368197497+367157899+366253786+365579197+365230715
2868+364972569+364392674+363463280+362528292+361836959+361441584+361293423
2858+361136617+360656210+359919110+359284258+358845587+358387192+357837808
2848+357337860+356942340+356598217+356269822+355875464+355305304+354622143
2838+354011991+353465077+352785439+352007875+351495759+351457329+351594157
2828+351404080+350683615+349632757+348644448+348050423+347878398+347794783
2818+347393015+346571864+345609452+344888189+344516351+344187919+343506575
2808+342494583+341638924+341318338+341319246+341097749+340411755+339481562
2798+338671598+338275642+338366304+338498556+337895378+336369090+334694823
2788+333698086+333401255+333358358+333339071+333294938+333003084+332199077
2778+330993992+329844336+329094051+328742263+328602420+328428615+327967932
2768+327198686+326452577+326035191+325822230+325454787+324801375+324004233
2758+323173891+322266981+321271879+320329990+319566592+318919318+318263690
2748+317629202+317149558+316834856+316537699+316164190+315776553+315410599
2738+314941235+314262469+313459406+312676612+311984334+311449879+311108008
2728+310790872+310232045+309418848+308660099+308225096+308026410+307759582
2718+307302930+306805851+306342844+305716855+304764650+303686042+302880001
2708+302524890+302436916+302329672+302126355+301935097+301756116+301395339
2698+300738130+299937102+299233473+298740426+298449298+298271443+298034218
2688+297607370+297050921+296499521+295963504+295389203+294801771+294252387
2678+293754927+293342463+293022240+292679261+292238011+291860234+291720991
2668+291682034+291469436+291069630+290675654+290366528+290077688+289751854
2658+289346109+288849176+288380756+288089174+287935528+287755893+287479966
2648+287128942+286690579+286159647+285652271+285347231+285279307+285243166
2638+284956633+284304691+283418685+282595518+282138794+282134635+282352990
2628+282449064+282245310+281801427+281301787+280896115+280589114+280294008
2618+279973114+279652655+279351811+279073051+278795362+278470763+278114272
2608+277832097+277666973+277528765+277359881+277241687+277246027+277276194
2598+277158417+276874844+276588111+276370282+276035531+275409306+274679652
2588+274246628+274218732+274295482+274211558+274050267+273972663+273868688
2578+273517101+272961633+272491978+272295980+272296270+272318046+272280379
2568+272180237+271996879+271704316+271347571+271074314+271080089+271428135
2558+271883588+272088031+271958667+271727490+271572519+271434165+271206130
2548+270912695+270647792+270421646+270143740+269771448+269377581+269023069
2538+268711891+268500092+268436400+268411791+268282300+268060204+267819565
2528+267581523+267397711+267342645+267393061+267475169+267569336+267663104
2518+267707890+267665592+267508441+267232696+266949668+266822701+266834633
2508+266780185+266560868+266301885+266110010+265919405+265681381+265512008
2498+265508448+265550982+265422708+265061241+264611618+264271890+264133409
2488+264153096+264232044+264280462+264225233+264022479+263691668+263320629
2478+263019422+262827800+262641264+262296433+261789020+261336183+261152643
2468+261225943+261367784+261420906+261346462+261157892+260859990+260461655
2458+260017807+259639668+259422439+259346669+259303844+259210767+259028608
2448+258754315+258502852+258455469+258597237+258692403+258620574+258503615
2438+258450456+258437198+258453289+258524900+258588102+258523047+258318386
2428+258085175+257902652+257738509+257554516+257404847+257363494+257415272
2418+257476694+257480671+257436684+257433324+257530070+257638839+257626562
2408+257536845+257558402+257759104+257996765+258114251+258118992+258148740
2398+258326577+258655844+259017021+259316939+259762384+260990679+263795243
2388+268694311+275867428+285484223+297887710+313379278+331976998+353460573
2378+377480030+403477741+430575417+457625911+483360135+506619608+526700029
2368+543318225+555993280+564064808+567706686+567848091+564727846+557415939
2358+544954717+527446755+505595267+480437123+455373601+436262020+427656800
2348+430882709+444506518+464060293+482706941+495541489+502071510+504061423
2338+503749410+503026947+502678575+502355337+501088976+497958197+492844660
2328+486545762+479854540+472770777+464834661+455992034+446696643+437279461
2318+427735621+418067230+408418017+398857251+389250608+379425738+369427027
2308+359527222+350007937+341056523+332819036+325344148+318497573+312094065
2298+306074563+300469704+295302954+290607331+286413362+282646206+279139903
2288+275829598+272852138+270382000+268417549+266793861+265353240+264045507
2278+262914412+262023285+261343211+260723960+260049045+259384699+258871765
2268+258521812+258238276+257990281+257832876+257753874+257609835+257271179
2258+256790137+256348686+256032950+255747252+255382116+254952144+254515416
2248+254078905+253653600+253308152+253112244+253072779+253128880+253179750
2238+253157357+253112426+253175119+253369392+253532300+253522965+253452244
2228+253557054+253886684+254270254+254556606+254727378+254821363+254904397
2218+255088318+255463534+256020019+256682839+257383635+258066196+258669737
2208+259159788+259571362+259989294+260478599+261046962+261672569+262339875
2198+263043449+263807175+264697449+265726767+266732911+267479528+267917473
2188+268235680+268634342+269148020+269688414+270171981+270584100+270953595
2178+271302131+271624206+271860468+271894685+271686881+271399367+271246321
2168+271228741+271143563+270839486+270369050+269892095+269492434+269130276
2158+268721262+268192783+267545145+266940278+266602948+266603184+266897817
2148+267480963+268302605+269288372+270629304+272717652+275685251+279355007
2138+283607056+288430173+293715880+299318359+305260567+311710314+318730330
2128+326085062+333437033+340801899+348561959+356902639+365502265+373883519
2118+381837033+389400440+396576718+403274986+409644133+416364994+424392716
2108+434372249+446376675+460140000+475353589+491614258+508163913+523877959
2098+537653052+548962875+558155582+566016473+572878303+578266223+581202457
2088+580605418+575753188+566511118+552923487+535100861+513756439+490158582
2078+465636816+441551433+419105338+398862082+380946105+365565358+352861318
2068+342569262+334175333+327172134+321169558+316023948+311759967+308318700
2058+305560557+303350546+301478554+299787706+298425016+297684919+297744089
2048+298738301+300841560+304227816+309198876+316239815+325805412+338266671
2038+354010465+373185683+395296082+419222407+443582754+467109164+488957130
2028+508709083+526075712+540806061+552916985+562846901+571209848+578169895
2018+583077626+584989591+583551422+579209819+572603557+563837281+552456956
2008+538231167+521708828+503878901+485563373+467184680+448879758+430814931
1998+413488511+397683513+383974127+372209832+361618985+351580681+342166115
1988+333792344+326660526+320664778+315551932+311061914+307046563+303469249
1978+300291922+297469034+294999640+292858769+290986669+289434628+288293871
1968+287358466+286157577+284545113+282946942+281791837+281026696+280377823
1958+279765528+279234797+278750031+278275908+277891467+277691164+277658674
1948+277741653+278045149+278735320+279544486+279694608+278806404+277500360
1938+276596828+276284270+276323716+276514303+276753108+276953501+277059219
1928+277161976+277611436+278684813+280050972+281111056+281891816+282728133
1918+283245988+282825260+281886822+281513949+282144242+283330984+284360883
1908+284837185+284889145+284947116+285302191+285925491+286660267+287477260
1898+288473615+289555620+290321342+290651154+291093204+292011864+292786432
1888+292642521+291821133+291075442+290697085+290572424+290549414+290486430
1878+290330169+290197282+290277628+290894935+292545284+295253592+297744725
1868+298130710+296164570+293527655+291660822+290758507+290411914+290292575
1858+290294354+290422048+290626691+290802621+291040154+291634161+292799762
1848+294718011+297472394+300148011+300752369+298776495+296274011+295032240
1838+295018219+295345143+295681312+296708923+299138815+302268795+304208892
1828+304336694+303904288+303561364+302703689+301280667+300244194+300172238
1818+300696904+301225348+301749523+302748512+304331264+305795494+306372156
1808+306188108+306076234+306807377+308663985+311204336+313329298+314144347
1798+313995496+314289057+316242466+319602479+322097390+321515097+318961598
1788+317293179+317643658+319158141+320769243+322307118+323776415+324838896
1778+325698260+327508084+331256752+336345044+340196034+340641389+338617041
1768+336183080+334455164+334263960+336094307+338959203+341016786+341953081
1758+342724797+343527315+344439201+346647742+351050912+356334513+359699938
1748+360155499+359282951+358841555+359598851+361492327+363697090+365233331
1738+366662419+369935983+375373484+379423450+378654494+375258703+372315169
1728+370514643+369984547+370813835+372599541+375353942+380162621+387633332
1718+395576059+399360940+397550644+393662060+390980414+390706067+392994663
1708+397386500+402474430+406653524+410436880+416030714+423549044+429388749
1698+431243323+430455043+427688510+424089602+422518201+424216114+428121915
1688+433420699+440960350+450329731+456277932+455016474+451085792+449446686
1678+451458938+456207829+461279231+464953691+468418023+473063939+477219678
1668+478578989+478960016+481749215+487274072+492802308+496253672+499006693
1658+503650321+511741209+523602304+535921467+540581912+538576743+538838305
1648+543094294+546564620+545081120+541379127+539620337+540848522+545005423
1638+552004881+559903839+563720685+561609925+558635225+559124567+563362795
1628+569380627+575442554+581425370+587374189+592465423+596924639+602683598
1618+610651242+618343922+622256987+623397453+624942847+627784968+630967435
1608+633533211+635303153+636537187+637575513+638777946+640429839+642628246
1598+645394597+648830089+652909004+657204114+661186265+664702176+667803933
1588+670375594+672316108+673835422+675254194+676789853+678891569+682408714
1578+687602743+692549703+694456364+694873787+698154688+705615555+714305662
1568+720517095+725042491+731180188+740533769+753774045+772550074+796178842
1558+814578784+821492992+825018783+829995382+835549516+840499963+844487345
1548+847424123+850020193+853425246+858111480+863087063+864048094+855951213
1538+843739820+835995852+833356049+831831214+828380249+823915947+820810630
1528+819946872+821294451+824857654+829943295+833918473+833905251+831012569
1518+828283775+825863072+822956296+820978805+822089342+826889702+834447697
1508+842002350+843650828+836997346+829160101+825246600+824906908+826319869
1498+827590952+826980582+824443283+822317522+822746859+825527449+828029733
1488+827617540+824790239+821998680+820577946+820177159+820191035+820965003
1478+823245136+827095217+831765034+835604291+836142887+832925913+829164315
1468+827836568+828999699+830348441+829889465+829044885+831092116+837336094
1458+844852027+847073244+842546031+837068539+833995622+833231825+833858467
1448+834733994+834906819+834410575+833898132+833767297+834426339+836519846
1438+839687565+841518602+840080288+837083286+834988254+834068050+833411986
1428+832673179+832116567+831571142+830722131+830301657+831379502+832931507
1418+831807386+827211596+822014444+818650363+817271473+816709195+816207503
1408+816179970+816957425+817522464+816726194+815267249+814879538+816247313
1398+818544155+820314387+820470576+819128808+817732556+817490064+817965095
1388+817586901+815577591+813416960+813533847+816896548+822490637+828602254
1378+834300589+839534428+843997276+846843974+848011101+848605344+849433869
1368+850618649+852634642+856049648+859941646+861970061+860942196+858224081
1358+855842535+854706790+854654558+855055200+855340916+855318177+855126901
1348+855036094+855326677+856152514+857363011+858667875+860058387+861771012
1338+863655444+865054892+865654074+865970156+866761051+868283706+870278923
1328+872461130+874784850+877286989+879888144+882462638+884965213+887373566
1318+889687770+891971608+894179314+896172641+898143231+900547443+903295996
1308+905669843+907493470+909682941+913006050+916794891+919491066+920344436
1298+919968567+919192274+918087405+916373981+914263403+912371852+910920026
1288+909618214+908353669+907254756+905946260+903766959+900959853+898631193
1278+897372241+896736736+896139951+895727105+896352803+898680592+901889647
1268+903796090+903201339+901500193+901017098+902508443+904921809+906912667
1258+908066137+908910208+910061280+911424406+912358776+912576641+912397206
1248+912011602+911122781+909490502+907398449+905410715+903847450+902669354
1238+901841047+901571167+901964254+902531763+902507354+901786853+901000680
1228+900533059+900186902+899796140+899554303+899751463+900501822+901763751
1218+903448044+905470139+907527831+908912533+909241836+909362791+910602201
1208+913270481+916642843+919884371+922276814+923343037+923522036+924005566
1198+925648160+928591840+932490085+936411214+939337023+941314223+943135381
1188+944945786+946404659+947648209+948831682+949666963+950227207+951092419
1178+952548894+954671604+957588841+960707670+962711386+963316307+963907571
1168+965944341+969623341+973922010+977477586+979557144+980547669+981757367
1158+984211051+987220112+988751195+987944463+986333180+985803301+986860661
1148+989434864+993164935+996343769+997430913+997734863+999895857+1004053739
1138+1007718573+1009273411+1009651532+1010243523+1010860794+1010632614
1130+1010135498+1011202520+1014303260+1017577914+1019013830+1018592485
1121+1018197728+1019605530+1022672926+1025790665+1027926451+1029365927
1113+1030366550+1030366914+1029120312+1027310923+1025656125+1024858329
1104+1026396168+1031070561+1036798318+1040221242+1040840910+1041164111
1095+1042714881+1044501241+1045045358+1044081493+1042967398+1044117308
1087+1048583789+1053871457+1055260808+1050966062+1045095047+1043446206
1078+1047737393+1054245510+1057816341+1057418606+1056631997+1058826408
1070+1063327469+1066511170+1065701242+1061783310+1058431070+1058699859
1061+1062123873+1065699499+1067443433+1067724064+1067674738+1068093686
1053+1069230302+1070256278+1069977972+1068328622+1066678764+1066852387
1044+1069505847+1072836874+1073741823+1071392749+1068198223+1066413679
1035+1065968651+1066152808+1067203484+1069397097+1071914346+1073402712
1027+1073299483+1071886522+1069069391+1065031303+1061999939+1062305052
1018+1065003697+1067314705+1068877316+1071162462+1073417968+1073250229
1010+1070775187+1068846151+1068998998+1069400220+1067964376+1065559801
1001+1063888875+1062092127+1058419229+1054063533+1052111468+1053677130
993+1056984547+1059187966+1058535607+1055629340+1052585336+1050683906
984+1049371196+1047638740+1045279350+1042459676+1039403468+1036661380
975+1034732925+1033712615+1033655952+1034269082+1034233849+1032301253
967+1028853121+1025248437+1022092922+1019179390+1016606494+1014724169
958+1013343972+1011597422+1008940621+1006007038+1003360625+1000290760+996427747
948+993388248+992738794+993226030+991993449+988234247+983934198+981243398
938+980439936+980197662+979117201+976822829+973991169+971739731+970911279
928+971783246+974163921+977394915+980163664+980726741+978142004+973345784
918+968710692+966588128+968135846+972855062+978401640+981219715+979314943
908+974678907+970949781+969254374+968287967+967363186+967407500+969136978
898+971355653+971645437+969007378+965301716+963141303+963075777+963666968
888+963514630+962128694+959555435+956745641+955578151+957082427+960110884
878+962466061+963044394+962421529+961582761+960900254+960464234+960389263
868+960500556+960222832+958755895+955742258+952086576+950006437+951122421
858+953909041+954865496+952694404+949673065+948263519+947953394+947148479
848+946406402+947264204+949303734+950703110+951199281+951823671+951956322
838+950038183+947003333+945377302+945301169+944845535+944055440+945238476
828+948933386+952767703+954775342+955532529+956278529+956655851+955530059
818+953748857+953687254+956070399+958786842+959224097+957254016+955408377
808+956206464+959344762+962265123+963866163+965930466+969566823+972411777
798+971552523+967717407+963991768+961864772+960838214+960744937+962290767
788+965149451+967273904+967408953+966800907+966777080+966593504+965319151
778+963878150+963555675+964255835+965075352+964984690+963089071+959709880
768+956688687+955729762+957676379+962598131+968356690+971205567+970411621
758+969735071+972467497+977538826+981411791+982143479+980369760+977311735
748+973662084+970289576+968545859+969086344+971018358+972793458+973856411
738+975077878+977034229+978416823+977813064+976393565+975998881+975472853
728+972516678+968097344+965272585+965708969+969240934+974227050+977678088
718+977749790+975999099+974791072+973728192+970741578+965883246+961401800
708+958728290+957088602+955254078+953778351+953834870+954764954+954952017
698+954640439+955334061+956560104+956204939+953981905+951332440+948192617
688+943960927+940466011+939571161+940103073+939764689+937953993+935365987
678+931822616+926498915+920495903+916730309+916263923+916004432+911542601
668+903851155+901177936+906174150+913133543+917959475+919584707+918209232
658+915424137+913522271+913306803+913015494+910022197+904389461+900403604
648+902671461+910279000+917073415+918859121+916413210+910625230+901368050
638+891062083+883945411+882331295+885287106+889043184+889720896+887652744
628+886802061+888649444+889433364+885172108+877180055+869803093+865294332
618+863664452+864473944+866585321+867933554+867103140+864667327+861741736
608+859585681+859612052+861616204+864117761+867217557+872650009+879621171
##END=
