##TITLE=<SNM>
##JCAMP-DX=4.24
##DATA TYPE=INFRARED SPECTRUM
##DATE=2/5/2025
##SAMPLING PROCEDURE=Instrument type and / or accessory
##ORIGIN=Admin
##XUNITS=1/CM
##YUNITS=ABSORBANCE
##RESOLUTION=4
##FIRSTX=4497.3318
##LASTX=599.83466
##DELTAX=-1.4281778
##MAXY=1.864307
##MINY=0.3991828
##XFACTOR=1
##YFACTOR=1.7362712e-09
##NPOINTS=2730
##FIRSTY=0.41969216
##XYDATA=(X++(Y..Y))
4497+241720389+241684068+241823101+241795449+241753568+241844505+242065739
4487+242463185+242756630+242264162+240952069+239862823+239800585+240400040
4477+240971139+241417743+241837571+241950600+241513127+240826029+240416191
4467+240488386+240845752+241205589+241571520+242273036+243456377+244588551
4457+244889978+244312974+243656070+243632606+244127975+244423274+244052210
4447+243270211+242581981+242058702+241459367+240864770+240716159+241211065
4437+242021197+242672541+243010545+243089107+242713152+241605661+240075441
4427+238931766+238686845+239305319+240385879+241130975+240816503+239732132
4417+238982247+239079141+239454753+239525385+239450102+239571112+239746602
4407+239659046+239450840+239640714+240482944+241622327+242342192+242080192
4397+240889264+239386129+238145218+237392449+237270976+237971804+239488464
4387+241368464+242786977+242988798+241824938+239842500+237847550+236445721
4377+235837203+235767069+235664871+235074548+234174404+233674641+233985148
4367+234723498+235200587+235061520+234319651+233141064+231836849+230916486
4357+230931402+231981409+233360015+234212527+234567387+235120308+236096010
4347+236930173+237024424+236451488+235817464+235477983+235148424+234515498
4337+233708146+232837852+231858442+231141942+231259725+231999878+232515982
4327+232545934+232576041+232770653+232653110+232051235+231624215+231999964
4317+232872833+233523061+233823990+234154854+234663886+235085121+235151668
4307+234925611+234645863+234369170+234003411+233659708+233594620+233735318
4297+233646371+233117377+232543531+232575389+233318288+233980016+233738218
4287+232921374+232617081+233080284+233376132+232754449+231540829+230460355
4277+229908085+229995968+230571650+231169062+231470008+231653635+231968124
4267+232330982+232612721+232806647+232673330+231855438+230693089+230232015
4257+230966057+232238225+233265404+233967623+234506315+234904258+235254844
4247+235484197+235136151+234204734+233525687+233560891+233743934+233622323
4237+233555073+233915374+234554908+235145472+235379407+235001049+234107428
4227+233246917+232914200+232963874+232746862+232047887+231595292+232089151
4217+233141682+233925140+234327975+234690628+234987729+234969380+234634191
4207+234178095+233837258+233814069+234077047+234315960+234246839+233864841
4197+233407543+233160957+233210443+233335675+233204109+232666344+231901371
4187+231311992+231199924+231505728+231881048+231972072+231693199+231388236
4177+231647147+232635516+233665647+233934341+233656447+233767742+234493425
4167+235038639+234787282+234020112+233359191+233166999+233443743+233791617
4157+233625259+232810835+231956932+231821813+232496105+233334508+233714497
4147+233632845+233472494+233545100+233997867+234738328+235352459+235531502
4137+235471735+235426576+235260869+234860094+234519017+234562701+234885154
4127+235093909+234925233+234341329+233340121+232002024+230798737+230433475
4117+231199306+232756320+234442377+235528516+235470757+234356057+232904708
4107+231799345+231242578+231211802+231708287+232536923+233219763+233479223
4097+233547520+233651864+233505038+232776214+231711256+230782877+230167133
4087+229935532+230209958+230799338+231199014+231251486+231259090+231251898
4077+230876321+230224342+229972178+230382291+230863808+230868202+230620861
4067+230580404+230698239+230650658+230468560+230468234+230716313+231004317
4057+231260635+231507410+231582711+231438752+231408113+231658681+231875967
4047+231983143+232445401+233306478+233721706+233075581+231934722+231361666
4037+231664208+232172725+232178733+231830962+231820474+232296688+232642176
4027+232399881+231890008+231722499+232096738+232763066+233468117+234229365
4017+235048389+235494152+235051856+233958714+233115403+232997946+233179220
4007+233039175+232573998+232387420+233036634+234426088+235776526+236239729
3997+235621565+234523016+233770797+233706413+234023459+234208184+234058011
3987+233823681+233925106+234459336+234958121+234856987+234278696+234045464
3977+234731377+235975841+236930173+237101132+236539045+235613755+234910643
3967+234913922+235536600+236286400+236884087+237367355+237752029+237953867
3957+237917616+237651136+237335240+237487386+238645341+240492591+241652091
3947+241283413+240537768+241032691+242334536+242358052+240347550+237904948
3937+236966682+238257457+241228332+244365910+245845271+245053522+243449151
3927+243038300+244259421+245695064+246091909+246179740+247380675+249389889
3917+250016086+247759377+243812765+240507387+238941533+238975416+240750849
3907+245106166+252126074+259773260+264837782+265732468+263091255+258145494
3897+252598837+248915941+248937706+252002455+254544182+253806758+252128528
3887+253126063+256126222+257775821+257969884+258732488+258733054+255935146
3878+252911627+253248172+256839048+261759405+267010214+270700164+269832187
3868+265774160+263082277+262671564+261599929+258459949+255635195+255758488
3858+259744973+267656322+277731641+282858934+276972676+266134341+257812296
3848+254313954+255263995+258957206+263398895+267758966+272165743+275652567
3838+276048124+273283430+269860680+267105460+264543479+262391095+261919121
3828+263196405+265180833+268475123+274666017+281606591+283610432+280449013
3818+277021767+273961224+268816921+262709051+259204839+260211231+265243261
3808+271273786+274938110+277194665+280833413+284229009+283486144+280015591
3798+277602718+276138015+274092515+272209341+272052868+273760776+276758497
3788+280845394+285637601+290248017+294691337+300305897+307525206+314511557
3778+319615197+324063563+330391722+340087155+352868912+366332034+377266335
3768+384910364+390578580+394839132+398289688+402303001+406545289+408391165
3758+407198469+406498773+409945107+418208570+428630681+436435164+440159632
3748+444027458+451123457+458889148+462251100+463028037+467554433+478302396
3738+493932817+510638151+523255129+529108173+530627888+532364701+537469440
3728+546969368+559348445+570683436+577587741+579905986+580109145+580799916
3718+582667900+584838667+587088665+589811238+591363326+588871513+582687673
3708+575732870+570799812+569939284+572873427+576071150+576240529+574313499
3698+572936524+573052660+575019237+579946357+588157605+596797761+600451820
3688+597286402+591414682+586393363+583014555+581443037+582065149+585545640
3678+592233706+599712646+603320566+603536222+604573716+604971110+599454697
3668+589304678+580615156+575667679+573168177+571801055+571467719+572277508
3658+573415793+573909617+574867193+579078105+587771540+597884277+601583719
3648+594134440+581097068+570061942+563944117+561816056+561612862+562581835
3638+564837395+567083274+567607445+567809369+571368027+578804776+584218752
3628+581613721+574466847+569336499+568899352+573180433+579962354+584901283
3618+586020618+586263874+588074048+590131872+590650585+590688759+591638645
3608+591925019+589498294+585691470+583751532+585061325+588114488+590973896
3598+593541096+596375582+598701928+599339557+598992970+599687723+601896114
3588+603182907+601478329+598836361+598392829+600517389+603665162+606257284
3578+607046991+605440458+602271743+599389677+598651533+601437340+607792002
3568+614532110+616185057+611677233+605781002+602299344+601297758+601473042
3558+602025398+602454100+602211462+601064320+599541137+598950608+600475850
3548+603714939+606175924+605280621+601447639+597765293+596474312+596737616
3538+595955119+593293995+590767235+590129812+590430192+589259089+585515843
3528+580780211+577994129+578523072+580970257+583118366+584259054+584929158
3518+585243132+584584494+582430205+579040686+575683608+573940067+574192249
3508+575136711+575396274+574990195+574454077+573657950+572468241+571366963
3498+570654771+570060157+569553047+569579103+570203103+570843925+570814367
3488+569642818+567440365+565050167+562974526+560759509+558364779+556976441
3478+557260137+558172913+558596569+558761417+559028944+558717957+557297246
3468+555444367+553890014+552426049+551000292+550515565+551345265+552098721
3458+551135309+548774393+546834043+546358310+546839707+547346988+547375894
3448+546546022+544557817+541906202+539746661+538661072+538314657+538310640
3438+538464812+538283554+537263945+535723667+534389501+533454135+532703495
3428+532089210+531687971+531430366+531319277+531529714+531861745+531723571
3418+530959061+530010033+529176110+528327186+527370811+526497650+525803584
3408+525064959+524127534+523214346+522582415+522184198+522009909+522344034
3398+523086435+523121142+521259028+517783584+514184520+511513063+510007491
3388+510071892+512235416+515776498+518620047+519299351+517916609+515111783
3378+511683576+509088123+508603705+509833545+511239700+512131673+512953169
3368+513834054+514240854+513988535+513581598+513417642+513203565+512410288
3358+511074646+509910752+509570653+509901826+510148137+509903062+509586410
3348+509727983+510053595+509820741+508977995+508309367+508215100+508007477
3338+506763219+504619915+502908643+502909261+504613290+506774341+508031817
3328+507863261+506629438+505085109+503901887+503363882+503323923+503376171
3318+503210911+502881867+502566794+502230609+501940597+502172353+503085713
3308+503824784+503280428+501398849+499300551+498156602+498077096+498193334
3298+497897864+497574346+497747880+498101984+498030683+497715988+497887633
3288+498765703+499843397+500616832+501036025+501275264+501497820+501735583
3278+501642380+500744880+499261175+497994054+497227141+496674408+496485667
3268+497176540+498620560+499986790+500501692+499867702+498407925+496921853
3258+495934616+495261972+494598253+494043014+493778714+493695981+493520387
3248+493134906+492762057+492662846+492573899+491901976+490655280+489554894
3238+489044009+488837828+488512663+487940843+487182375+486429572+485991567
3228+485979071+485973647+485233512+483488186+481451680+480140617+479725681
3218+479516788+479094540+478839063+479052727+479255201+478815857+477842729
3208+476876880+475937841+474588707+472924810+471786628+471749759+472336512
3198+472411796+471244057+469245725+467632222+467167441+467363151+467122332
3188+466005538+464540749+463480460+463116125+463214135+463300953+462942557
3178+461988757+460714598+459590148+458843799+458390071+457968613+457135033
3168+455555688+453612798+452198919+451625280+451282950+450540274+449385614
3158+448131057+447089066+446560500+446615290+446801113+446445361+445396606
3148+444178747+443237717+442326623+441025961+439671987+439084101+439373873
3138+439664984+439112114+437734761+436140483+434769825+433613551+432549280
3128+431667263+431103407+430752014+430335808+429676415+428906653+428407817
3118+428271942+427906509+426749103+425303607+424647509+424912667+425029935
3108+424133637+422648628+421739319+422001078+422879594+423353199+423033801
3098+422303655+421513433+420567666+419346305+418141937+417481651+417539564
3088+417786390+417461122+416497367+415608517+415338382+415484761+415523416
3078+415130004+414248638+413104827+412166784+411788683+411899497+412097302
3068+411893215+410941715+409348707+407746774+406808559+406635541+406742716
3058+406620333+406155620+405552354+405087195+404920149+404833640+404283173
3048+403139601+402094074+401786073+401925655+401807872+401251638+400503778
3038+399657051+398724088+397974032+397633967+397408013+396803855+395853179
3028+394976688+394296251+393665694+393103933+392601560+391884700+390883526
3018+389991690+389549394+389514687+389658148+389636178+389102085+388099710
3008+387047694+386211025+385534192+384935115+384395256+383858554+383323020
2998+382919035+382676363+382305814+381463687+380258083+379231986+378741011
2988+378573863+378268059+377579211+376605122+375660969+375045482+374813109
2978+374791035+374779638+374598929+374023127+372958753+371727540+370860764
2968+370465567+370070645+369308951+368465897+368038534+368017009+367956418
2958+367572756+366954489+366291937+365673773+365164363+364856500+364719252
2948+364527421+364132430+363721888+363524908+363355974+362846325+362060531
2938+361410166+360989223+360481735+359714068+358868061+358162941+357647215
2928+357221054+356682499+355900482+355012971+354312417+353934042+353723192
2918+353362736+352707874+352031076+351712674+351682601+351506905+351034605
2908+350532954+350140915+349638062+348876814+348039390+347329258+346765746
2898+346372094+346240991+346331929+346421837+346292485+345853656+345175347
2888+344483547+343981689+343633695+343256521+342821812+342510069+342420196
2878+342335506+341913601+341104670+340249909+339731849+339612006+339652308
2868+339610907+339410082+339047361+338539702+338009866+337647591+337519647
2858+337500079+337330459+336774293+335932887+335307891+335211186+335275827
2848+334940157+334207952+333521095+333096513+332768910+332386552+332079719
2838+332033786+332135229+332058915+331658981+331049571+330353857+329620931
2828+328936614+328401629+328015118+327708971+327481438+327372958+327273094
2818+326910338+326168692+325289936+324642249+324394770+324460133+324597930
2808+324531434+324130264+323547425+323062354+322738047+322345116+321708895
2798+321006281+320571949+320498656+320538032+320318978+319626388+318575299
2788+317536672+316833269+316528838+316473122+316420530+316130277+315518189
2778+314757285+314137713+313781892+313535168+313168259+312626271+312027228
2768+311513218+311169515+310973290+310770679+310417433+309931916+309396348
2758+308794318+308113366+307509895+307154794+306956235+306636871+306073771
2748+305390416+304730061+304133558+303637606+303297473+303062833+302733548
2738+302101241+301151251+300132912+299376608+299010522+298890611+298790404
2728+298589819+298308149+298042853+297867088+297727094+297438455+296839172
2718+295990900+295187976+294711763+294592606+294630025+294596897+294393291
2708+294041933+293584395+293045805+292508074+292081672+291739995+291334808
2698+290835114+290398001+290132809+289920346+289566722+289077738+288671007
2688+288501936+288468636+288364036+288143025+287901932+287643021+287235140
2678+286644525+286058012+285687069+285549529+285530116+285527301+285414530
2668+285027641+284395488+283826860+283558235+283463830+283312164+283123680
2658+283025464+282929875+282655706+282254570+281951959+281853966+281891231
2648+281922968+281778906+281370698+280835593+280415199+280185640+280029821
2638+279795353+279368608+278729829+278058695+277660099+277654692+277839486
2628+277956548+277972357+277937925+277750282+277325390+276859459+276621678
2618+276616460+276675300+276689135+276576072+276265548+275865408+275619680
2608+275596594+275588200+275388096+275042968+274757127+274611280+274477362
2598+274240680+273988155+273868638+273855421+273789012+273615289+273435782
2588+273314944+273178932+272982415+272868768+273014255+273327354+273472137
2578+273265441+272905020+272678122+272593449+272484900+272349609+272346005
2568+272522079+272761215+272975910+273184390+273387859+273504458+273477509
2558+273373784+273306550+273294672+273256996+273127867+272921927+272677641
2548+272383526+272006353+271580414+271197507+270899651+270664290+270482449
2538+270336327+270130370+269801051+269471010+269331240+269381566+269436115
2528+269375267+269242808+269096961+268936283+268786059+268679038+268536658
2518+268251108+267884371+267601653+267449558+267387851+267444477+267633974
2508+267810614+267804847+267658004+267572061+267633905+267698118+267586823
2498+267345936+267209323+267303556+267472421+267434831+267100997+266696927
2488+266536696+266684568+266914178+266993616+266881343+266633778+266295825
2478+265936743+265658094+265507011+265444429+265400522+265306958+265096177
2468+264756251+264403193+264207294+264187486+264163112+263994333+263784514
2458+263732883+263845139+263908184+263741602+263380443+262987203+262671169
2448+262459685+262346742+262269828+262145694+262019191+262019792+262087900
2438+261966925+261588103+261232762+261151866+261209316+261087894+260741376
2428+260454951+260489795+260812763+261167194+261297696+261119116+260759450
2418+260456307+260385898+260566846+260863999+261059555+261001951+260752224
2408+260540379+260535727+260683394+260816814+260901469+261052500+261308990
2398+261576963+261876811+262512380+263953945+266672107+271097781+277651019
2388+286811914+299175680+315345857+335685408+360113659+388019483+418274688
2378+449493991+480571516+510880480+539716520+566078220+589548964+610481275
2368+628459979+641708131+648797779+649965793+646896152+642128045+637051456
2358+629451404+615368299+593543911+566141764+537950528+515427302+503485578
2348+503755130+514926200+532258212+548366151+558519569+563369070+565294109
2338+565837711+566092089+567109227+569152083+570875130+570218860+566599336
2328+561450073+556339464+551372351+545566612+538308271+529991633+521191400
2318+511941456+502229305+492491921+483065217+473568103+463277232+451894729
2308+439717679+427310555+415195126+403697827+392937917+382896893+373448115
2298+364385195+355545930+346916416+338601837+330763129+323535203+316906115
2288+310752725+305072459+300044481+295793335+292240170+289211209+286555304
2278+284162427+281989498+280061592+278381251+276874409+275461560+274124253
2268+272874999+271716992+270660308+269749248+269034791+268500647+268038852
2258+267531570+266945727+266328833+265749975+265253645+264808791+264308479
2248+263696494+263067808+262565350+262218420+261941281+261628783+261203634
2238+260644585+260038041+259558446+259326999+259294850+259312306+259306728
2228+259323309+259373927+259343117+259133640+258845413+258673819+258643198
2218+258597128+258450440+258277335+258160908+258134320+258226854+258389196
2208+258447693+258288338+257999698+257746538+257605978+257568490+257601790
2198+257675546+257754297+257783991+257718869+257584642+257478308+257483921
2188+257613307+257824757+258053973+258198138+258130475+257831778+257482805
2178+257294252+257274324+257289017+257267819+257213785+257124014+257028425
2168+256992963+257012685+257028665+257060454+257164986+257272745+257239995
2158+257064213+256885513+256770270+256649054+256485115+256362097+256356604
2148+256410123+256395963+256299223+256256071+256374644+256615617+256931445
2138+257380230+257971291+258549599+258990145+259394919+259972712+260804146
2128+261804445+262884387+264087382+265524553+267183456+268894848+270523198
2118+272088073+273637020+275096539+276333777+277277004+277873472+278011389
2108+277608606+276727583+275516246+274093700+272551911+271005402+269584142
2098+268373715+267361796+266470732+265671842+265011831+264497392+264039991
2088+263562679+263082174+262654605+262319742+262102816+261987900+261891195
2078+261752145+261634911+261636953+261727222+261790713+261811517+261916873
2068+262237215+262740445+263203236+263406688+263370573+263296663+263307940
2058+263368840+263415871+263430083+263412369+263389935+263429036+263579397
2048+263820285+264111704+264481274+264962878+265444875+265722564+265735557
2038+265624880+265554814+265602789+265788167+266087207+266426070+266715962
2028+266916307+267075045+267279148+267565968+267970708+268614534+269519929
2018+270344755+270615680+270306100+269874257+269686632+269721132+269836461
2008+270007266+270217926+270364838+270371274+270299114+270288112+270383564
1998+270505381+270718891+271362647+272553198+273713385+274083933+273612474
1988+272854007+272261452+271977190+271963887+272045608+272053349+272039446
1978+272193755+272566758+272985831+273242578+273390519+273815342+274779647
1968+275872960+276283777+275806877+275135966+274943620+275190377+275529480
1958+275898089+276393218+276919449+277272026+277411608+277517719+277828638
1948+278508715+279714199+281523635+283396682+284102781+283073491+281348110
1938+280275274+280089038+280245871+280365439+280435316+280544225+280733842
1928+281116045+282048612+283731631+285542955+286629660+287220464+288017998
1918+288521538+287653595+285850218+284711951+285003868+286107772+286909992
1908+286834039+286182232+285614205+285449649+285574229+285814945+286218792
1898+286957194+287909656+288596341+288995073+289882000+291498009+292613670
1888+292090323+290595462+289478736+289150584+289316737+289703008+290111284
1878+290390655+290570882+290907376+292032547+294873487+299594907+304261606
1868+305686435+303105710+299158927+296429420+295415681+295381832+295635490
1858+295896529+296148882+296492070+297031518+297905400+299299505+301369035
1848+304387456+308522020+312478999+313324868+310273903+306444251+304590067
1838+304616534+305032500+305296731+306573397+310060067+314732224+317646422
1828+317678760+316615382+315496596+313647493+311243563+309684369+309520757
1818+309976270+310325397+310885442+312431659+314874107+316886719+317280199
1808+316466806+315923067+316831381+319492470+323101970+325911499+326618369
1798+325969172+326249984+329202184+334204485+337601556+335993477+331253554
1788+327870936+327652637+329436652+331586169+333581137+335219528+336068384
1778+336640307+338727997+343768300+350895229+356245386+356387234+352628883
1768+348148454+344793539+343947223+346236116+349845925+351807628+351957028
1758+352188990+352882541+353883234+356677384+362589096+369847197+374281385
1748+374183101+371892457+370221865+370404839+372285731+374581765+375847822
1738+376982159+380989533+388439362+393903458+391931697+385860800+380424442
1728+376700935+374970817+375359628+377069389+379910192+385553279+395280123
1718+406242095+411257509+407394935+399773838+393582961+390863581+392048038
1708+396606017+402533933+407351405+411495959+417943858+426843508+433088591
1698+433460856+429939444+423542318+416157714+411921434+412439151+416226064
1688+422287143+431844916+444021382+450588850+445961286+437554053+432811452
1678+433522476+438228688+443404145+446646117+449641538+453900064+456346562
1668+453847643+449920462+449580878+452998993+456299360+456683983+456231045
1658+459015135+467861095+483560208+500818996+506073718+500665167+498936559
1648+503654580+507748224+504918304+499174906+496757176+499351015+506909083
1638+519115313+532737412+539823730+537539437+533978306+535699259+543048950
1628+553231753+563879956+574782675+585580313+594552157+602122892+611759485
1618+625305958+639093764+647255441+650818047+654756077+660771017+667406903
1608+672642229+675937068+678394758+681083002+683827408+686081183+688192148
1598+690948913+694412308+697796334+700400678+702481571+704920311+708112781
1588+711620529+714816569+717428122+719561607+721751118+725080630+730735389
1578+738550136+745222067+746862655+746243702+749329408+757521569+767363381
1568+775002569+781122008+788427723+798231773+811891600+831744810+855693758
1558+870031997+869309644+865206423+863625636+864487022+866728644+868413929
1548+868412487+868938821+873505691+883220280+894811709+898597249+885514906
1538+865980956+854987677+853286876+853645272+849545758+842722916+839045513
1528+840173911+843695185+847623191+852227136+856520746+857408017+854816718
1518+851493523+847908054+843637856+840448269+840851637+846137015+856084629
1508+866991880+868782212+856842410+843132531+836543196+837007532+841260153
1498+844602092+843095181+838004518+834687021+836150677+840661453+843299851
1488+840517340+833961647+827766685+824503977+824134940+825192482+827035475
1478+830373363+835546553+841519612+845878036+845147513+838669610+831296404
1468+827777945+828480181+830024510+829304491+828122883+830790873+838889110
1458+848454161+850270034+841771588+831466676+825316685+823802496+824797560
1448+825290389+823712074+820956064+818399026+816714703+816931045+820331618
1438+825989261+829324746+827126172+822992467+821092145+820726128+819176924
1428+816584527+815669107+817533521+820864680+824570370+828603079+831379343
1418+829837691+824489422+819091925+815571955+813511453+812078007+811214630
1408+811477110+812645467+812959304+811266398+809354336+809788393+812673480
1398+815951292+817885394+817926451+816208898+814010599+813133421+813815197
1388+814135007+812183466+809082449+807976983+810319876+815039579+820613322
1378+826638630+832849521+837522331+838723712+837461843+836830737+837899333
1368+839349189+840631587+842800157+846020433+848598412+849105865+847935242
1358+846273576+845040337+844682628+845132270+846108522+847322674+848264733
1348+848498652+848293501+848393742+849302983+851097640+853381830+855121973
1338+855324102+854269031+853295527+853380869+854580946+856364137+857956252
1328+858866729+859443664+860514938+862497994+865287646+868693368+872450620
1318+876108249+879380020+882398372+885417686+888531817+891737400+895004158
1308+898198551+901159848+903968930+906822297+909541781+911816222+913807241
1298+915643849+916640217+916103172+914530967+912951622+911691332+910626306
1288+909908622+909735809+909876696+909863170+909343427+908230683+906843032
1278+905710995+905134266+905121153+905566264+906165856+906501046+906647974
1268+907197240+908216608+909000273+909387162+910374536+912930682+916777876
1258+920480202+922701913+923366388+923459557+923886817+924824894+926001490
1248+926962499+927266380+927053265+926989276+927359618+927842286+928159075
1238+928125638+927342660+925808354+924463546+924237454+924811506+925036636
1228+924445626+923594264+923112490+923153890+923404630+923070196+921372141
1218+918586471+916188240+915691978+917478945+920581267+923598040+925889028
1208+927680252+929137180+929961833+930213260+931051851+933812873+937973767
1198+941075676+941777775+941660713+942740226+944954454+947117600+948618056
1188+949320361+949469281+950170762+952552241+956290475+959762178+961866483
1178+963082215+964254279+965243713+965672826+966057175+967016468+968319051
1168+969683977+971768990+975358990+979792801+983181565+984032926+982082552
1158+978198557+974418030+973332749+975946156+980339046+983621870+985070558
1148+985854017+986399095+986308397+986287937+987981323+991735692+995684913
1138+997543628+996937170+995704824+995928443+997671470+999141923+999469834
1128+1000174886+1003005595+1007623753+1012068205+1014573956+1014973341
1120+1014830806+1015540595+1016445991+1016033492+1014637945+1013946969
1111+1014866165+1017753106+1022627633+1028010438+1031580459+1032857502
1103+1033536463+1034585698+1034758373+1032882425+1030493874+1030657487
1094+1034181713+1038347894+1039808048+1038410716+1037391691+1039597061
1085+1043955279+1046578915+1045754742+1043934338+1044569427+1048671549
1077+1054098707+1057827054+1058431452+1056317946+1053444875+1052402643
1068+1053853048+1055523571+1056125360+1058755038+1065148286+1069927928
1060+1067942126+1063188094+1062174424+1065315263+1068288781+1067820944
1051+1064223597+1060039771+1057350017+1055852512+1054175604+1052793583
1043+1054057718+1058741444+1064399156+1068780306+1072004289+1073741823
1034+1072150394+1067092000+1061121619+1056683208+1054790232+1055925290
1025+1059475057+1062753693+1063021872+1060249659+1057407346+1058092075
1017+1062598320+1066891724+1066503530+1061486194+1056582212+1055630403
1008+1057469276+1058146864+1055906821+1052504875+1050269569+1049622603
1000+1049310689+1048282326+1047037346+1046849635+1047807142+1048279991
991+1046690760+1043545801+1041159860+1041268271+1043148614+1044565719
983+1044405471+1043831351+1044638497+1046175960+1045333524+1040815264
974+1035761127+1033863551+1034811721+1035724944+1035312582+1033878999
965+1031028584+1026771019+1022954446+1021030712+1020356557+1019715770
957+1018756408+1017494333+1015891026+1013884490+1011025150+1006721447
948+1001372697+996682654+994473232+995113127+996740739+996540737+993503710
938+989176800+985458134+983104255+982070606+981635656+980776810+979288575
928+978033297+977686710+977504766+976116634+973485514+971491267+972411768
918+976584402+981525734+983881947+982555127+979534577+977454096+977186123
908+977850666+977936901+976430608+973785138+971679391+971205718+971745714
898+972060856+971646160+970921610+970415187+969669147+967880188+965834379
888+965082022+965320266+964929121+963656746+962841567+963372639+964847829
878+966314231+967121377+967222854+966695834+965300287+963117505+961303211
868+961109115+962202085+962923477+962086327+959930665+957313963+955148002
858+954793382+957327283+961540632+963997429+962450765+958445176+955378213
848+954742644+954851742+953271848+950507736+949734233+952189314+954774021
838+953891557+950569117+948918505+950466816+953404358+956484778+959874022
828+962241701+961095108+956838711+953292445+953491760+956464729+958771989
818+958670512+957599101+958204872+961476642+965277698+966509083+965457171
808+965997786+970152089+974465335+973800037+967957223+961841286+959546248
798+961016426+963839171+966320205+968536973+971050893+973133709+972956502
788+970298056+967818396+967943560+969767191+970637022+969691392+968076825
778+966727279+965746840+965606228+967414067+970614914+972136311+970127509
768+966404998+963490662+961603934+960150303+959978657+962199888+966396965
758+971084810+974406907+974521978+971629545+968236593+966185360+965228814
748+964822632+965468362+967325910+969596575+972013893+975071587+978214760
738+979259121+976873385+973510162+973753555+978634468+983073428+981264078
728+974119023+967782144+966423398+969668460+973946279+974853048+971123328
718+966431706+965389337+968431239+972251176+974470828+975511618+975912170
708+974573060+970317280+964591734+961156626+961920380+963956234+962997971
698+959499629+956959893+956586255+956683337+955573340+953734329+952855710
688+953042186+952632708+951633594+951579835+952409638+952584648+951134311
678+947811597+942217051+935322461+931251853+932204005+934334813+932257078
668+925926721+921678563+921996382+923509334+924572163+925970457+927541974
658+927421891+924965918+922055359+920707873+920400353+919168761+916811244
648+916108115+919605496+925750544+929529081+925960158+915064991+902164455
638+891845949+883431541+875231484+870236049+872136989+878753170+884256058
628+887024769+890029664+894338311+897213305+895210064+888025256+879821629
618+875883325+878573766+884540234+886913954+883103217+877057175+873266417
608+872043134+871349617+871774062+876217828+884739274+892293600+893407649
##END=
