##TITLE=<SNM>
##JCAMP-DX=4.24
##DATA TYPE=INFRARED SPECTRUM
##DATE=2/5/2025
##SAMPLING PROCEDURE=Instrument type and / or accessory
##ORIGIN=Admin
##XUNITS=1/CM
##YUNITS=ABSORBANCE
##RESOLUTION=4
##FIRSTX=4497.3318
##LASTX=599.83466
##DELTAX=-1.4281778
##MAXY=1.8429316
##MINY=0.3859483
##XFACTOR=1
##YFACTOR=1.7163638e-09
##NPOINTS=2730
##FIRSTY=0.41045257
##XYDATA=(X++(Y..Y))
4497+239140774+239619194+241106008+241921578+241105331+239223390+237418544
4487+236462207+236544389+237376038+238344894+238683780+237810979+236033551
4477+234702732+234988867+236587399+238254846+239347731+240056011+240576504
4467+240930166+241215798+241387941+241124413+240384601+239730565+239722178
4457+240419050+241571058+242744180+243223330+242498676+241011966+239813823
4447+239444915+239593913+239695177+239519718+239198334+238806854+238212844
4437+237513367+237169046+237304326+237484908+237623695+238261028+239476882
4427+240460810+240573534+240101417+239690698+239497440+239210888+238714670
4417+238295703+238125331+238045979+238039589+238250800+238422388+238062474
4407+237279669+236831896+237118552+237609718+237653786+237465078+237685927
4397+238231718+238367762+237783510+236905535+236253010+235983873+236027664
4387+236233996+236367957+236249450+235973316+235833087+235872294+235784191
4377+235461835+235197057+235175092+235284171+235402903+235352323+234801323
4367+233740630+232675353+232009162+231677552+231443090+231154125+230751775
4357+230357273+230270420+230629691+231214151+231789599+232496317+233501550
4347+234277045+233845246+232047276+230054173+229282255+230066119+231503898
4337+232414569+232377011+231883623+231604590+231713199+231940211+232075092
4327+232270937+232786081+233471980+233886658+233973216+234001935+233761345
4317+232732132+231201458+230177090+230056291+230254306+230298722+230447147
4307+230866566+230974064+230230553+229077833+228450953+228657945+229271490
4297+229870778+230329300+230640300+230892871+231180465+231406175+231471845
4287+231608323+232100704+232708744+232760591+231826393+230261339+229173385
4277+229481885+230753528+231550745+231268152+230796399+230989986+231477193
4267+231498428+231185570+231343823+232227528+233096126+233132642+232412068
4257+231598999+231165238+231386225+232456589+234026088+235184416+235354875
4247+234713601+233709393+232817457+232470028+232607982+232648683+232253834
4237+231711932+231503846+231964468+233159052+234532203+235053252+234342957
4227+233234758+232653545+232464281+232004995+231318281+231176628+232001002
4217+233297805+234350059+235039534+235592184+235855747+235400854+234198735
4207+232784102+231854539+231821184+232485291+233226614+233751656+234261105
4197+234690595+234560020+233911974+233528516+233824791+234280934+234293922
4187+233886519+233246478+232292051+231080520+230082945+229713811+229982756
4177+230727761+231780275+232903060+233910325+234777899+235458050+235827097
4167+235978161+236252957+236747682+236988203+236400462+235079471+233794648
4157+233198346+233303431+233708229+233997907+233969361+233700346+233318450
4147+232767398+232098221+231765169+232177434+233113125+233944357+234366693
4137+234643522+235147501+235840988+236268428+236135562+235725780+235478244
4127+235371892+235073272+234572626+234259594+234255497+234050935+233203798
4117+232169846+231901855+232704281+233936006+234804396+235069348+234934762
4107+234614889+234174651+233629711+233089511+232794520+232961628+233536781
4097+234150151+234407463+234208892+233749763+233317218+233129951+233250072
4087+233554040+233767318+233583992+232914572+232090650+231689897+232063823
4077+233054974+234097314+234586934+234373778+233886189+233581023+233533048
4067+233776347+234461551+235332251+235699856+235238174+234307900+233525147
4057+233428727+234166543+235174728+235720397+235763511+235594910+235064642
4047+234086739+233309265+233388079+234166161+235111263+235867259+236016829
4037+235175370+233747054+232841506+233100797+234105075+235078394+235734931
4027+236252697+236779961+237211413+237328565+237041215+236541368+236216997
4017+236308556+236612038+236557412+235698988+234288904+233311279+233656156
4007+235164934+236758257+237586051+237663232+237386109+237015586+236696755
3997+236524751+236509106+236620702+236793123+236906143+236970076+237210145
3987+237748748+238348870+238626532+238423135+237973520+237765435+238133197
3977+238933296+239689239+240041460+240046513+240039064+240109422+239881854
3967+239111412+238273651+238129290+238906052+240221087+241551403+242459504
3957+242614752+242015637+241189839+240956403+241854016+243604601+245137775
3947+245621440+245458065+245576242+246012677+246064646+245536184+244808509
3937+244118547+243793882+244528485+246430568+248249513+248586021+247688980
3927+247012857+247353220+248037555+247969021+247249680+247114417+248317839
3917+250038367+250549431+249123443+246872820+245447768+245467077+246583698
3907+248618768+251706822+255327332+258219229+259575555+259318052+257550902
3897+255025239+253286774+253413876+254849276+255569207+254422183+253062540
3887+253485328+255223185+256397575+256841441+257526680+257669878+256110363
3878+254281398+254327672+256343695+259169975+262089497+264292144+264619831
3868+263706139+263421184+263826243+263318478+261449161+259607504+259126618
3858+260624162+264637906+270947106+275617283+273618120+267175220+261236404
3848+258116384+257998954+259988149+262915277+266050456+269302683+272413222
3838+274124617+273438840+271299901+269313709+268047795+267336320+267137333
3828+267366064+267781315+268851315+271476576+274811471+276157691+275298955
3818+274706994+274560497+272818507+269624049+267426906+267838928+270624056
3808+273702386+274794402+274848403+276670023+280214011+282376687+282218174
3798+281883525+282181259+282126616+281535818+281516701+282906677+285640461
3788+289262221+293292287+297200043+300862069+305010868+310204819+315555876
3778+319883589+323834268+329146917+336939163+347615960+360860597+375027208
3768+387906271+398201034+405672052+411372118+417270755+424031843+429895996
3758+432959914+434071430+435938368+440661591+448096007+455265419+459737910
3748+463456333+469796284+478986650+486906345+491629672+496813586+505676960
3738+517974549+530731337+540942025+547768644+552091044+555548735+559887978
3728+565670417+571680876+576279115+579223988+580997406+581126140+579114944
3718+576144616+574495348+575793523+579492117+582270404+580971221+576279358
3708+570468095+565509387+563661166+565868189+569723646+571591557+570942088
3698+569900582+570254001+572513671+576125689+580042440+583451687+585940313
3688+587445463+588232661+588584448+588779129+589050002+589399775+590111754
3678+591910071+594166858+594329451+592006613+589449574+587469772+584458153
3668+579487151+574196902+570576583+569202737+569219094+569610817+570256571
3658+571237964+572138651+572936718+574289380+576454105+578753676+579639500
3648+577722797+573285519+568215614+564340571+561941402+560054843+558140779
3638+556876012+557134279+559064560+562254260+566138228+569881169+572046658
3628+571704942+569829530+568161440+568225268+571007201+575714901+579386893
3618+580037787+578996871+577910567+576966680+576491194+577477970+580115472
3608+583476413+586916497+590293447+593152544+594948916+595736184+596137492
3598+596705283+597547767+598422894+599486313+602042032+607376420+614341462
3588+619165081+619730372+617984215+616072964+614121777+612185384+611577448
3578+613033285+615252775+616758064+617974074+619958322+622455838+624709499
3568+626768271+628227234+627437049+624388689+621906939+622402636+625105113
3558+627513727+628493939+628195771+626712013+625045729+625191514+627355857
3548+628913028+627529563+624348266+622351448+622421736+623055578+623121282
3538+622771578+621900410+619907411+617499005+616736464+618660702+621922774
3528+624254850+624911473+624885983+624930434+624133582+621143633+616492261
3518+612512793+611016950+611736986+612897571+612865553+611281016+609104866
3508+607624234+607362946+607972688+608707725+608823575+607990607+606390235
3498+604530034+602981197+601931739+601150653+600613144+600670305+601227747
3488+601375199+600459719+599038678+598017766+597373228+596582626+595886344
3478+596158259+597416915+598124448+596752929+593692414+590500977+587760578
3468+584935792+582040891+580135683+580069840+581641041+584047398+586514841
3458+588470681+589404706+588936583+587213484+584930305+582786868+581224661
3448+580627734+581135794+582186676+582758530+582114166+580142455+577211646
3438+573952179+571036303+568884878+567435362+566220358+564946319+563928045
3428+563646234+564082443+564793519+565388918+565637982+565411213+564912807
3418+564776711+565583877+567232693+568813757+569356440+568769341+567769299
3408+566928552+565997583+564290459+561756549+559300427+557674600+556440427
3398+554827693+553368973+553494894+555524843+557947279+558848417+557637685
3388+555235044+553091363+552153484+552241830+552383135+551963803+551188691
3378+550362945+549424128+548476768+548183843+549133357+550994669+552521662
3368+552507424+550882500+548876410+547930890+548389568+549270321+549421211
3358+548726388+547927278+547498119+547304028+547323996+547853726+548648807
3348+548695654+547443875+545639619+544259418+543501460+543400091+544206598
3338+545615344+546690050+546893829+546463350+545876598+545543876+545640001
3328+545763213+545238623+544066751+542989025+542459434+542100631+541485403
3318+541028253+541448835+542528020+543270767+543300146+543122412+543104979
3308+543145297+543174190+543189818+542956902+542319101+541732730+541921855
3298+542955860+544105576+544775014+545140692+545471018+545525748+545204000
3288+544889162+544596793+543814909+542690057+542317538+543154187+544158361
3278+544432742+544622318+545418406+545846975+544745218+543138942+543149048
3268+544964451+546469184+545950810+544079114+542665887+542454329+542801601
3258+542850081+542276455+541244812+540297244+540108119+540922578+542248674
3248+543257675+543532506+543379151+543292819+543161897+542414670+540945185
3238+539285985+537901513+536937762+536397718+535942096+535022830+533736011
3228+532841783+532610048+532439745+531778746+530745263+529828775+529449623
3218+529689137+530191779+530379411+529742061+528178431+526341705+525211749
3208+524907920+524458445+523220209+521901301+521600146+522365848+523212048
3198+523277787+522579386+521583130+520522246+519513350+518865234+518690035
3188+518542201+517909505+516789446+515508044+514268315+513134400+512265419
3178+511837267+511691794+511342333+510533500+509419797+508013481+506055001
3168+503734941+501744512+500419285+499602013+499220117+499348052+499717273
3158+499680531+498942750+498036820+497651208+497714724+497653986+497196524
3148+496329731+494946925+493117353+491268126+489760615+488678652+487982717
3138+487553905+487301368+487246221+487215209+486735035+485613622+484251028
3128+483172329+482659963+482762096+483180247+483271892+482590439+481329804
3118+480004854+478880663+477960945+477375791+477336966+477594295+477420276
3108+476495315+475401302+474810799+474530793+473840102+472565854+471346788
3098+470921865+471432634+472311130+472740359+472335717+471388009+470427974
3088+469735512+469281279+468898376+468465813+468062073+467896424+467950981
3078+467795576+467000426+465774310+464910677+464877374+465163978+464856989
3068+463761343+462589367+462088773+462241573+462287865+461543729+460181343
3058+458895947+457920458+456937190+455881619+455157000+455009791+455167071
3048+455189088+454974682+454733223+454525068+454173975+453665081+453171885
3038+452642155+451862666+450910896+450102931+449648524+449602337+449830461
3028+449902520+449401891+448401989+447317456+446333424+445328277+444356087
3018+443819863+443959849+444392655+444362651+443375250+441561409+439589699
3008+438229709+437832082+438187168+438816947+439268645+439182730+438304269
2998+436631872+434627066+433072569+432382260+432129863+431635867+430879681
2988+430369849+430364814+430675449+430977195+430951601+430354361+429267328
2978+428077432+426976855+425755323+424344771+423254438+423037046+423525276
2968+424045248+424238366+424226802+424119842+423839975+423348098+422656261
2958+421675250+420357767+418998089+418093687+417783156+417639072+417232242
2948+416658270+416175769+415649095+414828212+413954195+413559867+413752604
2938+414072199+414008162+413454296+412679982+411930915+411142223+410180938
2928+409223437+408566432+408159046+407702730+407177827+406863684+406792597
2918+406582150+405955218+405093982+404348630+403925096+403846092+403866789
2908+403579733+402885014+402097469+401471128+400995468+400623956+400291477
2898+399840092+399195658+398415544+397540660+396673867+396010055+395536375
2888+395017723+394416594+393979134+393845608+393866444+393824910+393684716
2878+393568623+393490626+393238054+392659706+391903763+391184074+390527208
2868+389912674+389408851+388988963+388444926+387696483+387043090+386863723
2858+387066565+387049757+386377889+385357150+384662153+384496573+384445975
2848+384101377+383472084+382765870+382110809+381566910+381199669+381083472
2838+381238043+381476099+381384592+380672440+379545887+378552826+378002884
2828+377666134+377123868+376310555+375527837+375008664+374708481+374473933
2818+374221778+373975354+373780985+373563870+373172841+372603557+371997843
2808+371454674+371036141+370769574+370461856+369833501+368997997+368438957
2798+368383845+368512371+368353563+367743092+366853101+365980127+365390840
2788+365188310+365154868+364854026+364074190+363061299+362177177+361501767
2778+360919182+360399801+359996409+359660978+359252272+358714625+358113496
2768+357491808+356839178+356219504+355735371+355310449+354700186+353818460
2758+352919892+352367867+352288307+352492121+352667425+352606513+352296642
2748+351826156+351246662+350616397+350091459+349733143+349303810+348556062
2738+347610994+346760280+346109109+345650500+345385913+345160742+344696438
2728+343982966+343388192+343198754+343204797+342942953+342332378+341784625
2718+341568587+341421655+340992635+340320592+339653169+339115417+338737723
2708+338538527+338429657+338231920+337892843+337554704+337301958+336962638
2698+336355397+335650885+335207417+335065487+334890913+334423206+333744635
2688+333132740+332828356+332884649+333107285+333169482+332848497+332151382
2678+331243264+330318094+329524298+328936886+328560616+328382396+328408893
2668+328566555+328600171+328266129+327658714+327129088+326860646+326725106
2658+326509172+326085568+325446413+324748707+324249572+324069372+324061211
2648+323960016+323606839+323019323+322343044+321785637+321494136+321395615
2638+321227639+320832685+320370188+320131646+320179396+320269270+320153559
2628+319865010+319598131+319387058+319088091+318660216+318262936+318050787
2618+318003419+317970290+317802036+317441254+316926596+316355367+315870505
2608+315612585+315596055+315650160+315538442+315180960+314750897+314463911
2598+314275342+313953003+313430392+312853815+312348534+311995913+311896176
2588+312004768+312091239+312038245+311955525+311905795+311773137+311469100
2578+311059526+310637173+310222495+309855393+309650155+309631402+309611642
2568+309395534+309053227+308822951+308779958+308756726+308580207+308264501
2558+307930911+307631875+307349577+307100339+306898052+306651801+306269593
2548+305860471+305660372+305732327+305880196+305887523+305727396+305511323
2538+305324733+305151583+304928668+304664463+304474575+304445230+304516699
2528+304588966+304664359+304783508+304899150+304902692+304731556+304431339
2518+304131816+303924182+303770965+303616012+303527145+303607747+303813124
2508+303961965+303905811+303628236+303216822+302790058+302430596+302163196
2498+302006194+302010431+302174101+302357009+302376457+302173059+301852839
2488+301635133+301705942+301970877+302066759+301809186+301449412+301310294
2478+301400203+301523346+301531125+301389577+301180831+301031226+300950416
2468+300853700+300748824+300728196+300814319+300964341+301121656+301157460
2458+300938157+300555462+300292750+300270664+300314524+300232846+300020662
2448+299734127+299383833+299033748+298821529+298802603+298891921+298972003
2438+298977524+298919807+298896853+298987630+299082783+298978253+298720056
2428+298649733+298951097+299340945+299416164+299170226+298954222+299022392
2418+299296182+299518784+299518714+299340528+299169705+299126817+299173490
2408+299248501+299390466+299634286+299886407+300030282+300100639+300226421
2398+300417456+300517992+300400092+300131755+299900645+299817265+299836121
2388+299790837+299398627+298300551+296243133+293207344+289281494+284481664
2378+278812001+272467588+265854768+259360315+253120361+247037549+241054785
2368+235445062+230776865+227489372+225574858+224863921+225504014+227903860
2358+232323826+238721998+247031020+257380391+269279850+280459602+287721302
2348+289178858+285550517+279843801+275178764+272479274+271091016+270464657
2338+270200018+269741688+268725047+267287129+265988884+265419913+265698443
2328+266417697+267119813+267660673+268232457+269241580+271018297+273480062
2318+276171773+278665001+280796179+282551799+283956813+285182842+286577941
2308+288372803+290363579+292017205+292973247+293406296+293805591+294428494
2298+295107377+295575154+295800812+295972156+296274700+296709833+297094924
2288+297288355+297364130+297451364+297508213+297417471+297205044+297008071
2278+296876489+296704520+296362630+295873670+295419263+295145682+295027435
2268+294962947+294925337+294944923+294987047+294938394+294753819+294555839
2258+294505380+294605464+294729961+294825427+294981699+295270109+295568938
2248+295640927+295410026+295072338+294884671+294924677+295075984+295164643
2238+295118282+295035874+295056328+295176624+295295599+295368631+295403462
2228+295389988+295336855+295312859+295396135+295592240+295790810+295838144
2218+295711389+295555255+295495142+295514346+295546747+295575084+295603213
2208+295612902+295578904+295504067+295427355+295376722+295322687+295228020
2198+295129742+295110017+295192494+295308865+295365679+295324353+295232361
2188+295199300+295319596+295569736+295778690+295770599+295563485+295350642
2178+295259344+295236320+295208677+295219164+295328312+295497886+295646484
2168+295733753+295765494+295799041+295913988+296091236+296194168+296166802
2158+296144890+296264803+296460005+296553734+296491086+296385932+296359851
2148+296413575+296478515+296528105+296586759+296679238+296814015+296970531
2138+297082352+297087735+297011509+296954244+297005432+297180839+297419867
2128+297629863+297758597+297843679+297994221+298295480+298698039+299030101
2118+299171233+299174289+299178144+299279408+299517012+299875085+300266879
2108+300602796+300870335+301079671+301206113+301283346+301445766+301763937
2098+302136352+302426082+302608539+302740780+302879863+303039470+303147194
2088+303081143+302833329+302598399+302625764+302990122+303542321+304072815
2078+304471345+304711380+304759859+304603968+304331047+304099138+304061077
2068+304327123+304872896+305465726+305831647+305905582+305805567+305657455
2058+305565011+305603628+305725521+305811922+305870021+306025217+306306508
2048+306595821+306797795+306942990+307099228+307254076+307350236+307420663
2038+307580339+307848052+308092636+308190150+308136566+308022695+307998942
2028+308189803+308546070+308873201+309060555+309191824+309421684+309814345
2018+310257187+310508161+310426865+310154916+309975028+310042885+310308723
2008+310600432+310727881+310604912+310353069+310247880+310467114+310853385
1998+311055429+311021535+311159819+311781090+312578081+312967339+312818324
1988+312487443+312283628+312238379+312281163+312394339+312592319+312837876
1978+313037071+313147087+313223765+313306451+313388998+313571976+314007178
1968+314574865+314898106+314837472+314669219+314652272+314770344+314964401
1958+315266319+315605501+315769691+315664225+315464091+315458292+315792959
1948+316412285+317265013+318366806+319421265+319713529+318951926+317859822
1938+317324466+317446047+317782172+318054434+318271028+318441643+318513563
1928+318586560+319006447+319989090+321187668+322076651+322730323+323494219
1918+324042493+323734740+322806376+322179861+322331202+322975150+323540753
1908+323706958+323590587+323473973+323447059+323448240+323506894+323758007
1898+324301663+325075317+325825044+326416485+327107835+328058321+328766723
1888+328663548+328019878+327536578+327487856+327727717+328056654+328328117
1878+328503872+328699039+329070343+329834552+331370748+333804157+336247673
1868+337119050+336006318+334252244+333177747+332940421+333036025+333100236
1858+333084921+333079990+333203758+333544085+334167231+335157514+336600572
1848+338630937+341296741+343847703+344597396+342951705+340579068+339222030
1838+339114549+339541069+340081981+341182350+343397047+346190023+348063560
1828+348451533+348228133+347836548+346858315+345462070+344582532+344670462
1818+345319341+346000829+346696312+347709724+349023908+350085903+350424459
1808+350294163+350431752+351442559+353430001+355785865+357431591+357783691
1798+357429472+357564457+359056619+361767708+364039393+363923960+361944921
1788+360425985+360557150+361725584+362935413+364016890+365096422+365924529
1778+366519511+367723020+370461891+374520815+377976526+378856967+377484545
1768+375295268+373277613+372452597+373553799+375812392+377529274+378348560
1758+379045779+379629406+380034639+381372333+384540468+388405649+390622743
1748+390547107+389558109+388863389+388827169+389501781+390621493+391601878
1738+392728674+395467997+400162882+403783305+403117548+399930417+397036107
1728+395147881+394393952+394825716+395996789+397798892+401194143+406911885
1718+413333480+416551865+415051022+411594894+408944716+408074624+409108247
1708+411842568+415404789+418556532+421437542+425518587+430764282+434470203
1698+435290844+434573552+432573920+429631478+427877021+428600599+431150414
1688+434828658+440290391+447367880+451963202+450759763+447129026+445166830
1678+446146765+449418352+453039053+455516184+457623679+460364355+462414480
1668+462035814+460692980+460995697+463197476+465301046+465874498+466093697
1658+468063046+473064920+481310982+490140427+493172570+490966450+490405500
1648+493050087+495356811+493934521+490676443+488988106+489940953+493463550
1638+499229563+505487835+508294285+506214885+503122526+502349982+504170282
1628+507198883+510211197+512971147+515140942+516038330+516460336+518428643
1618+522422002+525935048+526357749+525196642+525108435+526403554+527960309
1608+529085403+530059399+531390391+533177943+535086589+536708457+538016321
1598+539373116+541081281+543082233+545078357+546812324+548207632+549321648
1588+550261194+551186676+552272980+553497013+554657980+555960219+558304310
1578+562306802+566623959+568480271+568123448+568594871+570887635+572962416
1568+572897754+571859721+571937962+574140053+579322197+588445886+599386646
1558+604206792+600964653+596525743+594215407+594044062+595428083+597603331
1548+600318587+604460232+610938050+619356637+628402051+635884946+638072556
1538+635236032+633091692+634822013+639235781+643251644+646006489+649487829
1528+654898756+661289826+667416898+673616481+680481439+686924461+691618686
1518+694811165+696853406+697889946+699188816+702525274+708790005+717843615
1508+727832917+733115839+729728818+723543056+720544981+721618540+725548557
1498+730288483+733581046+735002850+736544185+739777087+743905743+746489800
1488+746245876+744704749+744142514+745504518+748163099+750841892+753122294
1478+755718366+759310417+763844271+768245746+770365846+769475716+768178027
1468+769157892+772547761+776276081+778291375+779325484+781958437+787416037
1458+793516994+795263707+791759030+787577380+785228427+784539646+784838925
1448+785330941+785288227+784804823+784552078+784795169+785519788+787046469
1438+789331107+790878069+790418904+789445846+789887230+791446762+792523516
1428+792552410+792428016+792762857+793342525+794162158+795543748+796789207
1418+796182452+793596242+790898141+789410494+789072111+789143372+789125036
1408+789192823+789587464+789942585+790009956+790510098+792108873+794338711
1398+796336502+797773725+798428751+798191564+797997855+799038632+800895360
1388+801574279+800061628+798634615+800603373+806399981+813485874+819368258
1378+823678053+827207525+830263525+832673390+834663402+836866223+839491397
1368+842106777+844394819+846546521+848564315+849949517+850398540+850046961
1358+849074945+847824207+846811629+846123335+845405035+844588597+843970313
1348+843695689+843735834+844137143+844899267+845876910+846943940+848011804
1338+848935272+849676977+850389511+851060303+851440984+851568919+851938626
1328+852903211+854213610+855326549+856025332+856665911+857762321+859275666
1318+860660034+861856320+863590392+866336903+869621131+872526415+874398146
1308+875185344+875618115+876806066+879226210+882287906+885030736+886976227
1298+888105836+888386988+887878928+887090480+886567140+886110476+884895508
1288+882411396+878939640+875194790+871958624+869871306+868894219+868054861
1278+866456851+864537127+863493572+863560457+863807229+863648386+863507393
1268+863706728+863811535+863688114+864271671+866382534+869347758+871659136
1258+872608093+872510093+872095380+872403897+874210063+876813289+878392964
1248+878304756+877953525+878813303+880809843+883136640+885613181+888464083
1238+891355684+893539197+894818827+895866966+897622777+900474651+903676159
1228+905762990+906464620+907677019+911112102+915583448+918288911+918542907
1218+918371701+919348024+920744547+921201558+920909501+921469235+923944526
1208+927660554+931117237+933614893+935643730+937916769+940417342+942497714
1198+943664759+944264221+945433558+948141522+952147938+956053576+958434340
1188+958951360+958618950+959105410+961331220+964550091+967128870+968212361
1178+968343560+968777304+970576177+973841791+977437176+979925316+981057078
1168+981993534+983977156+987055729+990111730+991788432+991333158+989409822
1158+988247639+989836065+993616685+996709149+997037183+995220668+993037850
1148+991838995+992342332+994380476+997124001+999802446+1002119867+1004162734
1138+1006139063+1008048786+1009089285+1008447941+1007153378+1007538989
1130+1010638468+1014929857+1018145881+1019538445+1019837447+1020126656
1121+1021059291+1022394833+1023509718+1024364773+1025114396+1025471253
1113+1025956185+1028116847+1031789604+1034575773+1035559736+1036152531
1104+1036723447+1036475772+1035653500+1035186904+1035412492+1036390135
1095+1038451824+1041078456+1043035130+1045020280+1049687904+1057531685
1087+1064305727+1064960614+1060075528+1054723012+1052093393+1051730910
1078+1052107562+1052396215+1052395590+1052355237+1052477546+1052232927
1070+1050877036+1049232977+1050037052+1054781632+1060969686+1064793923
1061+1065924088+1066871448+1068622258+1069793193+1069168727+1067304636
1053+1065973748+1066116893+1066451178+1065203010+1063014706+1062192433
1044+1063584372+1065938256+1067795193+1068719147+1068986200+1069103370
1035+1069261101+1069276242+1069160531+1069176089+1069457796+1069582259
1027+1068522452+1065850257+1062815927+1061766538+1064132507+1068806660
1018+1072788629+1073741823+1071740004+1068382084+1065273646+1063312527
1010+1062422744+1062014352+1061635130+1060883562+1059726518+1059061352
1001+1059332433+1059424738+1058094961+1055676276+1054062986+1055454091
993+1060601646+1066904369+1069087117+1064021658+1054380879+1046223650
984+1043705227+1045574875+1046298938+1042544850+1037554679+1036298802
975+1039034270+1041911564+1042256475+1040888359+1039339592+1037327632
967+1034004162+1030194927+1027351457+1025135788+1022233143+1019146443
958+1017116495+1015189965+1011648060+1007420847+1005133778+1005093703
950+1004742263+1002018186+997486345+993219404+990848990+990562559+991136323
940+990929210+989585403+988265003+987471762+985995436+983097167+980246682
930+979224797+979749388+980063531+979250148+978344669+979141313+981869488
920+984250807+983830468+980961995+978113455+976846326+976506068+975393823
910+972926033+970636116+970410667+972102233+973858461+974442921+974132250
900+973545151+972888597+971945890+970371147+968410723+966651578+965105867
890+963561406+962009166+960195221+958299390+957688606+959419969+962577304
880+965111006+965597188+963537166+959227164+954210600+950594934+949561312
870+950864557+953012509+954129616+953418123+951771425+950878517+952001667
860+955115245+958690349+960879418+960998880+959534292+956982948+953385757
850+949286827+946632899+947422181+951054307+954144896+953760534+950268429
840+946403560+945003704+947308136+951551532+954358677+954402364+953056126
830+951952563+951734475+952124810+952073136+951119872+950582155+951841505
820+954346522+956793129+959045609+961289756+962687251+962450966+961147026
810+960204528+960505752+961473602+961738293+960943386+960393792+961649808
800+964561968+966903420+966358827+962881237+958947817+957158807+957732432
790+959319260+961524581+964331796+966222557+965740404+963691633+961746905
780+960775514+961173558+962346159+962470552+961030482+959809679+959769256
770+959879897+959865590+960860179+962961596+964912436+966177134+967333552
760+968290080+967467877+963761990+958946914+956804172+959541237+965588784
750+971470266+975221437+976646783+975785060+973353665+971602854+972471453
740+975419521+978540670+980943173+982568548+983113697+982950618+982759409
730+981279333+977120116+972592721+971397130+973581545+975178653+972223222
720+965590868+960802671+961848448+967165264+971692729+972294622+970047281
710+967315841+965156360+963533832+962373594+961398660+959824542+957192631
700+954336243+952786504+953264351+954618229+954220046+951304760+949033318
690+950144105+951854284+948440454+939280440+929962139+924730196+922662256
680+921138354+919436648+917879129+916057614+913729567+910950134+906448368
670+899455683+894856541+899581882+909324273+914754091+913893619+910556744
660+907668337+904508363+900044380+895229651+891852284+891759632+895988650
650+902829716+907733347+907529359+904239713+902127183+902668720+904570178
640+906783000+909298574+911769976+913385697+913025575+908899975+900714477
630+892261719+888362332+889392343+891465284+891186701+888860321+886472612
620+884797160+883050586+880218646+876957616+875292929+875871555+876190837
610+873017320+867211127+862836254+862057946+864142764+868095839+874399813
600+882711926
##END=
