##TITLE=<SNM>
##JCAMP-DX=4.24
##DATA TYPE=INFRARED SPECTRUM
##DATE=2/5/2025
##SAMPLING PROCEDURE=Instrument type and / or accessory
##ORIGIN=Admin
##XUNITS=1/CM
##YUNITS=ABSORBANCE
##RESOLUTION=4
##FIRSTX=4497.3318
##LASTX=599.83466
##DELTAX=-1.4281778
##MAXY=1.85455
##MINY=0.38355911
##XFACTOR=1
##YFACTOR=1.7271843e-09
##NPOINTS=2730
##FIRSTY=0.40293473
##XYDATA=(X++(Y..Y))
4497+233289947+233330323+232970007+232301692+231592517+231009941+230645346
4487+230571064+230778951+231267194+232067871+232984087+233522577+233350477
4477+232771593+232556201+233128838+233995601+234219224+233478370+232374024
4467+231566048+230971480+230175876+229438593+229589556+230792478+232093063
4457+232557823+232334459+232111906+232068510+231979216+231925605+232241490
4447+232929959+233589664+233789647+233301128+232223269+231055891+230474092
4437+230906792+232191192+233441548+233639841+232754977+231778283+231439242
4427+231545066+231581733+231314576+230919371+230868572+231337335+231717822
4417+231388806+230754311+230641032+230992359+231108104+230844812+230654647
4407+230647072+230392925+229652070+228769519+228306657+228554178+229261092
4397+229765831+229665891+229280090+229144346+229338756+229714705+230329496
4387+231062672+231216309+230194528+228396399+226889222+226273448+226311926
4377+226643202+227239013+227867383+227813617+226818253+225776870+225800320
4367+226895037+228058256+228402715+227819345+226801688+225981841+225743844
4357+226089615+226783812+227533950+227947532+227675975+226924698+226401910
4347+226539328+227027330+227194081+226687806+225726917+224845608+224434597
4337+224510208+224940803+225572262+226039041+225847926+224847282+223484183
4327+222530921+222509490+223247032+224056768+224508793+224788011+225030994
4317+224805905+223854178+222819042+222446234+222562238+222672773+223012849
4307+224062807+225495789+226462302+226621358+226308406+225933510+225540530
4297+224806716+223544160+222312353+222104967+223144987+224440895+224862432
4287+224265569+223307079+222580787+222258656+222368190+222987381+223973668
4277+224836429+225211791+225204285+225085917+225017656+225147206+225511094
4267+225812709+225791744+225623026+225495305+225213171+224653510+224149478
4257+224075127+224485309+225260760+226145348+226748474+226936328+226916536
4247+226677039+225913408+224824730+224286326+224833323+225972178+226718675
4237+226484319+225431083+224307464+223892329+224273644+224741337+224595672
4227+223883788+223164778+222869564+223168332+224077698+225224094+225816160
4217+225443282+224752656+224777244+225680139+226571060+226564158+225736287
4207+224963079+224964373+225615572+226196508+226193661+225667423+224960629
4197+224403228+224226728+224432613+224777262+225040295+225151140+224963269
4187+224220102+223003169+222071907+222329004+223790456+225440073+226312133
4177+226444927+226523022+226894243+227329273+227530689+227489432+227306048
4167+226946922+226488702+226268616+226391851+226572837+226748388+227267190
4157+228162389+228766948+228432341+227320921+226175043+225513785+225340098
4147+225461279+225735855+226024529+226241992+226430001+226520865+226281144
4137+225785653+225543861+225834726+226284353+226404102+226261266+226246254
4127+226356185+226158720+225449011+224549273+223933637+223883788+224469331
4117+225549969+226775098+227681686+227805628+226917227+225395659+224101389
4107+223573632+223575771+223686030+224025157+224945842+226212141+227105374
4097+227367527+227412234+227487517+227341179+226841409+226232260+225722310
4087+225414898+225514545+226053155+226620202+226774477+226494759+226031017
4077+225628340+225476636+225635829+226031500+226647706+227485326+228256566
4067+228512507+228161440+227511053+226803241+226027601+225138182+224247089
4057+223666635+223728598+224428299+225359406+226113823+226592576+226913344
4047+227230506+227577398+227710933+227294487+226365882+225413207+224922634
4037+224998089+225426976+225963568+226486683+226985797+227507464+228127845
4027+228870460+229555909+229894673+229858645+229697985+229507509+229203668
4017+228985153+229185896+229537895+229270117+228132659+226767834+225991693
4007+226120967+226918176+227903860+228793606+229641717+230460771+230955554
3997+230842362+230208798+229408915+228780355+228509333+228567361+228798369
3987+229143966+229684544+230431265+231219001+231833309+232134423+232144535
3977+232110077+232278933+232512201+232391710+231816261+231212876+231103014
3967+231664418+232675311+233712760+234446419+234843177+235040487+235043765
3957+234720858+234122649+233670572+233914297+235013017+236372303+237021138
3947+236730290+236436388+237019274+238089317+238570279+238113042+237268917
3937+236807747+237505274+239755653+242591231+243795137+242215437+239448223
3927+238079999+239006326+240893663+242040490+242478090+243416065+245022768
3917+245794388+244388462+241376557+238431429+236632575+236270931+237694905
3907+241523120+247689973+254441161+259106081+260452529+259001223+255472846
3897+250955714+247477375+246679942+248162687+249386073+248559100+247581232
3887+249175564+252787265+255357152+256033284+256392772+256038512+253608303
3878+250883795+250833825+253754969+257937099+262069327+264729923+264017591
3868+260925813+258760449+258405672+257842163+255905305+254109557+254306021
3858+257342048+263813742+273081827+279210736+275432232+265920836+257679881
3848+253409320+253322528+256413339+261036037+266037186+271031467+274788592
3838+275018116+271787385+268085424+265655974+263882226+262100438+260867509
3828+260757751+261727905+264344881+269582214+275791392+278371529+276588273
3818+274421909+272675354+268868259+263544807+260211876+261099621+265955691
3808+271976481+275800589+278045118+281577274+285234839+284932689+281644292
3798+279509849+278659167+276873669+274372594+273302034+274483215+277189088
3788+280823548+285207421+289753783+294115501+299178629+305480207+311376055
3778+315128469+317975762+322629053+330840917+343081273+358036819+372627321
3768+384793688+394799608+403150857+410544599+418407673+426517112+431921817
3758+432822279+432006745+434147142+442023778+453986745+463284526+466208741
3748+468403870+475436847+485853261+492700956+493900513+495260783+501433675
3738+513180748+527655264+539448891+545346464+547510465+549789073+553661201
3728+558568690+563567389+567764840+570202158+569773306+566102990+561373640
3718+559229103+561613241+568143101+576777985+582597773+579644087+569025618
3708+558018640+551963875+552114269+556322246+559725042+558527762+554632753
3698+552615212+554540095+560047121+568700192+579991875+590612242+594298846
3688+589415514+582110220+577763583+577455618+580324549+585321142+592273125
3678+601137292+608580210+609313335+605499113+603302570+601847916+595806506
3668+585431090+575477349+568106625+563053574+560179604+560253075+563623985
3658+568190276+569902407+567994641+567097353+571121221+577923570+579240254
3648+570440379+557978022+549160927+545422903+544682048+544535486+544049140
3638+543748388+544341161+545815555+548065830+551887402+557591272+561771296
3628+559754755+553893314+549774234+549658764+553391439+559623238+565702988
3618+569379136+570997504+571512734+570568168+568589243+567874616+569441046
3608+571141444+570928553+569984264+570678427+573544183+577107450+579893109
3598+581930148+583787945+585015800+584868306+584439074+586520907+592213700
3588+597796958+597864045+593029164+589021274+589520009+593665040+598200170
3578+600812762+601480733+601157998+600682661+601104162+603419143+607176976
3568+609919670+609435913+606780942+604564521+603367379+601826106+599352725
3558+597532821+597988763+599993502+601418063+601338345+601007466+602294886
3548+605377984+607918107+606928920+602199432+596605890+592797121+591188071
3538+590949333+591730356+593495667+595206037+595566388+595292450+596585184
3528+599565926+601071309+598502475+593218001+588498245+585902976+584950646
3518+584713771+584505816+584271702+584832623+586539128+587792314+586782698
3508+584593263+584112888+586139506+588246531+587511405+583859863+579855838
3498+577593243+576902186+576406799+575447429+574486057+574244006+575082074
3488+576657408+577827357+577513974+575736517+573620381+572220321+571294494
3478+569789802+567412289+564775160+562118567+559366555+557328653+557383005
3468+559793406+563168974+565694568+566434284+565604566+564045728+562421977
3458+560696491+558249890+554946619+552207755+552032998+554582887+557588511
3448+558666318+557595309+555574420+553196631+550455455+548108208+547368458
3438+548032528+548311539+547189628+545556801+544373497+543481076+542669269
3428+542328865+542470804+542373383+541606370+540651624+540287477+540747043
3418+541385956+541282289+540313118+538981871+537416027+535766877+535098216
3408+536240522+538115539+538647506+537222669+535135176+533744745+533155112
3398+532651305+531875008+531258389+531307048+531879771+532306898+531929223
3388+530654400+529156229+528115071+527363449+526468129+525662051+525245691
3378+524876299+524369214+524156289+524290255+524282560+524158118+524367177
3368+524888102+525442362+525953003+526176557+525858515+525389873+525206868
3358+524875575+523916273+522956041+522859310+523273772+523189533+522483741
3348+521845897+521635768+521756966+522243932+523068715+523826997+524550562
3338+525863450+527460663+527843514+526553541+525222846+525352326+526207995
3328+525844608+523780547+521646535+521030950+521655680+522120940+521759761
3318+521007139+520403874+520161754+520416056+520960378+520902471+519556419
3308+517606482+516469180+516508969+516646801+515901667+514769887+514680092
3298+516261880+518489793+519734282+519500444+518576654+517785829+517542846
3288+518216372+519854031+521730842+522907106+523108746+522770516+522560283
3278+522914905+523599095+523750903+522755056+521083060+519882847+519735490
3268+520052013+519685278+518108598+516078702+515065635+515820466+517537808
3258+518757416+518995326+518842275+518545181+517529905+515649539+513867906
3248+513072284+512922340+512551843+511899057+511650553+512142765+512873405
3238+513115629+512613685+511617907+510559045+509707138+508993753+508273846
3228+507689631+507433086+507273444+506797589+505992029+505107165+504174989
3218+503060980+501802514+500638156+499809371+499349046+498921263+498079537
3208+496873767+495882579+495470706+495327973+494956476+494306141+493658497
3198+493250833+493310397+493885502+494286229+493395533+491040866+488386274
3188+486627487+485881214+485541224+485227910+485016918+484983375+484995349
3178+484983306+484862073+484078116+482017816+479148644+476911034+476134289
3168+476209313+476051880+475421698+474875719+474661828+474326704+473504165
3158+472464422+471672320+471297441+471279600+471420261+471336264+470627159
3148+469200320+467436804+465940359+464899615+463935655+462831620+461935644
3138+461605110+461758402+462052494+462072061+461502030+460463667+459393866
3128+458444365+457463633+456498190+455673890+454818532+453886563+453387794
3118+453657833+454045722+453582463+452222573+450800014+450011570+449860003
3108+449896894+449750504+449414725+449044642+448597707+447876626+446818627
3098+445515575+444093671+442771293+441863584+441483666+441379792+441277988
3088+441287686+441714916+442454080+442883864+442561267+441720610+440863009
3078+440216193+439824577+439750485+439854428+439672148+438824658+437417145
3068+435931156+434833643+434242181+433835933+433210789+432423347+431980311
3058+432190303+432748497+433047835+432692246+431670207+430281846+428961711
3048+428034884+427559202+427328228+427029443+426536265+426042638+425745405
3038+425441754+424725471+423589687+422540971+422021496+421861267+421442354
3028+420437465+419206469+418300244+417858692+417768863+417957839+418121484
3018+417712267+416661032+415590851+415013504+414849997+414795057+414577370
3008+413909020+412688929+411248804+410101770+409483321+409229399+409013955
2998+408678796+408316237+407950883+407329915+406325510+405291115+404573175
2988+403950206+403100128+402322244+402123365+402322969+402235970+401647406
2978+401055806+400929087+401075995+400881498+400083495+399102073+398434862
2968+397986305+397344873+396505320+395865683+395630740+395612416+395532698
2958+395230531+394647282+393826676+392943986+392274705+391995556+391874530
2948+391323548+390053970+388546068+387546563+387266792+387367871+387527375
2938+387675387+387759384+387604332+387102319+386363846+385530884+384618655
2928+383786004+383477315+383830487+384161090+383557343+381910021+379979720
2918+378557782+377849849+377615908+377621015+377706737+377588473+377032210
2908+376218609+375557472+375233460+375195086+375322081+375395069+375208855
2898+374799501+374322231+373853141+373486509+373272618+372939323+372172138
2888+371194167+370513635+370173783+369794349+369207477+368545787+367906805
2878+367377288+367164260+367328975+367537413+367323764+366581529+365708950
2868+365227609+365222985+365239549+364826295+364052898+363355215+363011878
2858+362893509+362635273+362014167+361197219+360591228+360422924+360498638
2848+360411501+359996142+359489574+359168875+358981074+358700164+358298851
2838+357932806+357662354+357378201+356950660+356370482+355754656+355205296
2828+354682543+354070720+353317856+352481720+351753461+351383034+351381240
2818+351400151+351132390+350657881+350175367+349669074+349105462+348673227
2808+348529702+348498436+348237749+347591727+346657066+345629229+344712064
2798+344083952+343773469+343579248+343249197+342733000+342190956+341826085
2788+341736808+341783914+341595250+340912820+339925773+339056300+338506664
2778+338199631+337990882+337743585+337348242+336815481+336228402+335599358
2768+334945641+334431964+334203923+334136112+333953797+333549792+333027384
2758+332503802+331982153+331394073+330745601+330203315+329956812+329973377
2748+329966544+329628832+328893844+328030445+327454754+327315197+327280376
2738+326888035+326065255+325152059+324492095+324172121+324075217+324001781
2728+323763525+323313795+322799842+322393248+322085352+321716098+321166635
2718+320465984+319752875+319155443+318668856+318202215+317773777+317512987
2708+317415152+317265345+316880907+316322264+315837851+315616851+315554906
2698+315321551+314769154+314179693+313935088+314021190+314029334+313618979
2688+312855210+312082262+311545773+311189357+310806058+310327615+309895553
2678+309661715+309621546+309647670+309571265+309255709+308739409+308267626
2668+308037205+307985337+307938438+307821070+307610734+307237304+306646153
2658+305918032+305263555+304849853+304634443+304449057+304228264+304016788
2648+303784607+303424808+302950162+302539530+302332334+302258380+302132350
2638+301854754+301444710+300981348+300621135+300509462+300546870+300445377
2628+300110805+299743070+299491770+299253757+298895028+298492645+298242725
2618+298179987+298104479+297841136+297475885+297208262+297054521+296859472
2608+296556477+296242818+295989482+295720375+295318337+294752999+294114466
2598+293609727+293462508+293702696+294093070+294316520+294212197+293878005
2588+293569902+293402116+293206411+292835570+292420487+292113765+291838308
2578+291510293+291218134+291017460+290835421+290667635+290596717+290561138
2568+290327576+289780701+289133039+288736298+288682256+288712349+288582333
2558+288359487+288236425+288213873+288138297+287962884+287807452+287760088
2548+287752444+287707564+287693449+287760933+287738588+287435869+286964259
2538+286591761+286372642+286172709+285957317+285823471+285825904+285935507
2528+286102758+286269596+286349244+286232308+285852459+285307068+284858148
2518+284706340+284810852+284997170+285150635+285231267+285204194+285057838
2508+284835803+284602897+284415802+284318589+284294397+284252692+284142865
2498+284043287+284066806+284221651+284397685+284432333+284211677+283807500
2488+283476362+283414175+283545001+283612640+283431068+283045905+282728467
2478+282761648+283114993+283402252+283304745+282946913+282683708+282629286
2468+282622505+282570464+282557627+282624489+282685985+282683294+282605837
2458+282384371+281974050+281522870+281251002+281172579+281110824+280969990
2448+280836868+280818458+280910754+281028535+281071172+280973251+280768815
2438+280596025+280581048+280725523+280926594+281066341+281067738+280924092
2428+280714514+280557581+280511200+280531371+280555614+280609795+280769764
2418+281014801+281204587+281235525+281144091+281031400+280964589+280981844
2408+281118243+281372356+281661478+281860737+281922958+281941766+282043121
2398+282229871+282379263+282389443+282294335+282223900+282265088+282378676
2388+282421399+282175328+281389559+279907988+277747023+274960346+271513740
2378+267433190+262981177+258484112+254030167+249549287+245164120+241228148
2368+238001507+235456933+233372925+231576919+230320955+230415787+232658264
2358+237105428+243142368+250261413+258513515+267731561+276422782+282309001
2348+283961137+281796170+278022515+275077869+273563324+272555830+271439458
2338+270379595+269572396+268788784+267767244+266713921+266063240+265914210
2328+266009906+266060445+265900389+265617685+265598170+266211770+267485438
2318+269127117+270704642+271883632+272696975+273456275+274317172+275174721
2308+275983611+276849322+277790109+278663895+279317078+279656118+279653599
2298+279428026+279246781+279326723+279645731+280010965+280276551+280439006
2288+280569522+280716999+280844236+280840043+280647410+280348608+280046630
2278+279742065+279413049+279086397+278756709+278398601+278096227+277972631
2268+277987470+277987142+277941503+277960276+278056938+278037060+277721383
2258+277242371+276964602+277058382+277316532+277474328+277522779+277591626
2248+277698158+277751907+277704715+277604378+277540345+277551785+277580238
2238+277560775+277545193+277625377+277757929+277808710+277745108+277642666
2228+277552423+277485008+277462870+277516619+277671965+277906838+278072312
2218+277981707+277645289+277280090+277061522+277008809+277091132+277284472
2208+277513669+277648274+277607880+277452241+277320311+277279469+277287527
2198+277283351+277248427+277209604+277230706+277354165+277527352+277636937
2188+277617560+277506974+277413763+277408690+277431501+277372921+277250705
2178+277193591+277261713+277393609+277504420+277544538+277486061+277318516
2168+277065664+276808135+276682054+276798489+277127626+277498260+277763692
2158+277945558+278149303+278362539+278451022+278361486+278201085+278098091
2148+278098902+278208677+278416512+278666828+278883825+279035582+279141492
2138+279231735+279318510+279385648+279406717+279394086+279406820+279491559
2128+279657257+279907142+280213623+280482195+280657159+280815507+281022876
2118+281194389+281246965+281254333+281314259+281416770+281536519+281689690
2108+281847675+281942663+281974067+282019482+282168409+282474803+282896874
2098+283277672+283474118+283518809+283598267+283848877+284191748+284406347
2088+284386262+284259663+284214680+284292396+284413525+284528856+284670001
2078+284901509+285261498+285704067+286077929+286212672+286087143+285914007
2068+285978558+286332904+286714926+286846857+286743190+286637400+286701640
2058+286915445+287135272+287246341+287266754+287298054+287400548+287571906
2048+287807142+288115676+288502185+288928380+289275634+289422542+289387549
2038+289297910+289241107+289252150+289361114+289547139+289725589+289835468
2028+289883056+289924572+290042250+290279470+290618735+291065428+291616342
2018+292079428+292152070+291809078+291403417+291288154+291512053+291889969
2008+292207390+292342806+292308400+292226819+292258153+292489886+292820972
1998+293051704+293244855+293792076+294812597+295731419+295892130+295359783
1988+294646157+294041098+293641234+293582119+293876383+294305408+294641429
1978+294795791+294778985+294687776+294669037+294843069+295324756+296162169
1968+297074433+297508980+297270241+296818785+296668772+296822340+297017044
1958+297194872+297444481+297714036+297857700+297873575+297930792+298173947
1948+298640346+299437486+300725424+302178490+302817920+302086107+300710308
1938+299758979+299462402+299421474+299385101+299425511+299654552+300053416
1928+300602017+301506758+302939809+304468934+305446457+306066424+306910359
1918+307503201+306801412+305131970+304013095+304260944+305326087+306109595
1908+306044372+305479241+305105915+305168964+305399972+305568587+305828445
1898+306468497+307381037+308034133+308345722+309086300+310610180+311838036
1888+311624076+310465447+309547730+309175197+309044854+309068666+309332251
1878+309791334+310304804+310856752+311908643+314370394+318530541+322732513
1868+324104896+321891822+318395953+315918638+314940115+314882035+315193830
1858+315572333+315832433+315942346+316052812+316465272+317511503+319400393
1848+322316913+326258923+329959366+330822696+328187119+324763548+322972804
1838+322840667+323171270+323445449+324571329+327634688+331864717+334664525
1828+334877726+333996106+332992943+331326158+329197771+327901103+327899653
1818+328395869+328691617+329127682+330466210+332649675+334488421+334877898
1808+334107227+333467037+334109643+336467968+339892126+342686792+343481378
1798+342882842+342986267+345389938+349656375+352753174+351642789+347639454
1788+344583826+344218851+345613423+347313717+348880286+350179508+350818800
1778+351201617+352867780+357092805+363241885+368080907+368481565+365296076
1768+361280629+358171993+357214797+358966096+361891623+363473652+363628601
1758+363951715+364505631+364921853+366677638+371325614+377466722+381284429
1748+381129204+379051133+377464031+377342694+378581352+380185950+380893330
1738+381414841+384514297+390983317+396083646+394496958+388827080+383544471
1728+379894101+378162783+378440276+380038766+382766311+388050405+396991252
1718+406949342+411439470+407982804+401254272+395784861+393304199+394294145
1708+398484108+404146807+408822771+412594476+418138877+425835614+431262888
1698+431518881+428528442+423323927+417176435+413403522+413586078+416690642
1688+421984226+430602993+441793805+448098627+444106785+436196639+431252708
1678+431276899+435320783+440235864+443418281+446098479+449851618+452056202
1668+449576575+445436927+444567006+447420132+450251482+450131491+448986424
1658+450698037+457742023+470627607+484624577+488101638+482358531+479839252
1648+482988161+485521899+481696945+475018659+471195361+471775332+476562037
1638+485120620+494569277+497999992+492986869+486566439+484420314+486724700
1628+490913559+495021907+498978308+502158379+502863274+502179464+503802353
1618+508914795+513515251+512946427+509358901+507442955+508495605+511073033
1608+513364789+514845083+516075320+517510165+519031664+520402735+521696022
1598+523173072+524953808+526869098+528614875+530065871+531341730+532561821
1588+533718069+534813442+535978042+537401567+539302984+542157870+546714429
1578+552879556+557800849+557732727+554897374+554806130+558544948+562340327
1568+562901317+561972626+562357478+565084609+571820181+585237353+602704378
1558+609833603+602225866+592718370+587429341+585928237+586618156+588153562
1548+590642955+595835357+604920178+617027292+630284684+641293146+643546079
1538+637471195+632607257+633664083+638240969+641500274+642836283+646065840
1528+653234751+662660943+671974426+681184932+690479849+697634335+701510191
1518+703880801+705242417+705006991+704897112+707941422+715564067+727086103
1508+739176859+743996693+737612947+729049637+725717516+727953401+733436995
1498+738848948+741066749+740145064+739776983+743060514+749497060+754899901
1488+755108892+751017765+746800332+745171818+745990389+747766466+750234532
1478+754711064+761765403+769774625+775442640+775587028+770940433+766453341
1468+765632424+767974737+770329335+770469789+770498639+774435991+783770387
1458+794459013+796943782+788979422+779670011+774475401+772946759+772948346
1448+772662399+771408039+769610083+767898125+766687524+766744120+769116594
1438+773554130+777194836+777329700+775642382+775035839+775598831+775785804
1428+775285068+775276855+776239952+777534964+779102948+781552862+783767143
1418+782856846+778756056+774640082+772297769+771253919+770596647+770101087
1408+770076102+770595957+771127406+771404036+772234961+774364694+777278695
1398+779980254+782037447+782930283+782012048+780268410+779891771+781481634
1388+782987845+782066159+779837729+779983981+784064548+790150613+795584375
1378+799858404+804252182+809309788+813748497+816309532+817565548+818647083
1368+819916764+821836333+825191851+829411354+832192079+832140797+830484193
1358+829010006+828130837+827223990+825821377+824266991+823275595+823128791
1348+823448489+823581904+823320527+823416671+824900382+827609464+829972828
1338+830661020+829986355+829186489+829029746+829527445+830489852+831922696
1328+833857311+836089951+838278420+840176937+841809040+843548330+845816792
1318+848550100+851292863+853887235+856642215+859671133+862371380+863908443
1308+864374393+865163838+867634181+871479737+875037137+877164869+878101531
1298+878556093+878905332+879354924+879972372+880346182+879946283+878850392
1288+877361919+875198091+872062607+868664642+866023337+864039028+861813289
1278+859173986+856938446+855785890+855550672+855607337+855654961+856000955
1268+856973439+858284670+859414242+860359464+861369218+862265366+862710818
1258+862872185+863258073+863908650+864223655+863926664+863908236+865351432
1248+867978381+870128889+870848555+870895557+871565598+873524852+876568196
1238+879711272+881852600+882815421+883550547+885198800+888050614+891271476
1228+893681151+895053948+896217339+897733420+899315070+900562734+901479243
1218+902233971+903159798+904928421+907919033+911510529+914686044+917211810
1208+919544529+921833697+923748641+925060287+925976796+927179114+929509073
1198+933038934+936607170+939100704+940837233+942820231+945123547+946907217
1188+947823312+948483206+949461488+950644067+951661897+952585653+954153705
1178+957142040+961247247+964998730+967207214+968219729+969330183+971241400
1168+973527531+975215263+975790402+975907183+976763921+978614885+980533280
1158+981737669+982547405+983813153+985973737+988536429+990236240+990314577
1148+989315244+988292928+987831671+988256486+990025247+993008129+996021863
1138+998076779+999551103+1001208467+1002821796+1003741273+1004377632+1005804471
1128+1007981966+1009456083+1009275735+1008370890+1008141469+1008786042
1120+1009918513+1011106614+1011382967+1010460454+1010191140+1012395897
1111+1016143652+1018985459+1020231674+1021429782+1023878385+1026698588
1103+1027799448+1026341964+1023624462+1022072422+1023459437+1027340262
1094+1031154000+1032719844+1032466542+1032356801+1033435230+1035069334
1085+1036119051+1036443304+1036540208+1036241768+1035270871+1034463965
1077+1035128346+1037651283+1040829973+1042587415+1042231136+1041834344
1068+1043816237+1047927656+1052456849+1056549771+1059702096+1060951969
1060+1059990666+1057691284+1055322467+1054020761+1054292835+1055414263
1051+1056358932+1057559180+1060431286+1064495358+1066562214+1064524415
1043+1060288416+1057063000+1055645547+1054785220+1054249008+1055010845
1034+1056593115+1057256323+1056476956+1055511098+1055863511+1057662019
1025+1060036564+1062285355+1064540497+1067742239+1071755858+1073741823
1017+1070852876+1064839006+1060317197+1058969731+1058401908+1056233179
1008+1053221033+1051683003+1052671569+1055476105+1058620285+1060384077
1000+1059356723+1055680609+1051175849+1047650957+1045971990+1046230951
991+1047434029+1047890799+1046896919+1045135336+1043335309+1041500152
983+1039762242+1039309613+1040917213+1043105889+1043651004+1042168191
974+1039437782+1035886525+1032634122+1031763234+1033770941+1036140447
965+1035576075+1031381833+1025291074+1019173675+1013907767+1009374364
957+1005144369+1001298330+998517606+997041211+996095369+994893878+993607839
947+992649090+991471274+988863650+984273236+978443164+973357260+971167549
937+971918136+973177050+972799307+970929087+968575317+965929802+963178204
927+961453477+961599315+962706939+963134515+962778029+963146731+964960424
917+967116522+968564205+969775358+971285711+971987155+970554933+967613807
907+964828528+962797838+961241588+960359105+960537451+961380179+962131800
897+962349695+961692216+959805569+956589747+952332144+948094144+945713249
887+946186102+948578453+951373395+953821653+955423249+955896032+955359613
877+953345971+949438919+945195327+943189830+943505456+943403445+941189991
867+938918700+939904988+944466413+948981872+949452861+945884487+941609492
857+939140942+938659739+939471960+940862701+941792600+941524736+940934481
847+941889780+944703495+947084320+946315099+942275322+937684563+935476769
837+936365119+938597966+939687921+938551792+936410533+935668091+937304818
827+939929006+941938990+943079951+943093755+941436046+939748175+941204624
817+945578661+948586045+948263794+947864999+950030553+952797957+953434799
807+952472599+951593429+950676023+949199904+948088139+948286432+949676000
797+952194727+955770762+958782977+958771520+955686765+952558942+951590738
787+951633668+950938573+950141260+950340589+950795565+950629435+950617909
777+951628560+953088529+954128168+954786200+955754887+957750170+960479268
767+962271841+962042213+960794342+959955203+959645237+959256175+958410755
757+956816337+954584042+953205033+954338540+957121334+958659985+958307364
747+958711818+961306328+963735674+963075710+959641717+956173835+955015068
737+956816752+960232662+962541362+961897410+959226496+957301820+957605920
727+959317671+961381076+963684531+965691754+965815506+963799862+961699808
717+961072904+961498202+961973953+961316819+958366514+953908825+950605071
707+949179406+947524181+944781625+942761150+942846320+944015785+944773067
697+945694545+948375950+952461280+954478856+951086896+943863666+938299250
687+937747440+939716910+938519698+931990321+923728695+917632967+914608604
677+914968057+918320193+921356842+919824817+911777772+898829449+888796784
667+891345809+902231003+909868694+911136374+910050836+910316837+911930926
657+912783799+910842835+906087947+900839847+896954674+893621725+888613330
647+881097389+873379428+870185278+874851889+885254568+893360694+892584984
637+887153017+885217712+888565016+891252771+887366701+879740053+874513211
627+873170092+873509944+874204004+875431583+876484475+875744172+873739710
617+873196458+874553104+875203198+873892036+872628566+872691995+872312871
607+871253354+872204649+877163281+885012862+890326047+885488268
##END=
