##TITLE=<SNM>
##JCAMP-DX=4.24
##DATA TYPE=INFRARED SPECTRUM
##DATE=3/5/2025
##SAMPLING PROCEDURE=Instrument type and / or accessory
##ORIGIN=Admin
##XUNITS=1/CM
##YUNITS=ABSORBANCE
##RESOLUTION=4
##FIRSTX=4497.3318
##LASTX=599.83466
##DELTAX=-1.4281778
##MAXY=1.7155485
##MINY=0.184276
##XFACTOR=1
##YFACTOR=1.5977291e-09
##NPOINTS=2730
##FIRSTY=0.20469896
##XYDATA=(X++(Y..Y))
4497+128118697+127600285+127639531+128010062+128135680+127674076+126748164
4487+125869872+125624390+126251660+127488769+128752542+129449284+129396310
4477+129021806+128817407+128768826+128778245+129125582+129821084+130106576
4467+129339251+127960221+127022427+126993188+127326861+127208163+126643633
4457+126477808+127164422+128099204+128512833+128351662+127879146+127157362
4447+126305847+125633651+125190756+124647490+123864300+123324876+123727182
4437+125105102+126518714+126823279+125780888+124237927+123154537+122681798
4427+122335665+121866879+121588261+121825964+122365369+122566467+121985521
4417+120943942+120358231+120747275+121566875+121873165+121395100+120509599
4407+119530339+118606059+117990092+117847211+118000575+118159853+118175269
4397+118047422+118021681+118512188+119473000+120166693+120132390+119894454
4387+120118979+120622860+120687007+119890014+118392893+116784414+115689329
4377+115336201+115558730+116062135+116493223+116618347+116623747+116832072
4367+117198322+117528861+117825238+117966310+117581994+116685516+115909517
4357+115760900+116110167+116626517+117266079+118067483+118798053+119121859
4347+118996520+118649305+118223739+117693063+117103481+116699702+116722253
4337+117052643+117188100+116825226+116350052+116371783+116923350+117571232
4327+118102756+118551676+118765196+118560601+118208751+118232450+118712231
4317+119141519+119055520+118621680+118443041+118803145+119396868+119939277
4307+120588949+121448289+122107745+122141693+121756911+121498568+121486332
4297+121322410+120753514+120104812+119876192+120161983+120740298+121458492
4287+122157007+122476298+122103911+121092867+119849220+118976170+119036335
4277+120115024+121568824+122462337+122393806+121825731+121534419+121808337
4267+122337287+122819428+123290806+123739092+123920249+123867238+124008338
4257+124388718+124396123+123699249+122857695+122646917+123310597+124562731
4247+125800371+126371328+126135853+125671330+125632719+126093567+126624868
4237+126749917+126259494+125346853+124541849+124338877+124778610+125470932
4227+126051421+126469890+126783184+126924956+126888415+126923734+127246169
4217+127601964+127452181+126672088+125813727+125505487+125770414+126103052
4207+126146831+126146420+126554658+127239780+127540521+127273365+127061262
4197+127316761+127516972+126972922+125881222+125138938+125343953+126310696
4187+127452722+128354675+128927646+129242927+129398763+129444425+129397821
4177+129425026+129808624+130563890+131385915+132105359+132785379+133299183
4167+133337897+132945188+132558606+132427271+132371471+132161205+131857312
4157+131649117+131511039+131269819+131000760+131086321+131772796+132860597
4147+133907660+134556195+134676142+134451831+134252394+134148106+133780279
4137+133004402+132310914+132256671+132811866+133587660+134378302+135119886
4127+135611101+135720118+135670446+135698584+135641282+135313858+135047345
4117+135294216+135924004+136395075+136398395+135966346+135265854+134615446
4107+134402765+134772503+135641067+136925844+138340771+139235981+139239357
4097+138812820+138631122+138683929+138478914+137865914+137221362+136948367
4087+137068361+137306923+137495635+137750974+138159931+138479157+138410831
4077+138090691+137976787+138248588+138657777+139013815+139401190+139801369
4067+139968425+139815051+139481537+139034865+138528587+138182911+138130412
4057+138270710+138581505+139160110+139886417+140483563+140883566+141193260
4047+141468727+141750516+142084152+142377105+142443696+142224254+141819056
4037+141312583+140712005+140125679+139909696+140421579+141498832+142418683
4027+142684664+142636689+142867015+143284374+143370411+143165938+143248589
4017+143810928+144395138+144515486+144109906+143448996+142876080+142577690
4007+142542296+142785576+143442132+144470467+145423986+145744882+145342389
3997+144775443+144693491+145083132+145330255+145128673+144954660+145451844
3987+146623910+147766794+148102034+147529137+146729439+146393994+146556657
3977+146908004+147351160+147796984+147847524+147248205+146374651+145851558
3967+145963214+146650398+147698860+148750400+149458428+149706008+149502990
3957+148931809+148381184+148423526+149223914+150352472+151226212+151575050
3947+151653504+152009644+152701108+152944240+152098227+150677182+149682683
3937+149564376+150370276+152066387+154078245+155171950+154713190+153584744
3927+153068440+153408716+153866422+153893991+153818717+154223588+155064677
3917+155561050+154977073+153525027+152190606+151683843+151949395+152851311
3907+154927736+158751791+163478275+166885083+167595629+166014084+162911748
3897+159150386+156352027+156032092+157965160+159853862+159831926+159208825
3887+160094466+161958752+162854260+163153061+164412283+165504561+164386505
3878+162355630+162089042+163898190+166497717+169059361+170606603+170005288
3868+168517475+168557168+169853230+169824504+167520308+164834958+163843760
3858+165583743+170487131+177423184+181390232+178096126+171231438+165651434
3848+163066101+163589782+166429933+170198887+173930386+177412776+179915196
3838+179901561+177466981+174846189+173384471+172587693+171837565+171397188
3828+171475549+171967203+173706365+177821349+182760719+184643247+183344387
3818+182169813+181321459+178685595+174808286+172183596+172223476+174875884
3808+178513447+181139108+183395273+187049400+190552624+190393645+187322833
3798+184613943+182827347+181133083+179893652+179874141+180903111+182395513
3788+184244652+186587348+189203794+191950848+195225481+198857355+201396316
3778+202125086+202709072+205375023+210952341+218654340+226363296+232073404
3768+236069346+239913285+244149849+249086421+255807667+264617799+273743873
3758+281239869+287974004+296891502+310051981+326114818+339677099+347652792
3748+354166319+363374710+374139388+382072067+387096531+393834752+405466978
3738+421960380+439869801+453917431+461775723+465661612+468484285+471478900
3728+475112975+479622581+484281709+487409096+487694710+485777338+484567435
3718+487078939+494187756+504872488+517499624+529993428+540034149+546983969
3708+552429429+558267982+565725160+574491103+582037070+586345150+588450953
3698+589779750+590612753+591935133+595922122+603531769+612168037+616664549
3688+615265206+611850154+609914502+610482335+613736599+619452900+627171145
3678+635706724+640953345+639148040+634900396+634448771+636111940+634274627
3668+629289745+625356215+623242167+621778622+621349940+623372738+627953673
3658+633309972+637240517+640269827+645953821+656421023+668076789+671767681
3648+664608613+655984171+654192222+659405118+666172922+669428230+669758387
3638+671133033+674982624+679304657+682249133+683906184+684641109+684024369
3628+682615029+682640546+685332312+690636160+697539757+703506903+706291188
3618+707247785+709066594+711260253+711444991+709475839+708137007+709670277
3608+713320506+716191714+716894556+717048480+718410442+720753622+722732250
3598+723767264+724132264+723985503+723532461+723239162+723118515+722418210
3588+720512030+718354856+717747218+719188045+721734169+724191282+725911380
3578+726561994+725631437+722741801+718715902+715762025+715793287+718392610
3568+720991037+722095439+722660921+722813577+721157346+718129081+716328328
3558+716647516+717511669+718819165+722729490+729121922+734460986+736553919
3548+736372091+734821361+731791529+728166370+725896234+726118950+727863297
3538+728554948+726385985+722581385+720541874+722203253+725714704+727552465
3528+727066295+726875811+728528610+730548125+730677203+728212704+724435486
3518+721700818+721289036+722145429+722733892+723038457+723262814+722693676
3508+721651127+721960989+724094212+726381136+727773390+729059547+730927898
3498+732534661+732260240+729583321+726244969+724831674+725876238+727376530
3488+727973723+728917859+731116815+732683959+731615147+728879285+726570575
3478+725196824+724800039+726233852+729511768+732342611+731997756+728568527
3468+725339929+725384696+728423930+731838310+734200741+736289495+738555453
3458+739976433+740082605+739909506+740132073+739837879+737957589+734692357
3448+731122710+728235237+726705174+727226785+729886468+733669729+737612510
3438+741093743+742091675+738423763+732096168+727831065+727545004+729481177
3428+731374002+732532050+733175128+733169980+731946721+729439843+726904910
3418+726090001+727232008+728732300+729154005+728547934+727803011+728061242
3408+730282432+733685995+735774003+735242320+733399486+731911281+730966473
3398+730481720+730821427+731502185+731400713+730577522+730334735+731691698
3388+734269682+736235178+736117068+734714666+733854692+733835964+733449849
3378+732195700+731663122+734134262+739055053+742012959+739877796+735224339
3368+732437890+732251883+732714326+733014415+733717033+735014381+736543325
3358+737850298+738663491+739226660+740194448+741986547+744193337+745289309
3348+743059985+737180359+731291481+729634430+731907028+734200965+734919625
3338+736143480+738738475+740194448+738360716+734428903+731363929+730897233
3328+732064682+732767898+732782298+733762248+736303896+738732432+739403191
3318+738659686+737725622+736900640+735667607+733978025+732373500+730825979
3308+728702530+726247058+724751243+725144894+727599246+731753104+736177876
3298+738945374+739554578+738748026+736751118+733825742+731544116+731383104
3288+732899960+734469567+735397438+736562500+738776453+741125005+742007065
3278+741584837+741398383+741659897+740881324+738623648+736760221+736974207
3268+738590297+739680523+739309852+738188587+737527154+737640639+737778372
3258+736864528+734583797+732219875+732077366+735279178+739963824+742778028
3248+742706699+741586031+740470064+738141806+733941689+729793726+728106308
3238+729260178+732060131+735348866+738453011+740945266+742515096+742734305
3228+741463668+739821614+739439229+740329346+740643163+739029312+736203021
3218+733656747+731915011+730723238+729702177+728263291+726465671+726146407
3208+729341504+734937308+739044160+739768192+738930153+738231116+737245570
3198+735426387+733248845+731294615+729813125+728859289+728233968+727891127
3188+728277168+729371424+730028305+729284053+727693182+726584229+726466342
3178+726912520+727190001+726444779+724249628+721381331+719467914+719335925
3168+720213508+720935227+721303212+721582260+721143245+718918324+715377028
3158+712563645+711570638+711126176+709484345+706889275+705190367+705575886
3148+707548619+709973649+712310562+714225994+714848554+713567620+711110134
3138+708872007+707500868+706660740+705860753+705012866+703978225+702260365
3128+699923377+698123967+697945869+699074669+700196829+700686207+701253331
3118+702428465+703239047+702278123+699631123+696802370+694958565+694084489
3108+693447827+692310297+690693536+689683219+690348905+692435645+694593192
3098+695737138+695865620+695635144+695539940+695492263+694914843+693248614
3088+690379421+686864911+683908646+682768729+683589084+684789661+684501362
3078+682705458+680893886+679876630+679247728+678676575+678527128+679307790
3068+680870159+682046487+681572778+679628994+677657529+676699514+676660642
3058+676799345+676474709+675973468+676273705+677220379+677111669+675098869
3048+672537524+671025592+670389005+669307136+667190402+664954513+664068051
3038+665103363+667330597+669381076+670050119+668860659+666306999+663582180
3028+661950645+661956241+662910749+663418705+662556940+660280985+656976358
3018+653266291+650060673+648312969+648574632+650392770+652091902+651927682
3008+649711864+646870053+645079297+645121602+646608837+648232687+648518822
2998+646817526+643813958+640945511+639165051+638232107+637291029+635867736
2988+634099812+632570944+632047766+632674505+633427859+633243344+632447536
2978+631993449+631802219+631073263+629870224+629146266+629239829+629376220
2968+628670318+626965142+624817892+623130959+622443449+622301948+621842974
2958+620916185+619964624+619177210+618412253+617752574+617649759+618360100
2948+619294089+619100770+616841416+613265836+610379483+609428892+609809076
2938+610162101+609904355+609300448+608806220+608717022+608779696+608099722
2928+606031635+603070110+600472951+599211528+599285953+599644947+598979635
2918+597070694+594950118+593538390+592859983+592523932+592253874+591841757
2908+591101870+590167507+589444222+589084444+588788012+588214322+587324913
2898+586201336+584843141+583259098+581497627+579547613+577331981+574935826
2888+572900904+572029476+572556608+573672128+574294128+574173929+573755469
2878+573242887+572461441+571413557+570362875+569445076+568571709+567608882
2868+566484484+565317258+564416956+563823457+562985866+561424281+559556004
2858+558278203+557847582+557621322+556842712+555369056+553642727+552192873
2848+551185055+550356940+549407543+548444120+547866103+547755342+547606267
2838+546770952+545046638+542852383+540985971+540088467+540163340+540613099
2828+540719980+540123124+539042597+537982253+537073855+536025934+534839906
2818+534009366+533794746+533789523+533379158+532378168+531126706+530038121
2808+529124836+528063224+526650264+525017014+523463039+522203071+521237857
2798+520491553+520046681+519936554+519670899+518463682+516172244+513649026
2788+511882444+511049218+510679069+510437924+510228042+509731426+508546406
2778+506707078+504594671+502595078+501133322+500523894+500491923+500307744
2768+499547786+498352171+497023001+495819477+494989496+494533656+494011934
2758+492946963+491382020+489772981+488466605+487500010+486686071+485765400
2748+484694685+483680413+482726391+481571290+480273755+479200652+478299641
2738+477157746+475815333+474763681+474137688+473470995+472260346+470529765
2728+468837870+467729177+467181266+466703415+465884328+464641409+463107057
2718+461585351+460452074+459759005+459144690+458364214+457520132+456599312
2708+455374225+453954439+452825153+452233035+451984466+451693182+450943968
2698+449581260+447968304+446588808+445524174+444637414+443921925+443359838
2688+442795587+442139339+441437355+440711010+439868084+438760474+437398922
2678+436131754+435383473+435162026+435010079+434496900+433626442+432688163
2668+431818974+430907629+429894253+428883376+427921408+426947762+426006349
2658+425248518+424692101+424149487+423419300+422472552+421453431+420554919
2648+419914602+419542140+419269173+418877312+418360626+417876956+417355569
2638+416483359+415255138+414154354+413533361+413170972+412698904+412099995
2628+411507392+410898784+410245298+409592669+408848268+407877719+406843750
2618+406044771+405501485+405028223+404509001+403850851+402942677+401886772
2608+401047428+400697723+400712757+400680450+400321381+399767054+399333709
2598+399071374+398733458+398170363+397496396+396824480+396100224+395310497
2588+394652011+394343939+394362704+394450373+394348304+394016021+393649304
2578+393428454+393257667+392896211+392302824+391636579+391013161+390495430
2568+390150015+389874512+389420649+388795514+388351463+388332026+388594249
2558+388828269+388843042+388647261+388383583+388182057+388058015+387929384
2548+387685367+387281195+386807896+386403612+386111731+385910653+385816381
2538+385852829+385977617+386090430+386077559+385892074+385628397+385458879
2528+385488313+385688310+385926657+386043872+385933708+385595008+385172594
2518+384898508+384841430+384796402+384608865+384412897+384309896+384090612
2508+383564264+382934168+382589537+382638109+382780468+382619307+382043043
2498+381280996+380621019+380174841+379912879+379799656+379841961+380037518
2488+380304665+380484479+380421955+380056842+379492106+378949828+378546701
2478+378153199+377645131+377226596+377254725+377740596+378233631+378278621
2468+377903026+377557089+377551605+377655390+377394473+376703680+376039785
2458+375805691+375906380+375957862+375726230+375271844+374838015+374673496
2448+374828278+375064013+375090053+374899308+374703005+374540165+374187438
2438+373504853+372687519+372126439+372074621+372384856+372593844+372411717
2428+372022691+371724841+371496455+371161859+370766193+370546499+370646739
2418+370973613+371269262+371305635+371035802+370601450+370245925+370159115
2408+370319380+370552318+370781413+371081427+371449114+371677687+371556107
2398+371155852+370796709+370659535+370584103+370389702+370179372+370087002
2388+369949866+369494847+368660725+367520621+366038720+364085461+361606972
2378+358665741+355375999+351877270+348318814+344846534+341699375+339238494
2368+337623151+336519420+335429604+334285881+333583076+334048467+336175535
2358+339879819+344627064+350027571+356162071+362996354+369618926+374591348
2348+376935200+376737367+375241328+373901302+372801824+370829762+367325511
2338+362667987+357597936+352690724+348425695+345254474+343367170+342518798
2328+342202967+341946787+341517546+341055401+340948110+341419432+342340103
2318+343466217+344670488+345918107+347147484+348223049+349020835+349589749
2308+350168251+350941228+351790571+352403655+352656365+352762799+352998460
2298+353414308+353884287+354310656+354690914+355027450+355244906+355276206
2288+355236699+355347423+355599163+355712237+355548427+355325338+355302991
2278+355474113+355643930+355615689+355272624+354668419+354035674+353576626
2268+353324625+353282656+353487651+353809452+353944238+353793970+353623780
2258+353678993+353858845+353917489+353815458+353729468+353796208+353955914
2248+354074957+354163111+354345872+354616750+354777128+354685207+354442942
2238+354283646+354347029+354591643+354891769+355179808+355460198+355723466
2228+355936781+356104993+356257424+356410789+356617389+356970638+357451062
2218+357850310+357987595+357949282+357958310+358063550+358168603+358337487
2208+358794968+359552389+360282315+360701409+360902115+361165905+361602234
2198+362101349+362518988+362801617+363023251+363349901+363876846+364520260
2188+365169382+365842715+366552049+367151405+367497864+367649326+367773480
2178+367968925+368266887+368702172+369296827+370031417+370892063+371895180
2168+373017041+374164644+375316388+376630374+378284814+380245647+382334215
2158+384516794+386994835+389949049+393256063+396534427+399477336+402074197
2148+404471919+406725677+408801300+410753665+412750199+414898643+417154192
2138+419450629+421870809+424578281+427560623+430574003+433436145+436256356
2128+439254851+442448978+445597368+448364977+450487419+451829311+452343348
2118+452031695+450966426+449256438+446966232+444163816+441047211+437910124
2108+434944234+432087688+429080911+425737262+422162652+418620424+415232269
2098+411960322+408821706+405933450+403335060+400895481+398452545+395997931
2088+393660235+391527832+389588711+387849289+386372462+385151852+384079868
2078+383096299+382251135+381563775+380926740+380224793+379493822+378907188
2068+378608219+378516745+378337117+377897132+377411596+377184403+377162580
2058+377052303+376744269+376352707+375982148+375687655+375526196+375486913
2048+375479116+375463447+375512989+375698847+375963569+376175019+376323646
2038+376607730+377259239+378294290+379463978+380465565+381189112+381727697
2028+382178948+382517835+382637363+382430949+381882665+381134907+380380769
2018+379634130+378699469+377440695+376019416+374788995+373967706+373450125
2008+372934670+372215898+371346411+370524078+369849812+369231206+368523738
1998+367751395+367202999+367218145+367727594+368124453+367877265+367131372
1988+366380479+365856556+365532144+365345055+365170128+364847731+364372828
1978+363889978+363518785+363287190+363152926+363065780+363072793+363246340
1968+363423394+363240446+362583378+361755747+361078907+360621314+360385988
1958+360420907+360627618+360735395+360569011+360188081+359770964+359484493
1948+359459721+359831437+360639332+361513707+361730827+361014107+359938915
1938+359169706+358834662+358769377+358823433+358861858+358803250+358664995
1928+358578856+358877489+359804875+360952925+361622827+361866882+362200694
1918+362373570+361649239+360254187+359304828+359450358+360299812+360929162
1908+360777364+360073365+359364554+358870587+358513869+358309060+358413106
1898+358862902+359397943+359671022+359785215+360272094+361152027+361548066
1888+360849476+359641065+358776912+358385462+358182481+358033519+357943910
1878+357894666+357852958+357900747+358434557+360038783+362717828+365166771
1868+365526698+363575527+361028246+359400778+358898865+358985862+359140346
1858+359110091+358911027+358734160+358775607+359179890+360029941+361344525
1848+363259919+365863308+368248271+368519970+366329557+363805592+362703353
1838+362856494+363177548+363266523+363957464+366113183+369033970+370795291
1828+370785592+370212350+369621649+368404844+366651357+365417839+365235115
1818+365654843+366133440+366782077+368057639+369876373+371361594+371752112
1808+371325557+371036474+371666047+373467771+376016880+378255193+379294348
1798+379461142+380112503+382359285+385886106+388562502+388382800+386370373
1788+385141593+385795564+387659700+389787402+391889289+393822888+395287180
1778+396564085+398758639+402814531+408244921+412624404+413714332+412244742
1768+410264846+409056845+409534808+412031353+415303001+417483491+418580246
1758+419826634+421342035+422852363+425231618+429378761+434348385+437796714
1748+438721899+438335187+438262142+439413699+441798252+444464949+446324049
1738+448039596+451772457+457994886+463136155+463481048+461065979+459140959
1728+458522428+459243886+461249076+464106891+467863739+473578511+481782180
1718+490322609+494847883+494105832+491405971+489779846+490365063+493398849
1708+498557838+504558783+509830175+514775998+521478181+530044127+536942240
1698+539931521+540482827+539382826+537571142+537596995+540705505+546026924
1688+552914144+562413110+574394742+583451260+584959163+583198998+583518821
1678+587619294+594797947+602544321+608574103+613628710+619187917+623959335
1668+626067638+627400502+631059609+637234250+643357782+647460232+650802612
1658+656017224+664912879+677999549+692062437+698774133+698513142+700137886
1648+705802631+711093496+711672706+709909856+710053856+713204858+718976894
1638+726845892+734509260+736939960+732953606+728072135+726218557+727072189
1628+728572258+729497517+729847819+728892267+725724030+722158113+721022001
1618+721941515+720857631+715206018+707878850+702023473+698007200+695028551
1608+692395504+689833413+687368317+685141008+683267657+681780422+680728994
1598+680185597+679934976+679409710+678254348+676687054+675068129+673478602
1588+671879225+670427207+669456583+669094045+669191413+670035943+672595497
1578+677065112+680967155+681049153+679105443+679508645+682995996+686720687
1568+688526216+690036133+693520649+699708943+709431445+724127788+741541563
1558+751626155+751916768+751606309+754793721+760896660+768872651+777601101
1548+786027747+794419550+803790183+814027729+823820143+830576382+830501472
1538+825379154+821915828+822423412+824515300+825167406+824776590+825933445
1528+829755205+835638040+842666463+850190008+856783967+860438971+861513603
1518+862061999+862182124+861124055+860156789+861660066+866737765+874798665
1508+883614336+888345464+885830453+880694482+877911987+878459115+881357556
1498+884658676+886345199+886272527+886370791+888257050+891612487+894171146
1488+893810026+891316801+889315715+889222898+890388333+891557722+892639666
1478+894560918+897990743+902853860+907856575+910128949+908370724+905582783
1468+905076915+907105533+909358657+909758054+909563541+911667666+916750812
1458+921613033+921004575+915183817+909687247+907348767+908201579+910974822
1448+913159378+912805644+910601539+908526662+907713992+908550240+911125910
1438+914374131+915508975+913149454+910249073+909836247+911427267+912854141
1428+913804097+915629473+918055696+919418106+919872342+921129549+922907173
1418+922674086+919911289+916753573+914572299+913286143+912319623+911232903
1408+910064783+909057375+908236796+907954241+908987912+911023468+912112725
1398+910956019+908673349+906615483+904550306+902418799+901138238+900512917
1388+898581071+894268664+889601776+887456839+888613544+891848260+895561759
1378+899290479+903651235+908448171+911851285+912947182+913502144+915277753
1368+917932288+920609655+923555101+926996417+929887471+930967103+930296866
1358+928810227+927224430+925983115+925551487+926162258+927340899+928279813
1348+928843280+929685721+931371946+933864350+936686836+939193938+940907396
1338+941793783+942033063+941804303+941561442+941904358+942864237+943850903
1328+944569786+945353358+946200798+946333905+945415734+944561355+945334780
1318+947897618+950751739+952375887+952559357+952099600+951760564+951610445
1308+951087268+949837223+948504360+948146000+948826160+949447228+949199144
1298+948504658+948033187+947390706+945538321+942382768+939253105+937547183
1288+937305815+937348492+936490010+934230768+930757742+926930311+923830120
1278+921796429+920201305+918334968+916093707+913723964+911429431+909480648
1268+908336701+908212398+908376320+907352572+904426451+900463151+896809565
1258+893995883+891663596+889254011+886692964+884620550+883836754+884423426
1248+885512309+885997956+885595650+885074040+885261986+886068390+886766457
1238+887032149+887270981+887966735+889147316+890572251+892127457+893774884
1228+895363516+896837097+898281878+899570199+900517693+901430567+902847219
1218+904823534+906984140+908941951+910457240+911763616+913682256+916739993
1208+920195261+922486587+922926945+922597534+922989321+924270180+925862468
1198+928080973+931560639+935464025+937975902+938536833+938347469+938703889
1188+939861042+941542267+943778902+946682566+949689641+951869124+953034037
1178+953881103+955117046+956860423+958782794+960706880+962823540+965033091
1168+966620828+967360603+968271015+970253523+972744509+974781558+976561644
1158+978622718+980369602+980911506+980686328+980934338+982227433+984342302
1148+986707269+988699849+990209319+991450708+991789147+990318923+988105045
1138+987725047+990286467+994311843+997386517+998347217+998304017+999710075
1128+1003784396+1009035419+1012916645+1014278159+1013651570+1012491806
1120+1012790924+1015838514+1020332078+1022971244+1022149993+1019917834
1111+1019529107+1022232289+1026364733+1028706272+1027665812+1025211386
1103+1024098776+1024399834+1024719918+1025597949+1029267949+1036026949
1094+1042383941+1044317279+1042279112+1040371066+1040856341+1042233300
1085+1042375510+1041469948+1041109573+1042006928+1043998687+1046792224
1077+1049294104+1049530325+1047159090+1045178597+1046770065+1051214311
1068+1054890653+1055605061+1054104097+1052165759+1050997191+1051180213
1060+1052549860+1054442983+1056636717+1058682793+1059764812+1060364168
1051+1062481275+1067074372+1071668513+1071788936+1066050252+1058227587
1043+1052832266+1050995848+1051603336+1054045303+1058575278+1065034413
1034+1071380437+1073741823+1070616712+1065819701+1063707668+1063977762
1025+1063518453+1061192060+1058459555+1057017609+1057698367+1060029385
1017+1062172308+1062580509+1061297038+1058978106+1056261494+1054245635
1008+1053688435+1054093950+1054767470+1055813078+1057141241+1057898400
1000+1057638677+1056737517+1055258564+1052783246+1049734537+1047330026
991+1045939114+1044577749+1042200172+1039027384+1036735313+1037073005
983+1039355303+1039832594+1035752975+1029414263+1025258242+1024225840
974+1023405932+1020464290+1016308717+1012863074+1010109081+1006570397
965+1001863592+997146193+992903995+988155781+982612131+977918980+975375840
955+973710432+970614942+965888141+961618188+959530105+959266203+959053112
945+957808663+956276437+955470258+954948797+953745981+952349400+952024093
935+952436844+952051475+950905887+950904544+952943607+955288728+955535543
925+953658014+951838608+951382133+951436525+950901112+949922355+948934720
915+947970364+947050178+946209528+945742011+946376583+947900527+948335737
905+946311970+943069196+940575672+939167451+938125200+937704465+939228931
895+942639134+945253826+944683047+942186838+940789286+941341562+942794923
885+944288127+944914865+943707723+941353798+939814185+939527975+938861842
875+936769580+934407299+933348484+933417575+933276857+932502984+931949515
865+932316754+933144048+932999152+930511971+925990502+921936027+921143278
855+924322557+929818679+935087459+938076180+938081179+936187236+934276281
845+932955728+931488564+929950070+929556046+930553903+931704938+932012487
835+931390822+929888366+927712913+925826132+925481874+926996491+929327734
825+931216231+932556630+933742509+934356115+933944110+933298121+933531880
815+934583830+935773066+937018709+938460878+939704954+940320724+940350345
805+939943935+939516410+940305429+943310266+947387870+949703072+948947031
795+946762326+945315157+945103857+945314411+945249126+945239799+946134394
785+947668261+948565392+948612771+948479440+947819574+945958982+943697352
776+942665323+943427929+944942024+945709331+945301429+944503456+943746968
766+942234738+939335402+936112475+934834451+937074145+941922861+945908768
756+945841394+942577803+939879993+939639892+940372430+939977361+938673522
746+938186307+939189089+941309926+944542404+948537711+951603432+952654561
736+952661053+952635088+952197789+950679739+948045125+944871068+942127671
726+940425703+939623403+939766061+941247252+943424571+944989776+946001436
716+947385110+948921066+949822600+949895197+948686636+945689036+942044553
706+939980420+940400633+941570396+940760187+937555316+934240915+932267808
696+930013341+925492394+920049470+917187589+918013914+919794895+919129881
686+914987514+908429518+901162785+895036568+891211598+889175296+888016725
676+888017098+888874163+887358053+879990520+868547099+861876514+867259003
666+877835958+883940240+885279968+886004000+887726187+887896675+883847572
656+876394758+868589404+862825277+859854463+859159529+859493043+859692779
646+859686512+860389279+861908299+862400960+860204690+856436500+853159480
636+850254174+846690123+844033797+845174759+850496961+857679681+862986587
626+862550706+856259223+849181482+844940851+841020901+834574450+828757125
616+827723156+829523611+829721481+829055721+830944292+834109395+834260260
606+832035264+831970128+834324277+834578031+829648287
##END=
