##TITLE=<SNM>
##JCAMP-DX=4.24
##DATA TYPE=INFRARED SPECTRUM
##DATE=2/5/2025
##SAMPLING PROCEDURE=Instrument type and / or accessory
##ORIGIN=Admin
##XUNITS=1/CM
##YUNITS=ABSORBANCE
##RESOLUTION=4
##FIRSTX=4497.3318
##LASTX=599.83466
##DELTAX=-1.4281778
##MAXY=1.7776216
##MINY=0.20584697
##XFACTOR=1
##YFACTOR=1.6555392e-09
##NPOINTS=2730
##FIRSTY=0.22666407
##XYDATA=(X++(Y..Y))
4497+136912538+136821486+136575701+136073268+135407551+134715562+133930495
4487+133063638+132600907+133125734+134529947+135953863+136501210+135864828
4477+134489633+133308936+133040010+133538429+134005138+133889829+133423030
4467+133271871+133857579+134992273+136070145+136623783+136721559+136766122
4457+136925049+136941754+136594333+136102007+135892433+136112907+136514838
4447+136718877+136500364+135897716+135036278+133945580+132847457+132422169
4437+133212997+134810619+136095707+136251574+135319380+133984265+133069146
4427+133075123+133956489+135153486+135842362+135532770+134545321+133555549
4417+132780599+132031211+131347520+131122689+131608534+132448073+132873424
4407+132560628+131999429+131740242+131785921+131977215+132285564+132474338
4397+132152235+131348987+130514065+129975898+129851957+130272447+131174939
4387+131993092+132035072+131239447+130192916+129431620+129078699+128973705
4377+128886776+128830305+129090185+129567028+129568820+128850664+128165695
4367+128179611+128595771+128803221+128650073+128255982+127715863+127284554
4357+127415731+128315396+129557056+130312096+130052900+129008763+127868768
4347+127061199+126450424+125808145+125294119+125160394+125275919+125380446
4337+125550948+125978647+126501116+126713886+126429884+125818685+125156659
4327+124621976+124338325+124362258+124513472+124544092+124568700+124907976
4317+125511884+126017828+126243333+126248347+126234324+126601169+127578637
4307+128633736+128839756+127972169+126790338+126226079+126585517+127507593
4297+128375657+128710468+128441453+127925572+127619275+127721155+128163301
4287+128752052+129155287+129011059+128325513+127543111+127017878+126691582
4277+126431054+126321118+126452296+126706361+126878429+126853704+126713787
4267+126787116+127392203+128362597+129027071+128910268+128345513+128147496
4257+128716571+129680078+130358045+130327361+129616587+128686490+128191078
4247+128429274+129054937+129604490+130098192+130734980+131273488+131310833
4237+130976759+130748103+130743189+130737293+130662722+130663028+130838021
4227+131174966+131518607+131538850+131004968+130139893+129534311+129654444
4217+130426082+131360004+131970518+131929169+131099746+129850445+129094379
4207+129518298+130880739+132327976+133180099+133248955+132699709+131873850
4197+131201338+131047199+131368987+131655311+131612413+131672430+132264619
4187+132977653+133104123+132652499+132203450+132127420+132456255+133155086
4177+134121968+135177410+136265795+137445672+138594542+139343660+139378511
4167+138761885+138019086+137776829+138068941+138203062+137635796+136707158
4157+136175490+136324210+136837552+137339625+137737415+138030121+138066583
4147+137748729+137270013+136832287+136364434+135779302+135196600+134740233
4137+134448589+134419301+134718100+135180398+135568972+135883567+136317819
4127+136917857+137413360+137423071+136807309+135871623+135209012+135160030
4117+135429855+135538171+135593247+136113357+137061933+137664869+137371722
4107+136555332+136031171+136228522+137036829+138099301+138939345+139097497
4097+138536523+137748441+137208538+136947533+136783898+136668193+136705870
4087+137031141+137678478+138512158+139285290+139749191+139792746+139603585
4077+139548212+139732386+139885265+139795572+139574323+139365928+139093276
4067+138656666+138161379+137795470+137608740+137480316+137221067+136769065
4057+136369907+136350816+136625448+136758534+136634575+136636843+137057765
4047+137744976+138318164+138421268+137939555+137206872+136766833+136838605
4037+137193947+137529074+137817891+138276391+138988768+139664097+139943131
4027+139830234+139594953+139428169+139404523+139569211+139868208+140084128
4017+139942087+139336459+138501897+137853831+137581665+137564384+137728639
4007+138194421+138964151+139779955+140436527+140969311+141351925+141313339
3997+140770204+140145045+139862241+139844491+139886831+140095433+140588721
3987+141198642+141711858+142010558+141904322+141289217+140563924+140462269
3977+141263205+142413722+143131589+143171714+142763691+142105526+141347794
3967+140887647+141224924+142415774+143801284+144521770+144442761+144232277
3957+144357595+144583839+144726646+145280987+146786972+148784760+149917843
3947+149503374+148565645+148488247+149163001+149325618+148402335+147063710
3937+146327293+147017320+149403376+152562572+154539434+154146729+152463888
3927+151601396+152361260+153672712+154321003+154608938+155476200+156755500
3917+157115118+155528621+152531663+149797754+148619641+149178050+151339761
3907+155591392+162257342+169771688+174927287+175760256+172726773+167253555
3897+161504426+158262323+159111223+162822015+165656526+165186811+163802633
3887+164720678+167211611+168468391+168625329+169263449+168766677+165337502
3878+161953241+162396674+166352827+171188016+175394104+177800879+176904706
3868+174247187+173235606+174079322+173787030+170945355+167800749+167201782
3858+170748436+179147019+190671505+197088799+191209141+179727228+170809209
3848+166852857+167638212+171726083+176951024+181930712+186673894+190564846
3838+191315476+188180951+183703255+180166503+177743364+176079298+175370846
3828+175491978+176107974+178462635+184464542+192268498+195768167+193517969
3818+190336298+187690498+183251002+177541242+173965408+174719188+179660136
3808+185964056+190067066+192555515+196288611+200031878+199836344+196614421
3798+193995065+192014495+189444770+187375920+187514262+189884998+193704412
3788+198621436+204120217+209106277+213567807+219180700+226562932+233559084
3778+238409520+242935532+250232653+261859928+277395977+293977089+307327746
3768+315950143+321590795+325598019+329028616+333709927+340065745+345888645
3758+349552327+353471955+362007189+377555802+398036021+416220246+427241066
3748+435406439+445892901+457611966+464849214+467650512+472796264+484275800
3738+501351020+519705684+533490395+539756565+541160940+542980252+548239522
3728+556311539+564467479+570047934+572076784+570619340+565927264+559383221
3718+552997592+548443588+547683885+551890243+557862267+559129039+554811899
3708+549972930+548117435+549350904+551396279+551607474+550482879+551081972
3698+554356567+558679143+563048343+568208496+574755347+581075990+583689748
3688+581208482+576351331+572449128+571129901+572722681+577047164+584093307
3678+592856333+598187249+594932599+588488969+586555600+587469468+584390081
3668+576302151+568211484+563103608+560638939+559331232+558503268+558722527
3658+560125390+561722706+563874003+568961322+577925245+587448874+590316922
3648+583147000+571572739+562239352+557288521+555246313+554017562+553558269
3638+555266511+559442338+565052639+571785410+580555384+590616432+596441384
3628+592814857+584971784+580874228+582638743+588814978+596373626+601620475
3618+603213003+603307835+603367600+603233848+604394014+608904418+614661972
3608+616769093+614819522+613027285+613707672+615348048+615932236+616510159
3598+619885599+626148637+631779244+634690027+637792708+644131857+650918813
3588+651545196+645292167+639330907+638469495+640697875+641632805+639589626
3578+636093935+633279063+632247141+633132243+636102143+641453653+648051593
3568+652252946+650915068+646133200+642525180+642267541+644399360+645686545
3558+643189510+637599731+632477921+630084575+629920256+631046867+633363599
3548+636153844+637774058+637441101+635628126+632622006+628395522+623768324
3538+620544025+620056830+621574219+622774349+622406972+621643057+622125356
3528+623771852+625327621+626076271+626040268+625172159+623293010+620589317
3518+617724977+615605831+614875903+615194027+615400469+614738299+613573597
3508+612988185+613618457+614752916+614583053+612075145+608580894+606239176
3498+605432994+605063961+604420153+603809143+603948187+604898635+605592704
3488+604976834+603464341+602142197+601059473+599938119+599688797+601321288
3478+603782897+604455364+602282105+598985367+596362213+594414910+593025080
3468+593073396+594652747+596054782+595451945+592667352+589041222+586364243
3458+585967884+587882496+590428064+591216065+589390416+586471280+584312350
3448+583249753+582715826+582385029+581879221+580518589+578204774+575799763
3438+574420266+574839234+577157514+580404999+582770227+582911395+581031058
3428+578414564+576230433+574889855+574208711+573806268+573381862+572950545
3418+572725561+572535716+571685789+569747523+567288003+565531697+565214041
3408+565741919+565731118+564573761+562792900+560853662+558903623+557670658
3398+558055640+559659581+560763546+559937129+557428609+554978126+554256947
3388+555386978+557054392+557998215+557937730+557163086+556020201+555042824
3378+554884086+555566238+556179875+555908556+555271840+555559469+556849462
3368+557657157+557042403+555820060+554975426+554279197+553255519+552308419
3358+552068854+552447860+552936171+553393375+554022062+554900863+555897215
3348+556769283+557170034+556615838+554832385+552339238+550394131+549888539
3338+550349163+550463185+549610955+548370214+547416994+546547697+545140694
3328+543228422+541543366+540566348+540247540+540451858+540926776+541293072
3318+541649683+542562507+544062543+545429259+546154579+546317745+546052366
3308+545332483+544191470+543030837+542601535+543173697+543921231+543954174
3298+543575672+543603719+544007170+543948089+542940181+541577353+541099159
3288+542229550+544470351+546563215+547512438+547198275+546252616+545382995
3278+544824514+544490585+544455662+545005466+546231302+547691446+548472607
3268+547739186+545494641+542866878+541479676+542221125+544423511+546372182
3258+546727029+545447909+543598174+542371835+542009823+541815298+541423871
3248+541344412+541961435+542887832+543410706+542794260+540483901+536994762
3238+534063061+533121686+534091647+535777639+536867635+536563480+534896102
3228+532730440+531233068+531100505+532055633+533088959+533434734+533193585
3218+532793265+532253254+531428962+530398659+529066902+527104262+524890571
3208+523729037+524307356+525560950+525800911+524569891+522706439+521001726
3198+519611536+518487661+517700812+517289800+516972108+516282287+514999062
3188+513289164+511692172+510958283+511356983+512044103+511636547+509658461
3178+507104253+505427442+505180460+505701498+505988551+505717699+505195653
3168+504438039+502854188+500203887+497433264+495804516+495405673+495272858
3158+494773530+493995538+493014667+491797040+490638783+489833140+489091511
3148+487917520+486336009+484865316+483923077+483424937+482943755+482282017
3138+481722168+481542368+481557669+481411316+481098017+480835338+480521246
3128+479724352+478234865+476397660+474899136+474330610+474756564+475436195
3118+475292147+473952613+472009126+470260129+469163256+468805097+468882972
3108+468853737+468453454+467988365+467910814+468169749+468139543+467317590
3098+465921208+464512332+463327972+462325860+461467076+460579779+459398263
3088+458054445+457148641+457159226+457979810+458999060+459540943+459309155
3078+458450011+457305471+456258067+455570983+455174948+454893547+454825861
3068+454956949+454634720+453318085+451601634+450513870+450075280+449481480
3058+448445849+447421883+446651631+445917707+445208372+444830663+444810537
3048+444718693+444183866+443273418+442284376+441423324+440794889+440527061
3038+440636007+440742612+440337829+439499999+438807262+438345198+437552984
3028+436302270+435242121+434748230+434347010+433473502+432159314+430842751
3018+429978423+429802727+430090393+430195738+429589265+428291999+426677473
3008+425068419+423706312+422822614+422453042+422354033+422234179+421948529
2998+421514007+421073473+420701740+420222250+419497434+418747128+418173310
2988+417518016+416425176+415035958+413862723+413202605+412904139+412668426
2978+412424649+412235488+411936518+411248786+410220355+409166651+408209543
2968+407216215+406169351+405311216+404829854+404574195+404308312+404104822
2958+404073499+403858777+402991208+401613691+400274842+399219661+398396125
2948+397840704+397548250+397185734+396407670+395406602+394758257+394683839
2938+394782055+394550375+393926908+393240940+392767066+392426044+391971324
2928+391341449+390591899+389647392+388499827+387446231+386726276+386182736
2918+385610394+385152902+385071858+385323304+385570970+385509153+385012165
2908+384071619+382897231+382026963+381855912+382004677+381631360+380435299
2898+378934723+377720913+376831023+375965002+375047390+374308389+373880203
2888+373606003+373274126+372821926+372330303+371950578+371705000+371368911
2878+370799521+370226999+369906174+369694944+369277379+368604264+367917792
2868+367497959+367392614+367257602+366629671+365502592+364360499+363551760
2858+363004548+362579963+362246106+361860440+361251878+360579483+360202962
2848+360158534+360085196+359680340+358973670+358179368+357483319+356971354
2838+356639801+356411973+356141085+355660515+354910029+353999977+353130141
2828+352468367+352052422+351698295+351069896+350030413+348905170+348173369
2818+347903886+347752168+347498598+347229871+346929136+346329756+345352306
2808+344290248+343406119+342719322+342265359+342141796+342220211+342167142
2798+341781620+341111961+340329288+339603105+338974345+338328809+337611266
2788+336939735+336389318+335867453+335296010+334713839+334165799+333641953
2778+333108566+332519158+331846547+331109815+330304208+329378891+328361477
2768+327412470+326687006+326190775+325801940+325411090+325000726+324577653
2758+324088694+323485605+322836072+322249220+321696140+321024573+320180119
2748+319316079+318632091+318174130+317832749+317447011+316874416+316081555
2738+315230620+314563841+314145629+313799566+313306719+312583883+311710519
2728+310879782+310269132+309901540+309685233+309529231+309320089+308923946
2718+308350416+307731413+307036480+306094457+304999241+304166020+303859597
2708+303913890+303963142+303739671+303173809+302433332+301831359+301505458
2698+301234589+300726890+299988447+299240788+298618041+298131566+297778447
2688+297509215+297208805+296814894+296365233+295916165+295505135+295161359
2678+294871354+294548801+294081624+293438050+292744467+292200279+291886422
2668+291743903+291724191+291793047+291803956+291575030+291102831+290539831
2658+289983024+289413508+288798682+288161840+287599543+287241816+287083510
2648+286897337+286480529+285907394+285374620+284972716+284747589+284698390
2638+284587698+284116417+283375994+282758234+282410587+282134947+281779704
2628+281410167+281110207+280844378+280533940+280159472+279758234+279380093
2618+279070196+278833421+278588186+278256578+277911452+277696729+277618188
2608+277558405+277427120+277171533+276780575+276402974+276253398+276275918
2598+276126451+275624531+274992730+274526435+274271694+274151480+274157564
2588+274266672+274362746+274364727+274281127+274084136+273682395+273085570
2578+272499331+272169182+272126338+272135897+271943676+271548109+271155801
2568+270904067+270750297+270639533+270623116+270732151+270876326+270983076
2558+271095909+271232829+271312612+271297581+271239454+271129878+270859927
2548+270385747+269851748+269470781+269269541+269046987+268661718+268226205
2538+267891160+267619732+267332481+267096912+267019451+267085679+267200025
2528+267298386+267395090+267537951+267692098+267704034+267468627+267077164
2518+266715441+266494597+266424751+266430368+266371052+266191487+266044774
2508+266119336+266374527+266562751+266461222+266027456+265427140+264932024
2498+264688769+264608788+264551075+264498222+264456098+264325137+264016140
2488+263608872+263276437+263084378+262938475+262719378+262419921+262140195
2478+261969918+261890477+261803079+261641407+261399628+261064114+260623310
2468+260160867+259826506+259684581+259658641+259621774+259504781+259328330
2458+259133427+258888299+258533542+258132449+257875008+257875098+258006924
2448+258006996+257751787+257377985+257086071+256914930+256793833+256707084
2438+256674969+256653421+256575222+256444729+256317727+256235694+256217531
2428+256243147+256216072+256052762+255850028+255818382+255998991+256206784
2418+256296576+256294739+256249429+256166334+256106209+256139782+256207288
2408+256201581+256166712+256226495+256340301+256328456+256155173+256006354
2398+256043635+256227882+256463432+256838765+257650564+259223975+261796275
2388+265630809+271177925+279012393+289585117+303057087+319349274+338301914
2378+359726676+383214347+407852931+432304731+455368285+476333142+494690759
2368+509994803+522270225+531951295+538855802+541577317+538772635+530754298
2358+518584617+502456965+482147833+458623079+435515313+418227963+410679504
2348+413962704+426802152+445123801+462467676+474133241+480032179+482380845
2338+482787105+481501432+478681917+475475871+472892068+470379947+466602388
2328+461127135+454451644+446917443+438572738+429781197+421099179+412552028
2318+403697050+394441033+385234125+376414646+367820223+359148069+350375647
2308+341707057+333352056+325463259+318140720+311410468+305237582+299585644
2298+294468586+289936040+285956683+282341425+278890324+275578465+272483003
2288+269619870+266997849+264743854+263022002+261849199+261044061+260339317
2278+259564421+258749813+258016933+257383655+256780728+256238628+255893520
2268+255778418+255744791+255627709+255377433+255007338+254527380+253977072
2258+253469931+253150565+253072780+253118504+253084409+252877607+252578493
2248+252285679+251985071+251646479+251349453+251177610+251067602+250920871
2238+250791188+250808037+250993796+251281029+251614310+251943937+252213385
2228+252409044+252563048+252716169+252918831+253215965+253595420+254001266
2218+254403421+254815063+255278856+255870280+256647966+257554346+258424326
2208+259135443+259722690+260332674+261085176+261986173+262965081+263955168
2198+264902015+265771726+266625847+267583765+268647622+269686980+270607653
2188+271409461+272136437+272870037+273655212+274401864+274983423+275379602
2178+275632200+275795672+275945283+276074733+276045822+275764656+275304283
2168+274814640+274425446+274185719+273985163+273593899+272842891+271764200
2158+270570281+269486586+268597380+267887758+267361859+267033475+266878859
2148+266833171+266817096+266922063+267585979+269278740+271985170+275306047
2138+279012231+283172486+287823789+292811703+297937275+303153143+308628612
2128+314579071+321013700+327740855+334599889+341564737+348640510+355761468
2118+362800878+369674566+376481180+383570347+391485138+400889020+412518545
2108+427028792+444796604+465885889+489943706+515804957+541526120+565377351
2098+586605176+605014997+620442496+632814839+642215264+648785049+652378309
2088+652169275+647319001+637951986+624489179+606743221+584653192+559112117
2078+531713747+504182524+477800955+453185881+430711123+410714895+393245404
2068+378216892+365687576+355483884+346953510+339506688+332969882+327316341
2058+322528353+318631479+315565917+313217935+311590664+310733681+310716183
2048+311807979+314415940+318873240+325508083+334761111+347169601+363413616
2038+384151006+409446395+438461992+469734339+501441136+531593172+558599432
2028+581749861+601176448+617565339+631583602+643372910+652783633+659755429
2018+664230046+666078952+665171817+661457874+655141984+646478543+635294880
2008+621298219+604799770+586595131+567330199+547309524+526685581+505658402
1998+484707514+464719998+446558203+430288806+415156821+400580365+386824816
1988+374475948+363757086+354506182+346399890+339125955+332526683+326568088
1978+321203869+316385421+312076203+308178717+304669524+301783781+299686957
1968+297962567+295875122+293252580+290640730+288491125+286714945+285127620
1958+283826430+282895532+282116567+281228927+280274052+279522126+279155577
1948+279184164+279678631+280726827+281810036+281732558+279983884+277605209
1938+275891567+275060380+274610160+274235511+274009465+274026927+274204224
1928+274538298+275411500+277082731+278903987+279980644+280551672+281314615
1918+281732072+280758798+278923249+277844666+278232006+279451847+280429243
1908+280574786+280114900+279672205+279591432+279803760+280186132+280811093
1898+281838317+283144116+284219692+284894535+285793354+287207271+288094442
1888+287407736+285759493+284430365+283803460+283612049+283686575+283939984
1878+284225003+284468600+284815418+285828277+288366050+292511454+296362389
1868+297020292+294027890+290001782+287318070+286322295+286182909+286165411
1858+286064566+285979149+285995152+286112612+286468900+287393515+289183934
1848+292120010+296241436+300143657+300933926+297865755+293920456+291786009
1838+291573014+292049282+292644288+294261712+297898464+302435924+304930871
1828+304453829+303065151+301908874+300173683+297827555+296247359+296132454
1818+296773113+297306590+297896465+299341056+301673755+303640698+304048650
1808+303257120+302664436+303423275+305920346+309481959+312394615+313271112
1798+312742045+312996732+315751802+320534822+323973052+322732491+318389105
1788+315181548+314873361+316384989+318291645+320260946+322037630+322984225
1778+323523120+325523348+330508670+337622715+342981173+343202485+339695561
1768+335624251+332648770+331968166+334212351+337716539+339664706+339912588
1758+340233880+340878121+341711666+344409743+350445349+357960613+362518613
1748+362314548+359887682+358257063+358662135+360786105+363198533+364473909
1738+365631519+369734295+377360269+383081496+381323965+375266361+369725258
1728+365992919+364471533+365246141+367435385+370862058+377281278+387945055
1718+399720861+405186609+401727893+394824179+389563289+387787289+389906507
1708+395451426+402367021+408016890+412818920+419923928+429641829+436895854
1698+438443198+436247941+431052541+424404521+420679382+421954326+426746059
1688+433629863+443672370+456442763+464239392+461148557+453928878+449934003
1678+451131001+456397651+462587423+467293972+471977624+478276125+483192717
1668+482991999+480836562+482382034+488477909+495069872+498497553+500431247
1658+505092864+515334936+531790073+549093517+554126651+548746483+547154567
1648+551833214+555286061+550851119+542853197+538099699+538523385+543955002
1638+553658610+563951230+567089842+561163109+554436746+552958565+556671571
1628+562621561+568616052+574708651+580371012+583593655+585238604+589350273
1618+597448068+605119910+606921364+605100468+604849166+607445858+611106588
1608+613732515+614803393+615311685+616214645+617460354+618703687+620389283
1598+623338734+627474490+631655825+634915119+637386304+639658968+641802452
1588+643565815+645024591+646461405+647968570+649716307+652564301+657902922
1578+666109123+674164615+677226323+676821792+679141908+686069348+693722684
1568+697852607+699957064+703818403+711239447+723842066+744769768+773503964
1558+795375381+800518001+801153168+805327303+812209020+819110682+824220035
1548+827666545+831893244+839127360+849080650+859235630+863401340+853933516
1538+837195286+826160101+822771483+821406747+816879926+810655627+807513199
1528+809207940+814217060+820404203+826676818+831321010+832032289+830169917
1518+828808422+827070261+822751754+817618279+816028955+820838041+831974612
1508+844715843+847095508+833495961+817461737+809289019+809362610+814584220
1498+819898287+820204530+815757707+812241782+813706535+819160078+823640528
1488+822888350+817933594+812494453+808949437+807684214+807980952+809577548
1478+813299915+819654257+827353462+833288655+833933328+829043810+823021129
1468+820075062+820888230+822845866+823200497+823504148+827740784+837017503
1458+846605793+847759550+840048105+831894397+827400914+826328668+827420572
1448+828567632+827671154+824850666+822149565+821412004+823708286+829388216
1438+836797307+841065842+838742126+833624133+830693403+829975068+828631214
1428+825865883+823746953+823483410+824335245+825843345+828024489+828896629
1418+825520757+819145821+813782286+810975479+809728618+808706632+807708120
1408+807511039+808241903+808609567+807941781+807903401+810165264+813786030
1398+816396835+817028259+816058766+813813969+811246079+810008002+810403965
1388+810390356+807893320+804344705+803335608+806241423+811601142+817629008
1378+823782884+829963475+835314697+838587888+839838278+840702282+842229680
1368+843836790+845053192+846766007+849427001+851381756+850783744+848325088
1358+846113197+845171067+845118286+845179996+844931790+844489095+844301014
1348+844522938+844739245+844823060+845666470+848174667+851679142+854100283
1338+854042894+852261674+850653988+850529705+851969544+854197348+856491109
1328+858808129+861353696+863993952+866768860+870270887+874437605+877797420
1318+879346492+880205240+881846624+884102366+886121928+887905956+889986363
1308+892626259+895735636+898733403+900693487+901410094+901804761+902685182
1298+903742883+904187594+903785367+902836396+901450202+899435321+896930653
1288+894492375+892396847+890354747+888042984+885579288+883416002+881886012
1278+880743703+879339436+877561168+876236899+876244172+877706044+880235771
1268+883209128+885661087+886845591+887177828+887830854+889286750+891029159
1258+892639292+894292197+895833493+896310895+895292797+893933246+893620522
1248+894054720+893687128+891736765+888792858+885813308+883405417+881864626
1238+881370014+881976163+883372510+884721045+885280030+885354196+885993252
1228+887614475+889499888+890664015+890709595+889977290+889134960+888497416
1218+887990348+887905812+888906412+890992723+893432730+895848758+898461003
1208+901258881+903795304+905846404+907589605+909282978+911221388+913661755
1198+916431190+918843978+920318091+921189944+922788556+926343364+931495777
1188+936142057+938476142+938896083+939116710+940119182+941929493+944594015
1178+948016692+951186771+952881655+953093786+952816850+952892600+953805064
1168+955801008+958445944+960694918+962215907+964038459+967167494+971036538
1158+974020120+975194831+975097119+975078181+976168573+978180501+979985628
1148+980920774+981414522+981959753+982259876+982145458+982825773+985895907
1138+991010948+996018124+999648971+1002263233+1003890144+1004184938+1004217988
1128+1005565587+1007884839+1009479779+1009725176+1009383578+1009252311
1120+1009739217+1011059885+1013144973+1015647192+1018157765+1020371095
1111+1022093559+1023335812+1024570792+1026311905+1028063531+1028580752
1103+1027729998+1026814653+1026781242+1027573096+1029051098+1031142809
1094+1033130184+1033812732+1032807020+1031320017+1030952497+1032099629
1085+1034347379+1037440483+1040622370+1041987538+1040431265+1038068234
1077+1037838389+1040258234+1044106324+1048083161+1051195203+1052615095
1068+1052483252+1052191770+1053123748+1055779629+1059495156+1062443023
1060+1063333381+1063147172+1063317179+1063488338+1063070342+1062672723
1051+1062204394+1060623927+1058568722+1057677428+1057825401+1057730137
1043+1057015042+1056137069+1055778981+1057395163+1062274240+1069128882
1034+1073741823+1072389688+1065682299+1057565890+1052084049+1051576548
1025+1055685805+1061821248+1067217546+1070240948+1070159796+1067497795
1017+1064575994+1063462416+1063440238+1062332349+1059585236+1056501421
1008+1054210684+1052310365+1049698983+1046424712+1044037990+1043776247
1000+1044992578+1045925060+1045367587+1043273211+1040751549+1039533490
991+1040312743+1041533682+1040700569+1037277100+1033418713+1031379566
983+1031144249+1030910661+1029287134+1026850224+1025556919+1026605907
974+1028976283+1030176340+1028299496+1023207064+1016751121+1012029811
965+1010462809+1010159446+1008441231+1004838611+1000742603+997465523+995167586
955+992828676+989391526+985460197+982915925+982480863+982931047+982763488
945+981510722+979177213+975767786+972263166+970559352+970931769+971007087
935+969245093+967761042+969172150+972203040+973356438+972006823+970559568
925+970369615+970383009+969324012+967370048+965463032+963938443+962561970
915+961617463+961757587+962352863+961303227+957839795+954155375+952517807
905+952385028+951937292+950862166+949864590+948938805+947948286+947876064
895+949705744+952607671+954673029+954967391+953860149+952133150+950665445
885+949888568+949117741+947468004+945490854+944672286+945408551+946346649
875+945775351+943365156+940538547+939292046+940447675+942730348+943678311
865+941791169+937959065+934807564+934657143+937865528+942721275+946910819
855+949171818+949382220+947916027+946002243+945447434+946476621+947077802
845+945710257+943162026+940774008+938674375+936653446+935366189+935892771
835+938212383+940392662+940671327+940204654+941163994+942784352+942487902
825+940592984+940441051+943867760+948981145+952298764+952389636+951320270
815+951875511+953888664+955138982+954823810+954265185+954671589+955720145
805+956515527+956577092+955928387+955021971+954552778+954954501+956203235
795+958120764+960258919+961432190+960391555+957376866+954301548+952824698
785+953087953+954411070+956247087+957997705+958398780+956855828+955105139
776+955467330+957777941+959746450+959980543+959102786+958066399+956654643
766+954501150+952699335+952870710+955081449+957494020+958023339+956069519
756+952929540+950816082+950708649+951213125+950618497+949265354+949127822
746+952024564+958177721+965246653+969197208+967945739+963575315+959848123
736+958944084+960924906+964370985+966967605+966982510+964420381+960571211
726+957713784+958193634+961977422+965954332+966894302+964338006+959613095
716+954436632+951022740+950747892+952681046+955020675+957079192+958731233
706+959766108+960312996+960231053+958753771+955933787+953255080+951241999
696+947915883+942003876+935667823+932217640+932795275+935220160+935589625
686+932278846+927708316+924666481+923288424+922146404+920303762+918463280
676+918646968+922462440+928198679+930356709+923821991+910829314+902418255
666+902282955+903473580+901774734+899517336+901294668+908157735+915649489
656+917575514+913124803+908023011+906656979+906367298+902173866+894337057
646+886361133+879530973+874847681+875463839+882357293+890699514+894599664
636+893892130+891753254+888646901+883238218+877072677+874019681+874547919
626+874205745+869726232+862811608+857254664+855868326+859215972+864353624
616+866644577+865263207+863897968+865701510+869894078+872586035+870940042
606+867225452+866890838+870646256+871480666+863582724
##END=
