##TITLE=<SNM>
##JCAMP-DX=4.24
##DATA TYPE=INFRARED SPECTRUM
##DATE=3/5/2025
##SAMPLING PROCEDURE=Instrument type and / or accessory
##ORIGIN=Admin
##XUNITS=1/CM
##YUNITS=ABSORBANCE
##RESOLUTION=4
##FIRSTX=4497.3318
##LASTX=599.83466
##DELTAX=-1.4281778
##MAXY=1.7959569
##MINY=0.22585867
##XFACTOR=1
##YFACTOR=1.6726152e-09
##NPOINTS=2730
##FIRSTY=0.24773628
##XYDATA=(X++(Y..Y))
4497+148113135+147911411+147473164+147110786+146799268+146253304+145456279
4487+144753812+144435203+144471676+144661747+144856041+145073534+145494248
4477+146197588+146902175+147216597+147136230+146990890+146988387+147080620
4467+147147277+147184650+147363915+147814937+148344776+148571881+148249842
4457+147339700+146018252+144688278+143765743+143343898+143150976+142948958
4447+142919273+143369574+143988769+143957427+143090894+142177144+141877315
4437+142042949+142287418+142497437+142667169+142766005+142798620+142751180
4427+142594873+142446852+142518337+142789907+142968602+142924538+142895905
4417+143026884+143065762+142815520+142508822+142511798+142865526+143128009
4407+142687517+141517957+140444996+140231289+140781467+141565771+142258874
4397+142711081+142808037+142494114+141759548+140825682+140242942+140338899
4387+140769965+140973569+140728236+140086100+139172894+138145145+137084817
4377+136081327+135476769+135652257+136506798+137477263+138103754+138408225
4367+138758861+139408026+140147109+140525389+140355853+139781755+139007598
4357+138285398+137983422+138328268+139094424+139618642+139297351+138250716
4347+137228571+136703204+136506718+136442084+136553713+136692986+136590275
4337+136374145+136327177+136283639+135924335+135468217+135441053+135881946
4327+136337226+136606275+136933980+137385831+137674096+137735612+137799809
4317+137816754+137556588+137190503+137038900+136959816+136675328+136429576
4307+136666134+137268714+137665935+137573755+137229774+136905106+136531957
4297+135950072+135308783+135033257+135421784+136312549+137151919+137480051
4287+137358926+137193283+137163233+137081743+136802342+136453363+136210096
4277+136128464+136236796+136536037+136928760+137306158+137589265+137699789
4267+137733429+138018844+138616711+138993638+138711404+138129679+137853539
4257+137911393+138045071+138300427+138776082+139320006+139912742+140700752
4247+141369383+141306326+140632082+140183163+140327505+140624162+140669090
4237+140521960+140338766+140144472+139899824+139574712+139319347+139445675
4227+139958267+140372165+140273517+139827359+139580146+139907379+140668823
4217+141362683+141678424+141760430+141786854+141631233+141232248+140846707
4207+140695585+140815267+141252890+141863230+142099307+141648784+141021116
4197+140914495+141313105+141708848+141866918+141936417+142095672+142386058
4187+142707651+142920886+143121185+143600653+144272482+144498616+143891564
4177+142966107+142602161+143146887+144246316+145236728+145651036+145535363
4167+145214633+144854794+144528719+144400271+144385945+144076228+143465665
4157+143174023+143490245+143864606+143747115+143287754+142904921+142751180
4147+142792134+142938463+143022242+142955639+142830977+142726235+142644247
4137+142677165+142946864+143405432+143919903+144466945+145081249+145692534
4127+146060079+145880048+145115264+144216275+143752255+143794822+143935039
4117+143915244+143910531+144120549+144436797+144644838+144677952+144558965
4107+144335289+144158644+144265898+144812566+145700400+146515778+146789843
4097+146433424+145751074+145031137+144380333+143868427+143564384+143562576
4087+144056655+145075860+146131849+146527449+146072463+145258038+144791594
4077+145058113+145821080+146380987+146259639+145720712+145346164+145194793
4067+144805626+144011861+143260208+142989110+143080070+143114770+142982215
4057+143038430+143569436+144237176+144367860+143803713+143117719+142948584
4047+143437272+144239038+144822437+144884594+144613470+144392182+144277123
4037+144029001+143621580+143403178+143689964+144393073+145082817+145345924
4027+145145304+144868184+144922992+145315856+145741470+146001521+146166389
4017+146387918+146680263+146902175+146917953+146699970+146258142+145645174
4007+145085953+144869235+145069695+145563720+146223264+146891057+147355977
3997+147573906+147721242+147902404+148048198+148147657+148292053+148510615
3987+148805357+149212146+149587469+149577366+149091938+148591080+148655099
3977+149397469+150386776+151060965+151215963+151089349+150975066+150922165
3967+150890716+150970344+151252275+151608132+151787201+151734567+151664722
3957+151749445+151916808+152141134+152781577+154261559+156232903+157450767
3947+157162154+156255460+156009236+156303746+156088489+155063770+153912597
3937+153491117+154514839+157101538+160065084+161454747+160557710+158838524
3927+158302690+159433924+160897033+161383066+161419183+162360016+164177379
3917+165183015+163932972+160960054+158121714+156676245+156662240+158086845
3907+161779388+168180397+175687570+181363876+183533318+182041558+177135231
3897+170627939+166062324+165916093+169313769+172183326+171481554+169655247
3887+170531901+173699656+176054991+177224195+178671981+178689496+175197670
3878+171222038+170866787+174115221+178664373+183193729+186317545+186065334
3868+183914655+183505059+184758399+183993498+179848312+175543692+174709658
3858+179048204+188938045+201956246+208601804+201223774+187982458+177854411
3848+173185898+173633053+177740876+183501193+189555432+195377041+199598149
3838+199963717+196687843+192663319+189351240+186198326+183255307+181662948
3828+181611223+182463092+185299258+192062770+200580569+204261602+202029780
3818+199190282+196731016+191664079+184871078+180561398+181173404+186377199
3808+193114947+197732644+200901521+205500509+209877381+209530130+205697218
3798+202747071+200811969+198339696+196260840+196334534+198562810+202132019
3788+206989507+213164996+219740085+226164186+233515294+242511964+251523548
3778+258830717+265670311+274663062+287307909+303132343+318784852+329631830
3768+334939575+337380364+338248518+338383150+340009665+344095501+348569443
3758+351505175+354750937+362077046+375562733+393289769+408564435+417277660
3748+424459267+434961149+446490762+452628816+453937035+457585978+467809154
3738+484914563+505610508+522871217+531245262+532830904+533859454+538496251
3728+547312855+558057060+567469847+573952782+577323625+577071859+573647599
3718+569366730+566900212+568328665+573492263+577370272+573762417+564307651
3708+555366144+550333542+549402099+550951321+552293536+551621983+549492079
3698+547835522+548753923+553715076+562756362+574144181+583967027+587196183
3688+583302352+577356481+573138117+571358867+572036692+575673340+582973507
3678+593205236+601307916+600893545+595495429+593332598+594160876+590351644
3668+579111142+566491685+557676863+553531481+552781031+554244407+557519960
3658+561566988+564197786+565356121+568621946+577127237+588915137+594937910
3648+588202924+574459200+562697884+556499107+555002234+555548919+556376627
3638+557701488+560140673+563413839+567370994+572841272+579468995+582913888
3628+579163527+572458760+568740506+569677936+575132641+583837777+591838860
3618+595379756+595963610+597042264+598975352+600424652+601362439+601783580
3608+600306413+597063360+594859690+595836925+599578663+603906250+606951312
3598+608944768+611341333+614248628+616389116+618186433+622075845+628291478
3588+632009411+628889871+622273124+617713264+616509921+616709124+616431665
3578+615755087+615864702+617087217+618725315+620912913+625024833+630998286
3568+635207278+633293148+626038096+618240457+612789279+609618138+607910124
3558+607562392+608700735+610515870+611450592+611002082+610682003+612087543
3548+614373638+614688941+611481310+606260979+601555726+598965802+598953044
3538+600639749+602105869+602095748+601267577+600912789+600988978+600439263
3528+598924037+597161322+595891234+595288030+594939656+594072571+592137985
3518+589247047+586236766+584463716+584874310+586654985+587569929+586456352
3508+584618553+584011287+584809596+585194353+583477359+580362878+578215050
3498+578031883+578325342+577355733+575241651+573472308+573270218+574326814
3488+575095295+574733594+574074264+573808636+572911011+570167248+566214369
3478+562846484+561244308+561362511+562135020+562247379+561317396+560108423
3468+559549835+559832746+560406052+560564630+559801173+557862917+555090574
3458+552784452+552590594+554753853+557297736+557860030+556030285+553261292
3448+551172511+550525369+551041693+551448366+550191107+546896524+542938514
3438+539935359+538086834+536555144+534993699+534018567+534369542+535993563
3428+537858695+538585305+537662485+535980877+534752553+534156085+533489806
3418+532302285+530717427+529179502+528447725+529028585+530233033+530613158
3408+529563190+527699092+525781113+524227971+523309321+522960911+522681920
3398+522135591+521617592+521542080+521680881+521327732+520151187+518495129
3388+516945266+516054590+516250550+517439496+518704096+518837409+517544193
3378+515960476+515477079+516018776+516108292+514802034+512847029+511757756
3368+512353868+514081803+515477614+515639043+514971481+513996135+512523992
3358+510816655+510011968+510379727+510608223+509703720+508306947+507321266
3348+506577551+505700809+505190934+505737264+507127444+508549875+509570835
3338+510250762+510535989+510077145+508653325+506532294+504438204+503232865
3328+503457583+504905030+506522744+506986113+505813346+504003806+503093672
3318+503376619+503600874+502761620+501544664+501352481+502477925+503881647
3308+504372634+503589613+502177837+501208514+501135710+501378923+501166642
3298+500463694+499760425+499380229+499326277+499304432+498721861+497410935
3288+496328254+496574638+497887774+498989128+499202158+499006305+499162567
3278+500079506+501792866+503768326+505018672+504853073+503401849+501400625
3268+499600421+498316186+497384315+496546557+495791439+495193830+494710611
3258+494400546+494484610+494921859+495328568+495507602+495536680+495321833
3248+494773187+494164246+493574620+492417995+490295182+487945834+486603655
3238+486644778+487404173+488131424+488533323+488464688+487918003+487370889
3228+487214841+486794519+485048695+482208752+479837666+479041745+479390689
3218+479700897+479420195+478960674+478856262+479014199+478829963+477817626
3208+476110681+474335672+472936048+471825500+470827098+469985207+469284825
3198+468663375+468330254+468342441+468090426+466941178+465032286+462964494
3188+461185957+459919468+459220262+458991196+459120019+459375206+459193108
3178+458109750+456435661+454902011+453630889+452142355+450420122+449179718
3168+448842605+448930126+448741685+448051958+446993224+445847077+444981203
3158+444469725+443843536+442642652+441096423+439835422+438969976+437924499
3148+436306429+434509076+433161017+432398415+432018183+431890928+431821902
3138+431428735+430543760+429432785+428489190+427975075+427924936+428000590
3128+427579912+426392106+424974094+424082776+423758350+423376621+422577921
3118+421678229+421036824+420470503+419632603+418675680+418027219+417598986
3108+416794726+415416733+414080398+413525409+413821612+414392566+414642692
3098+414376245+413645145+412531996+411291663+410375614+409982447+409829071
3088+409615507+409424037+409466443+409697148+409797783+409439075+408549290
3078+407328058+406044499+404969373+404362891+404233141+404237026+404028272
3068+403521106+402728998+401641649+400319640+398954333+397861068+397278747
3058+396963265+396303080+395183231+394296368+394177737+394392050+394086439
3048+393007749+391682354+390847341+390832944+391230032+391173799+390235834
3038+388857307+387707168+387030519+386724872+386478630+385793536+384461655
3028+382962893+381928748+381422295+381044950+380494843+379812385+379199560
3018+378663387+377952706+377006902+376189100+375791906+375644731+375436262
3008+375085644+374650961+374162682+373630856+373034387+372294771+371407302
2998+370560422+369929172+369396064+368730533+367983754+367360737+366808207
2988+366105508+365190493+364124882+363044481+362290895+362136130+362301515
2978+362227036+361786438+361307602+360974231+360577286+359851033+358837236
2968+357847849+357141266+356709862+356346877+355812094+354993758+354080311
2958+353470336+353283712+353107423+352514767+351654239+350984682+350652914
2948+350478585+350266197+349833117+349044501+348036727+347132473+346469972
2938+345959029+345509486+345070241+344571592+343976763+343312872+342653328
2928+342111310+341740878+341388585+340738520+339595544+338181595+337072900
2918+336691848+336957904+337516884+338009118+338056157+337488981+336634475
2908+335910110+335285062+334545409+333764776+333137340+332667983+332252330
2898+331801611+331238069+330564699+329916772+329444636+329157556+328882342
2888+328406963+327727963+327106407+326789214+326705898+326510294+325947608
2878+325129628+324373691+323858685+323573636+323471540+323454078+323315028
2868+322895633+322227465+321469603+320821855+320435885+320246304+319964034
2858+319384386+318650791+318120391+317959283+317937545+317738734+317402548
2848+317228076+317277146+317245466+316807932+315904391+314768008+313844012
2838+313529243+313769427+314010609+313742130+313030950+312330426+311846209
2828+311367587+310721906+310077935+309657613+309373170+308949035+308321777
2818+307760017+307551228+307620825+307547095+307016623+306164362+305338863
2808+304670268+304086557+303616631+303353782+303164344+302760165+302077030
2798+301342545+300781355+300417694+300122239+299737304+299193861+298548571
2788+297888475+297251899+296704571+296365000+296185076+295824051+295009012
2778+293970181+293201966+292818990+292470136+291848009+290953110+289937959
2768+289005322+288358892+288032702+287866747+287695482+287404589+286874723
2758+286078748+285181729+284408686+283835915+283331083+282672484+281776231
2748+280829411+280129349+279794161+279680198+279558645+279329936+279035657
2738+278679693+278181543+277565902+276999706+276551838+276129057+275681848
2728+275223022+274669459+273942724+273166420+272523109+272019257+271571478
2718+271182212+270879702+270590465+270185716+269634576+269077877+268704291
2708+268522407+268328781+267957867+267465508+267004366+266616258+266235367
2698+265827322+265419829+265018572+264584691+264103147+263606155+263132380
2688+262713982+262384353+262134814+261876741+261510710+261044739+260597423
2678+260262395+260022942+259810750+259547919+259138876+258582373+258071857
2668+257790015+257657041+257467673+257186366+256928346+256744021+256560587
2658+256285569+255915975+255549427+255262026+255001904+254681326+254317094
2648+253971518+253624499+253236534+252878182+252665723+252581658+252459624
2638+252163225+251734600+251359446+251194935+251228646+251305512+251268077
2628+251044748+250660276+250208506+249770223+249358222+248985011+248715481
2618+248590186+248570266+248558310+248417086+248076232+247695626+247541662
2608+247633388+247700579+247526891+247155408+246755968+246455239+246323423
2598+246406543+246680902+246992696+247135220+247018585+246718212+246383256
2588+246151838+246076647+246064941+245974248+245800649+245680361+245687257
2578+245714108+245580688+245225045+244772829+244420963+244270742+244289967
2568+244402379+244546472+244664372+244731759+244834390+245125497+245635888
2558+246180364+246525798+246607136+246495027+246224695+245795856+245285519
2548+244807824+244396375+244045222+243786258+243610752+243407362+243078125
2538+242646524+242220055+241907495+241756632+241729549+241758699+241800589
2528+241811654+241768089+241738244+241814005+241953020+241997939+241851067
2518+241560066+241256219+241039929+240913547+240818347+240713257+240589762
2508+240448396+240301720+240178260+240112477+240120905+240143818+240031691
2498+239701687+239305402+239103277+239153042+239244821+239168276+238930319
2488+238670393+238470477+238309832+238136305+237914241+237620123+237249477
2478+236864684+236593800+236498225+236474920+236381501+236194360+235957223
2468+235703480+235504081+235417629+235344327+235108936+234687153+234203756
2458+233780494+233505227+233441849+233566431+233741847+233796655+233637150
2448+233312296+232965062+232721564+232625330+232592795+232426395+232021200
2438+231549313+231272728+231244255+231337941+231414700+231340346+231056758
2428+230724795+230586208+230665604+230794498+230878455+230965353+231093338
2418+231207621+231235382+231178507+231104260+231063386+231060340+231098042
2408+231188218+231315384+231434692+231506194+231524903+231539674+231618910
2398+231767724+231927354+232101059+232420390+233046882+234080189+235614035
2388+237842151+241085507+245729485+252063410+260089295+269537736+280156789
2378+291899075+304721548+318310329+332129209+345625123+358271093+369569823
2368+379124868+386598508+391763782+394796264+396142506+395811344+393104037
2358+387337448+378617880+367657795+355504202+344141613+336265183+333702592
2348+336774202+344592867+354924981+364521043+371134974+374635531+375794436
2338+375214859+373293565+370552867+367708255+365224418+362879168+360026788
2328+356371715+352238592+347982169+343433605+338157754+332117627+325813440
2318+319815969+314395936+309528684+304991452+300444563+295631102+290568567
2308+285478164+280588799+276069617+272026437+268446859+265175671+261996014
2298+258792195+255685484+252941115+250657247+248638259+246652554+244700899
2288+242942389+241458327+240199143+239123001+238259069+237611677+237118784
2278+236732476+236428504+236134029+235770653+235347552+234915541+234483264
2268+234048260+233648589+233337401+233151829+233105342+233158546+233191010
2258+233060887+232736692+232337448+232000549+231752205+231534240+231297192
2248+231035715+230774631+230543035+230353169+230202698+230086918+230002817
2238+229960821+229996653+230147587+230402471+230696571+230983099+231284701
2228+231627694+231963061+232223094+232421049+232636823+232941311+233365892
2218+233904862+234513714+235128785+235743232+236462394+237396207+238502746
2208+239661188+240841100+242044799+243206431+244289201+245316272+246256108
2198+247092440+247965387+249026223+250226662+251401817+252479687+253505440
2188+254487201+255322125+255966399+256558538+257199801+257757266+258069470
2178+258192270+258299426+258447439+258508144+258323248+257910321+257414220
2168+256861779+256153486+255298802+254464394+253762943+253106981+252342490
2158+251482656+250672125+249965738+249359666+248941072+248784703+248854068
2148+249082332+249415792+250041161+251723339+255339783+260883755+267482043
2138+274389363+281442877+288743703+296380377+304318117+312426499+320707892
2128+329294967+338197951+347337057+356691830+366193457+375638637+384708147
2118+392938260+399853669+405195338+409000044+411681445+413946194+416359259
2108+419165955+422534873+426615862+431418436+436724114+441892737+445971837
2098+448358531+449122059+448638164+447246593+445136717+442312524+438589103
2088+433495314+426422895+417109994+405667296+392330602+377715551+362829813
2078+348472122+335095552+323063298+312521076+303380295+295626024+289254539
2068+284069809+279808415+276152256+272737813+269541389+266842331+264661753
2058+262825325+261367188+260309220+259521567+259100247+259306274+260182482
2048+261710145+264064589+267501785+272276047+278561597+286354105+295772754
2038+307238419+320865722+335961711+351347773+365823951+378485993+389056902
2028+397760006+404918557+410900313+415962172+420011338+422885634+424450465
2018+424212668+421671351+417106680+411306630+404772308+397556847+389466960
2008+380341752+370368666+360041683+349822070+339991776+330678804+321855002
1998+313498240+305917051+299659297+294809720+290594919+286113903+281300388
1988+276692884+272663513+269336252+266750391+264728284+262940607+261249876
1978+259758953+258586453+257715929+256958530+256172800+255615958+255675416
1968+256080344+255935325+254867290+253544425+252731649+252470066+252430029
1958+252492783+252646925+252735266+252636395+252473558+252492552+252859456
1948+253645292+254955613+256805724+258545793+258868598+257274742+254999837
1938+253575517+253303351+253577210+253898786+254183033+254489820+254814193
1928+255247985+256239332+258108473+260228363+261646286+262555012+263677729
1918+264453213+263708269+261932262+260905244+261520920+263167730+264634171
1908+265191868+265033218+264791680+264773648+264871539+265058395+265605241
1898+266726283+268098165+269028165+269475267+270334388+271908893+272895287
1888+272068131+270142152+268570265+267761711+267341942+267035493+266781982
1878+266581460+266470170+266591973+267530721+270278992+275014857+279632749
1868+280725461+277548922+272990006+269835578+268600698+268397433+268360478
1858+268194434+268007009+267973547+268167779+268724852+269914957+271949696
1848+275071464+279397982+283555570+284417791+281064178+276761464+274522782
1838+274397203+274871762+275303968+276836352+280713114+285819107+288958586
1828+288947325+287797079+286630512+284569937+281687355+279598913+279114519
1818+279491312+279885798+280588995+282445253+285289812+287531220+287816750
1808+286694068+285885318+286746060+289670300+293792020+297075485+297939434
1798+297174356+297316631+300293825+305553461+309326202+307885063+302970343
1788+299314843+298945979+300730468+303033276+305326320+307207737+308007043
1778+308377867+310533536+316118775+324083510+330115833+330440438+326478115
1768+321706081+318162441+317356898+319953486+323973895+326221895+326579463
1758+327078397+327945874+328887082+331687042+338064745+346141661+351141300
1748+351060300+348629810+347114442+347821844+350364872+353185144+354730553
1738+356028366+360305280+368208757+374034536+371892053+365147588+358879998
1728+354453700+352287519+352450944+354090253+357196929+363682858+374710686
1718+386705166+391645792+386912137+378529896+371956019+369247749+371005867
1708+376745800+383979434+389431467+393418093+399641209+408942707+416140848
1698+417192170+413553276+406353388+398092593+393515271+394268002+398512701
1688+405076600+415509920+429176137+436940529+432107593+422800536+417425868
1678+417984563+422927862+428562920+432312177+435897510+440921132+443928420
1668+441230877+436734662+436348229+440514565+444830500+445937270+446117337
1658+449823903+459854968+476895484+495675018+502231006+497453091+496213970
1648+501709764+506424568+503199581+496332281+493088657+495631756+503714979
1638+516531144+530334594+536639922+532658107+527225709+527332509+533261524
1628+541994954+551148528+560669826+570000759+576874438+581735811+588683827
1618+599765251+610751920+615445913+615486751+616243509+619255644+623010781
1608+625772326+627178934+628183359+629837564+632341962+635548454+639858294
1598+645782357+653009328+660594294+667803091+674366099+680175414+685262468
1588+690025664+694900044+699670155+703629626+706643400+709848466+715157529
1578+723645074+733215299+739266438+742187417+747587350+758096289+770569176
1568+780141896+787285195+795856483+807855631+824412857+848007402+877395012
1558+896852976+896579865+889527295+884147175+880860788+878358670+875833959
1548+874478809+876763336+883255857+891717886+898994035+900189324+889669837
1538+873029865+860976836+855119056+851240050+846078019+841469053+840755985
1528+843851721+847925369+851417943+855459733+859849753+861545509+859529318
1518+855665706+850342674+843740253+838633386+838490131+845135386+858211371
1508+872565961+874746432+859333679+842317608+834247998+834341363+838894381
1498+843388814+843294665+838484144+834463451+835791590+841655285+846285775
1488+844377417+837261986+829836952+825057007+823189273+823316991+824950385
1478+828421364+834051931+841293940+847511711+847854026+841130301+833364805
1468+830129307+831493010+833316911+832220689+830718791+833851089+843173433
1458+853784859+854980576+844456314+832364371+825161134+823206307+824323270
1448+825162916+823532373+820350613+817722487+816574237+817250458+820252971
1438+824630662+826472880+822949588+817408039+814330548+814010256+813931857
1428+812853096+812019010+812137177+812494246+813480140+816449156+819768470
1418+818723064+812774912+806570968+802941553+801132690+799408141+797508193
1408+796596350+797019558+797323601+796503483+795938089+797278914+800087569
1398+802763446+804438462+804654699+802767509+799587032+797644464+798432082
1388+800574423+801251998+800011879+799575129+802162844+807183900+812524394
1378+817152674+821665068+826141825+829112979+830050694+830821849+832839180
1368+835369236+837718193+840625701+844080074+845863065+844294458+841006860
1358+838827671+838551781+838762886+837921316+836032700+834101322+832774894
1348+832133667+832222969+833286336+835660308+839446733+843891134+847204033
1338+847938554+846684181+845376925+845314847+846637071+849015248+852065655
1328+855376203+858646482+861802442+865076641+869039533+874004356+879220767
1318+883386283+886188382+888621723+891828499+896161788+901081711+905628243
1308+909197148+911937811+914386262+916755815+918674294+919789403+920402121
1298+921190452+922498421+924004952+924926702+924468072+922253177+918563182
1288+914267880+910471121+907890605+906443300+905697376+905444577+905458903
1278+905258417+904513134+903361819+902188410+901406707+901452392+902595012
1268+904633083+906964364+909145619+911298295+913742255+916326834+918660253
1258+920906935+923436136+925777253+926810471+926177084+925048505+925021635
1248+926263536+927287347+926859791+925401582+923871176+922246762+919922466
1238+916883106+913755512+910961110+908376603+905802572+903363529+901331659
1228+899832255+898872802+898432916+898372763+898368273+898199432+898018047
1218+898117826+898606533+899266219+899678167+899684225+899737251+900416536
1208+901729138+903223553+904519406+905604438+906916684+909076130+912232874
1198+915822305+919129289+921711587+923481037+924882799+926542563+928379578
1188+929765874+930771867+932188667+934160456+935992696+937543201+939723316
1178+943053320+946650948+949197397+950437159+951506869+953549002+956241058
1168+958256251+959081073+959525948+960354119+961443713+962366105+962833929
1158+962785607+962996000+965070990+969509902+974201329+976440813+976389141
1148+976763457+979357729+983485187+987270187+989209761+989130151+988737874
1138+990269564+993704550+996599230+997241740+996216005+994698926+993780169
1128+994780247+997866931+1001490787+1004555377+1007709199+1011476095+1014889772
1118+1016894488+1017647255+1017860213+1018105386+1018993710+1021094714
1110+1024311326+1027407632+1028677685+1027948794+1027210638+1028190403
1101+1030169676+1031214084+1031171036+1031558894+1032376304+1031823310
1093+1029758512+1028539347+1029811182+1032828306+1036130229+1038981861
1084+1040883662+1041463952+1041352697+1041856514+1043583985+1046257296
1075+1049544182+1053072605+1055752758+1056196065+1054682835+1053657741
1067+1054629738+1056169338+1056308246+1055534241+1055203828+1054690033
1058+1053206167+1052852804+1056275889+1062498934+1067973987+1070900312
1050+1072420883+1073671977+1073741823+1071351173+1067069698+1062607907
1041+1059184609+1057847134+1059827475+1064947099+1070349171+1072100804
1033+1068829384+1063308076+1059533624+1058897101+1059995034+1061174430
1024+1061884932+1062128038+1062137589+1061786079+1060109424+1057036353
1015+1054546137+1054529531+1056534461+1058733819+1059913357+1059623854
1007+1058142981+1056850121+1056754618+1056851404+1055980327+1055321853
998+1056395838+1058002861+1057478234+1054395327+1051258183+1050342063
990+1051225540+1051823363+1050583957+1047355443+1043047527+1038344055
981+1033459483+1029164538+1026534845+1025775023+1026346190+1027606550
973+1028264739+1026699196+1022751627+1017961632+1013741237+1010442663
964+1008128345+1007001975+1006436224+1004546896+1000309751+995460673+992467282
954+991236928+989628622+986967569+984668431+983423252+982291537+980326875
944+977354438+973714547+970317761+968159598+967311542+967061380+966845999
934+966586358+966674449+967686357+969346335+970068882+968465708+965072344
924+961914816+960568788+960937688+961895430+962717543+963404455+963743207
914+963121580+961907047+961500231+961871839+960962419+958015426+955238629
904+954728042+955908221+956821776+956356874+954733886+953090087+952476371
894+952797661+953111825+952575651+951045815+949408502+948737056+948513621
884+947165170+944768533+942984116+942306826+941921177+941765663+942242967
874+942597969+941839643+940615916+940565670+942482580+945748726+948673411
864+949196114+946572621+942834803+941111679+942268696+944319097+944999024
854+943939435+942114750+940337175+938880890+937679971+936752946+936622662
844+937709192+939470232+940813908+941167769+940537732+938913604+936319546
834+933313968+930881268+929791247+930251445+931937222+934236146+936790435
824+939747905+942956463+945227092+945506974+944619719+944446672+945624429
814+947174221+948038028+948287762+948973534+950835423+953000927+953615783
804+952236757+950355482+949034756+947950364+947132812+947549321+949474285
794+951742705+953145536+953736873+954294071+955139419+955978994+956516735
784+956519800+955773091+954495983+953443307+953271686+953900654+954557490
774+954594123+954141337+953537100+952897370+952858384+954551859+957481391
764+958649953+955883704+951073255+948153345+948946308+952133414+955060237
754+956132441+956193876+957441906+960540208+963338743+963195488+960236023
744+957871743+959347556+963459833+964922033+960319410+952596106+947553099
734+947525445+950075957+951687256+951591467+951903421+954475528+957913793
724+958991841+957489943+956708455+958504988+961108311+962370951+962628454
714+963472947+965080041+965785768+964176465+961072889+958763773+958490662
704+959284908+958826136+955542030+950287062+945597488+943619142+945317749
694+950007322+954386368+954042769+947632495+938717537+932485013+931427705
684+934036801+936247990+934583736+929158216+923114917+919867872+921324941
674+926543988+931093015+929611786+920479878+909436762+905679915+908756478
664+911358519+910304845+907030433+903996560+901893204+899823916+897556851
654+896481155+897557564+899557576+900891203+901640833+901434503+898474182
644+893268819+888129239+883438382+878844811+876750863+880497020+888697556
634+895613855+896747566+892133112+885745930+882109103+881350136+878483252
624+869873549+858698510+851473534+851661120+857009881+861927238+864044705
614+866393447+871817257+877459655+877903176+873966725+871665235+872703586
604+874146471+874270982+873256009+869276724
##END=
