##TITLE=<SNM>
##JCAMP-DX=4.24
##DATA TYPE=INFRARED SPECTRUM
##DATE=2/5/2025
##SAMPLING PROCEDURE=Instrument type and / or accessory
##ORIGIN=Admin
##XUNITS=1/CM
##YUNITS=ABSORBANCE
##RESOLUTION=4
##FIRSTX=4497.3318
##LASTX=599.83466
##DELTAX=-1.4281778
##MAXY=1.7639632
##MINY=0.19519773
##XFACTOR=1
##YFACTOR=1.6428188e-09
##NPOINTS=2730
##FIRSTY=0.21229523
##XYDATA=(X++(Y..Y))
4497+129226204+129977041+131328253+132239945+132041492+130906774+129439678
4487+128247880+127826737+128368926+129549667+130656601+131087821+130848098
4477+130533243+130667014+131118561+131384916+131264923+130880896+130244167
4467+129332864+128516892+128403140+129189115+130405240+131309196+131518887
4457+131374195+131551387+132174157+132553040+132015188+130704339+129346361
4447+128546263+128499114+129019706+129638857+129891833+129643492+129137150
4437+128766131+128709105+128675717+128190555+127283515+126626250+126766888
4427+127489778+128108322+128161275+127687215+126991700+126270796+125521909
4417+124894304+124840326+125576160+126677153+127587041+128114045+128104122
4407+127301674+125944503+124826403+124455447+124649347+124919121+124871284
4397+124526587+124440082+125067152+126053122+126628635+126460822+125763348
4387+124993844+124600040+124545535+124185210+123107020+121739790+120656411
4377+119866826+119265616+119111871+119542900+120153081+120505016+120644774
4367+120761565+120763479+120531492+120192256+119890382+119715484+119915851
4357+120608764+121304343+121352843+120806455+120313964+120306218+120641091
4347+120912580+120871382+120573979+120209390+119849691+119515390+119435343
4337+119866381+120524182+120649300+119982774+119166992+118818786+118883485
4327+119214259+119912078+120734644+121118516+121064265+121043884+120984935
4317+120387245+119420413+118912484+119241715+119938047+120367299+120404469
4307+120437168+120826483+121310756+121164739+120279986+119655320+120159113
4297+121215879+121534298+120875989+120228139+120373856+121086334+121692696
4287+121894269+121931930+122109775+122339176+122259665+121701612+120853241
4277+120104953+119883588+120374256+121228840+121824517+121962425+122038191
4267+122415704+122962727+123336159+123418002+123268057+122888748+122251410
4257+121483122+120910820+120850302+121363220+122317026+123613851+125037691
4247+125954191+125766214+124790475+124087639+124291698+125048031+125625014
4237+125659300+125241985+124635179+124058115+123607493+123297818+123173253
4227+123341156+123858328+124585173+125234538+125590773+125635735+125494507
4217+125342568+125388111+125786749+126420295+126862736+126755123+126193660
4207+125666475+125636470+126137659+126675729+126636019+125928213+125114926
4197+124840226+125244561+125980758+126661607+127183976+127645155+128040710
4187+128186019+128008673+127770210+127778773+128020283+128355048+128872374
4177+129667982+130526041+131211751+131793559+132393563+132943515+133309954
4167+133381112+133084316+132483352+131698220+130808115+130094830+130072644
4157+130876914+131950842+132651863+132861899+132831477+132742813+132604161
4147+132392547+132101040+131691299+131193756+130816514+130726227+130813485
4137+130912335+131037009+131200177+131329777+131555659+132172651+133077595
4127+133616255+133285246+132331294+131390413+130745338+130237019+129774960
4117+129574747+129848313+130500480+131238047+131828327+132129086+132018825
4107+131527078+130957642+130688094+130938966+131752189+132864448+133644673
4097+133641743+133191793+133042538+133470928+134111594+134489461+134508782
4087+134506732+134879819+135637540+136369510+136640581+136348530+135765361
4077+135329152+135327765+135696344+136081050+136101568+135662574+135058108
4067+134675470+134577980+134444762+133932053+133102594+132436385+132272735
4057+132367376+132285815+132065665+132115716+132613404+133301790+133727595
4047+133565397+132905864+132225913+131932438+132069846+132476721+132940776
4037+133225934+133232528+133130830+133206686+133614160+134232286+134686427
4027+134666526+134290337+133959827+133851389+133827960+133868487+134186108
4017+134783590+135232035+135136994+134620267+134108429+133822917+133734788
4007+133866791+134349585+135217341+136288202+137215441+137664983+137545525
3997+137065542+136511626+136007579+135575216+135347956+135483215+135911922
3987+136429511+136908922+137154442+136864676+136111554+135502308+135540721
3977+136125740+136780521+137068028+136863198+136471571+136305935+136400948
3967+136554520+136796621+137298200+138034905+138864954+139643528+140136164
3957+140229889+140185145+140245482+140277727+140220465+140357112+140687595
3947+140700629+140248420+139930228+140220728+140788994+141012445+140833902
3937+140788513+141406531+142691002+143973296+144335100+143571220+142621404
3927+142555226+143371642+144157726+144321939+144249647+144597128+145382224
3917+145946571+145742594+144983068+144290546+144016898+144205900+144960954
3907+146537967+149023515+151905861+154076663+154627006+153525632+151399165
3897+149191500+147998414+148521319+150280303+151583088+151439928+151290202
3887+152807830+155132159+156023625+155473609+155168097+155027141+153926529
3878+152624987+152727520+154395400+156825855+159383368+161073653+160797547
3868+159504114+159171681+159779132+159578329+157936898+156232736+155983424
3858+157952409+162533892+168950207+172940494+170475010+164777440+160305201
3848+158479295+159042318+161068265+163569487+166125350+168754793+170900579
3838+171270872+169616126+167342573+165519206+164191233+163513359+163980398
3828+165237477+166202540+167098522+169447868+173020641+175099687+174995195
3818+174750274+174285175+171833315+168203670+166031851+166653561+169616561
3808+173055000+175116921+176415324+178689603+181323055+182131071+181447973
3798+181198970+181435111+181312170+181294047+182455196+184926377+188117264
3788+191725866+195788426+200039127+204191159+208734311+214393948+220978666
3778+227843444+235261032+244147240+255085064+268045189+281931175+294565615
3768+304508843+311880316+317013303+320576951+324096371+328618370+333766958
3758+338751842+344014537+351317946+362451384+377629823+394099391+408285700
3748+420511189+433470987+447151417+457774768+464370352+470577393+479089535
3738+490050198+502020153+513049245+521886871+528908151+535644002+543367555
3728+552112118+560079994+564320735+563432771+558743948+552609435+547150745
3718+543818285+543040800+544382542+546650707+547692035+545762453+541807105
3708+538225824+536734709+537943986+541000267+543812589+544899161+544674866
3698+544274386+544609522+546627668+551076051+557567143+564117919+568402199
3688+570293613+571323911+571924196+571716010+570742711+569951837+571051470
3678+574956821+579494204+580474505+577685658+574203790+570605130+565887172
3668+560763727+556753920+554444430+553776044+554206057+555149533+556498060
3658+557575779+556610171+553592820+551501384+552916851+557398432+561250558
3648+561220517+558518927+556123122+555162848+554970264+554825753+555134403
3638+556782256+559788795+563200458+566361812+569897632+574556777+578657071
3628+579157036+577298348+576955956+579661826+584428692+589209381+592225753
3618+593435683+594610818+597192967+600793841+603991767+606652394+609976109
3608+613966904+616735796+617414922+617876646+620275607+624094354+627002278
3598+627994081+627969047+627815864+627307772+626326273+626120192+627995387
3588+631158954+633659288+635592825+638195545+640749649+641383349+640012545
3578+638298804+637262809+636786936+636885405+637937799+639618015+640922278
3568+641242430+640655170+639784041+639722217+641257523+643650897+644564549
3558+641974019+636362945+630826394+628722767+630813260+634614736+637162163
3548+637841289+637624540+637065508+636178342+635153378+634148731+633079938
3538+632091618+631491950+631097565+630345731+629144146+627898442+626946549
3528+626634162+627055250+627359002+626577126+625170621+624288534+623977671
3518+623600194+623306745+623761140+624789225+625189705+623971575+621655845
3508+619753946+618821645+618131563+617415793+617529935+618808656+620020908
3498+619880715+618792547+617955305+617235689+615308973+611755157+607776517
3488+604978853+604142046+604847766+605974212+606742518+607251372+607925019
3478+608843968+609708929+609931482+608870526+606721511+604652352+603538206
3468+603091576+602330127+600736406+599147911+599152809+601026299+602852550
3458+602718525+601176905+600281830+600815501+601636380+601598719+600995858
3448+600408236+599144173+596209582+592213453+589002973+587710357+587880193
3438+588349608+588543971+588699548+589119511+589430701+588692146+586716558
3428+584884756+584552667+584976876+584561629+583600267+583553826+584395240
3418+584740862+583752615+581555562+578863950+576775127+575909875+575880741
3408+576117226+576312859+576051991+575149805+574179698+573855773+574167471
3398+574422896+573782701+572092761+570374522+569785375+570329822+571272391
3388+572077305+572333383+571711221+570417334+568916931+567382350+566134796
3378+565897113+566772451+567776118+568024867+567540358+566779707+566354810
3368+566844035+568168870+569573235+570392771+570288969+569085170+567254166
3358+565823497+565213598+565005230+564856837+564687582+564340037+564044703
3348+564425227+565246070+565287431+563922940+561859732+560179116+559537688
3338+559900507+560264669+559552382+558333164+558351015+560178862+562585552
3328+564063787+564099561+563068210+561640407+560275046+559024153+558036233
3318+557850360+558515843+558980942+558293762+557025708+556509271+557026942
3308+557686438+557832763+557719419+557774132+557935695+557893100+557577847
3298+557229431+557071242+557071568+557255881+558161442+560341333+563270519
3288+565319142+565137623+562962811+560479132+559456888+560281214+561705824
3278+562349973+562229953+562348740+563129128+563972356+564233877+563849977
3268+562975655+561776102+560709776+560448147+561132787+561825155+561074518
3258+558474192+555531255+554280290+555039961+556364397+557201204+557961637
3248+559087393+559833313+559329393+557926625+556580021+555555600+554502771
3238+553375999+552565570+552172999+551798316+551279629+551062808+551267003
3228+550949971+549195595+546524374+544390089+543622036+543838204+544089565
3218+543903403+543673811+543777323+543657157+542686688+541555091+541393926
3208+541750904+540892655+538377519+535903055+535012551+535232964+535249254
3198+534976922+535244465+535997605+536261629+535647666+534677233+533784988
3188+532937587+532032824+531081149+530107995+529062313+527699673+525699341
3178+523268995+521322179+520602382+521001120+521885783+522592555+522605399
3168+521770007+520383312+518774970+516945743+514913048+513154426+512273936
3158+512194043+512070213+511265153+510051377+509083303+508530910+507920031
3148+506599224+504368175+501753118+499583712+498333292+497947651+498094411
3138+498411552+498653190+498627974+498079282+496948918+495640664+494580905
3128+493748670+493004419+492501841+492451446+492771743+493049590+492705710
3118+491515807+490018960+488910256+488214768+487622502+487218901+487221876
3108+487386488+487223872+486525807+485358835+483883793+482498222+481755749
3098+481706659+481694070+481162684+480202265+479030649+477667573+476378077
3088+475628673+475449876+475497804+475623993+475825321+475935219+475782944
3078+475392623+474937430+474583971+474157332+473192196+471713816+470385788
3068+469481425+468558340+467521910+466966071+467017265+466810639+465722870
3058+464492260+464360375+465340967+466056374+465370936+463526507+461480025
3048+459849333+458739868+458023372+457484114+456899503+456171796+455419962
3038+454884731+454678432+454674840+454648463+454404249+453829471+453015014
3028+452240285+451664056+451089785+450110137+448560826+446891856+445833186
3018+445497034+445170279+444272192+443100684+442318664+442119802+442195668
3008+442195632+441914519+441179266+439904609+438349928+437007097+436097255
2998+435476725+435087057+435058068+435262734+435260086+434832068+434166621
2988+433453572+432721584+432070613+431625833+431256809+430734858+430097275
2978+429494596+428840215+427998075+427144579+426565011+426235716+425912952
2968+425449015+424749535+423654365+422212158+420903251+420230838+420184470
2958+420315266+420200905+419748978+419177029+418642995+417859741+416399030
2948+414443942+412771200+411891399+411640255+411622405+411649471+411699576
2938+411679367+411332548+410461999+409253920+408188973+407547218+407168906
2928+406752933+406208015+405612302+404962855+404156562+403180360+402099703
2918+400916331+399729549+398934213+398885885+399436754+400048141+400240399
2908+399801496+398814845+397665470+396804209+396372817+396172395+395986197
2898+395774165+395530713+395092500+394250432+393077401+391936262+391068289
2888+390393227+389769287+389157791+388526449+387893257+387375586+386961029
2878+386465454+385892526+385459936+385176103+384814843+384312810+383797897
2868+383274204+382606289+381752104+380805436+379898242+379128303+378533606
2858+378118940+377859524+377663674+377391451+376947686+376368300+375796642
2848+375330165+374957368+374701580+374613996+374533668+374154558+373402506
2838+372438640+371315533+369958117+368465441+367227756+366659943+366673114
2828+366519315+365594778+364297518+363504830+363375920+363314568+362908573
2818+362263516+361552535+360794315+360041864+359420500+358955765+358563085
2808+358168556+357712056+357155274+356609484+356248008+355975131+355464572
2798+354611402+353638865+352756996+352024427+351476062+351097061+350710622
2788+350082183+349166572+348230607+347651765+347470791+347260863+346648678
2778+345789740+345060763+344491245+343826415+342996647+342180304+341477559
2768+340813636+340146048+339532267+339002006+338572356+338296069+338059329
2758+337480088+336338150+335000399+334064906+333679011+333490236+333157821
2748+332639280+332013561+331280848+330408267+329477200+328708059+328265021
2738+328010213+327569278+326757470+325833732+325173945+324806264+324479109
2728+324096262+323793562+323571880+323150646+322314565+321217146+320207637
2718+319475359+318962514+318521652+318043420+317474591+316839113+316259655
2708+315866903+315644059+315424807+315067720+314575157+314027626+313465510
2698+312861126+312207398+311628483+311323243+311317474+311348387+311095610
2688+310456613+309538390+308490096+307424713+306427250+305571903+304933523
2678+304554993+304402464+304402972+304478656+304482357+304208882+303600125
2668+302867938+302308543+302055894+302051721+302113038+301961524+301354455
2658+300346017+299334857+298716559+298523666+298494531+298419772+298254672
2648+297925903+297279740+296334867+295406086+294825158+294626587+294578586
2638+294419453+294025286+293437954+292796435+292261059+291960481+291910449
2628+291958032+291901414+291670988+291305611+290828721+290271757+289711237
2618+289177748+288661546+288261738+288125862+288158207+288026359+287591338
2608+287119782+286912068+286913555+286871541+286732381+286663101+286711175
2598+286632261+286173150+285454260+284873712+284607167+284449994+284220946
2588+284003581+283850979+283609885+283225805+282883576+282658591+282349288
2578+281845767+281379163+281202670+281231332+281178016+280910056+280520950
2568+280128471+279728480+279250683+278718827+278340333+278366257+278792533
2558+279278893+279490979+279451794+279398750+279383221+279233431+278870231
2548+278431419+278057733+277735913+277419516+277181452+277132181+277234333
2538+277304901+277197815+276929365+276653913+276526527+276522064+276434316
2528+276155798+275855855+275767400+275905580+276040349+275867121+275285213
2518+274587747+274233400+274380360+274786046+275116883+275193257+275010377
2508+274678779+274337366+274086676+273962337+273885873+273683964+273277715
2498+272806721+272473726+272323174+272238873+272117891+271972600+271846012
2488+271703388+271478676+271162642+270781972+270366054+269974009+269682502
2478+269521719+269445835+269356890+269178474+268911819+268580747+268167695
2468+267685526+267240166+266946137+266845636+266901982+266971280+266851187
2458+266499615+266128705+265946116+265891802+265766502+265531740+265303708
2448+265114588+264894157+264660248+264506757+264422220+264310309+264151103
2438+264006284+263933557+263966374+264076653+264137552+264048516+263881329
2428+263784184+263773699+263727294+263559708+263325798+263148779+263089694
2418+263113857+263183210+263328483+263584670+263901665+264183775+264384070
2408+264489868+264440270+264160156+263723358+263387496+263362243+263596371
2398+263879660+264073714+264162550+264212583+264388333+264904788+265916310
2388+267519446+269822097+272954081+277041585+282147488+288211850+295170798
2378+303142665+312293386+322460383+333075098+343472703+353161249+361850229
2368+369295826+375085988+378735696+380093693+379437716+377183047+373636706
2358+368818174+362454105+354470628+345741122+338274263+334063999+333792755
2348+337044052+343073529+350826579+358610578+364577614+367704210+368215604
2338+367239801+365789975+364066946+361899246+359432945+356993783+354536661
2328+351635884+347940714+343479705+338667705+334064942+329951623+326087633
2318+322012845+317584997+313113176+308964156+305183215+301592210+298101308
2308+294743723+291513923+288361985+285316261+282498570+279998853+277778399
2298+275728596+273796819+272019077+270469022+269196361+268143749+267136127
2288+266042644+264914693+263896803+263076287+262460039+262001435+261627132
2278+261291797+260984289+260663448+260254351+259740871+259220352+258825496
2268+258577255+258352833+258057135+257786980+257722434+257875798+258068165
2258+258155840+258157600+258141726+258123948+258114388+258134143+258151523
2248+258111758+258009842+257832187+257519600+257118884+256855858+256923161
2238+257272683+257694243+258038377+258316170+258616076+258967086+259321542
2228+259678430+260135909+260751395+261428271+262023930+262507024+262946924
2218+263431288+264046956+264863535+265895376+267103111+268418385+269762776
2208+271083565+272367238+273615446+274851862+276123797+277440705+278773086
2198+280128670+281530949+282945055+284330445+285714129+287131174+288543558
2188+289854152+290973377+291886938+292649131+293294151+293823432+294299959
2178+294849140+295516474+296177077+296619245+296702403+296414688+295816362
2168+295009543+294138776+293315358+292528294+291662316+290590294+289268815
2158+287747078+286069946+284275423+282482733+280789908+279173040+277678442
2148+276426443+275324525+274359752+274208964+275764316+279033663+283187582
2138+287540562+291921115+296379313+301032163+305958487+311041115+316112568
2128+321195993+326435105+331943682+337786525+343930798+350241388+356618120
2118+363035922+369470632+375976745+382815963+390418443+399413715+410776310
2108+425608909+444623909+467948840+495152092+524998192+555442510+584345643
2098+610004554+631258730+648007995+661185159+671567307+679312920+684204087
2088+685312573+681579089+673097389+660352706+643095203+621336201+596152546
2078+569032271+541348610+514062019+487650983+462754355+440320908+420828111
2068+404109141+389873851+377762034+367309281+358309366+350728509+344299604
2058+338733520+334014619+330140579+327010645+324630478+323071407+322438541
2048+323015424+325109798+328904054+334746498+343253378+355046531+370833999
2038+391518221+417538864+448120907+481413574+515185997+547451704+576861079
2028+602594912+624159806+641769244+656401676+668900802+679325328+687166290
2018+691908629+693587176+692816403+690207079+685868557+679224827+669391116
2008+656163521+640376162+623063947+604687981+585210532+564616034+543314257
1998+522066031+501583137+482256222+464071317+446755001+430241532+414902582
1988+401146939+389055331+378438801+368969651+360326714+352424545+345364515
1978+339105482+333428774+328221736+323543398+319450361+315931593+312906369
1968+310152534+307379107+304514938+301789729+299422877+297383143+295536284
1958+293863360+292414042+291170914+290061249+289033763+288104093+287355016
1948+286878979+286719538+286795349+286747148+286056032+284659068+283181269
1938+282217149+281759217+281492726+281272077+281128292+281045224+280936614
1928+280856250+281093588+281799163+282597547+283040277+283315585+283777472
1918+284037813+283472667+282409207+281782673+281943275+282465662+282804318
1908+282814404+282723953+282785578+283035778+283363985+283701534+284096626
1898+284644918+285291372+285769241+286006416+286393853+287167329+287831996
1888+287812150+287317990+286913446+286783666+286845309+287026011+287225634
1878+287367678+287514094+287773582+288317829+289493110+291426538+293335530
1868+293848884+292634745+290859143+289713759+289488883+289840310+290287086
1858+290512233+290503181+290442735+290468877+290673180+291204021+292219045
1848+293870199+296151335+298292332+298805468+297355732+295510524+294678760
1838+294913341+295521753+296112604+297054139+298810420+300891008+302070225
1828+302089781+301862674+301707224+301130650+300216653+299727845+299957800
1818+300472677+300855996+301258870+302113800+303445709+304664238+305214309
1808+305262781+305442486+306207889+307604272+309282312+310622929+311212837
1798+311378174+312033571+313910617+316721923+318807953+318640874+317069359
1788+316130310+316598600+317858745+319192541+320485883+321670343+322444056
1778+322996630+324286162+327143582+331159702+334390173+335150534+334020714
1768+332433706+331243622+331195621+332686954+334872904+336342903+337008749
1758+337715775+338603086+339632514+341585824+345081153+349158191+351822664
1748+352379374+351903717+351600437+352112883+353589775+355481479+356907178
1738+358178279+360850625+365250027+368605599+368211323+365838049+364026528
1728+363305896+363547026+364594195+366079977+368111693+371715976+377551454
1718+384035544+387556234+386813724+384366762+382721920+382821260+384833819
1708+388511537+392918849+396880873+400644071+405704313+412033044+416841779
1698+418533605+418466556+417360139+415830093+415634497+417643283+421217634
1688+425900616+432367254+440262058+445649962+445746436+443890687+443707318
1678+446155333+450567652+455271968+459115204+462963956+467771893+472248902
1668+474616407+476082197+479097553+484082727+489352243+493417670+496938215
1658+501592607+508527899+517855331+526884962+530103315+529002267+529846330
1648+533389805+535880342+534467342+531593160+530448392+531656544+534969484
1638+540088176+545372204+547496403+545912479+544294268+545126358+548215982
1628+552269183+556438412+560772725+565025766+568328112+571011959+574830270
1618+580478823+585953694+588740655+589748785+591212688+593597065+596196665
1608+598490917+600526298+602481059+604207318+605329736+605934664+606817295
1598+608627038+611165431+613868798+616559684+619350781+622168871+624744889
1588+626875509+628529965+629877549+631246757+632933068+635179864+638376012
1578+642698787+647035349+649468125+650564493+652757373+656665010+660775390
1568+663980899+667220513+671621004+677651062+686472216+700232576+718863712
1558+734974633+743707478+751222773+761511314+773110794+783129760+790015273
1548+794375491+798342122+803372830+808949944+813510366+814804978+810768758
1538+804320152+800221164+798730339+797244086+794029797+790427363+788552095
1528+788643598+789560225+790681627+792707030+796027262+799294668+800768731
1518+800227912+798445163+796530856+795649059+796514311+799539571+804821278
1508+810747134+812768763+808739219+803634641+801263834+801569255+803332920
1498+805007041+805128513+803824323+802872212+803409838+804922649+805969311
1488+805476457+803601552+801457507+800291188+800675559+802338577+804815908
1478+807893560+811270537+814199578+815506743+814321485+811696487+810071274
1468+810635893+812737561+814773703+815733505+816480405+818465100+821802022
1458+824687016+824371363+820994966+817715660+816373156+816911507+818238628
1448+818938144+818501164+817823490+817980155+819144007+821002441+823461267
1438+826124797+827469550+826442626+824505607+823463517+823299522+822803839
1428+821236967+819105693+817354655+816561241+816817319+817593680+817490785
1418+815252407+811623850+808253331+805673250+803697699+802342931+801912628
1408+802556124+803696102+804045135+803009866+801780198+801806612+803013494
1398+804353966+805378496+806208046+806613678+806492061+806482700+806971418
1388+807174379+806061539+804234163+803828169+806516442+812186075+819032114
1378+825083795+829819023+833658668+836449910+837862583+838616014+839721307
1368+841311907+843054746+844806873+846301544+846997939+846801436+846377954
1358+846351032+846619446+846647964+846204816+845492021+844668712+843815796
1348+843257054+843349065+844024925+844825450+845345587+845735981+846679965
1338+848430133+850181316+851048019+851154325+851290165+851998896+853312012
1328+855022850+856898554+858759600+860649380+862908439+865822822+869246240
1318+872811811+876337181+879634121+882264198+884029315+885501200+887532481
1308+890161034+892380183+893385192+893741481+894607893+896146102+897520172
1298+898171215+898299871+898242981+897991184+897284920+895837561+893530247
1288+890621742+887651268+884923519+882245622+879438344+876841645+874846720
1278+873326434+872048149+871165990+870964770+871648032+873424830+876172461
1268+879063479+881097299+881979458+882162319+882316227+882975905+884232566
1258+885620785+886582837+886975408+886996814+886699157+885773532+884112183
1248+882359910+881242644+880608944+879874452+878968565+878041126+876876766
1238+875543333+874984954+876025810+878266074+880523173+882031776+882778241
1228+883055435+883235176+883617877+884122632+884463827+884776505+885658228
1218+887500335+890144853+893199646+896250159+898823854+900639185+901984083
1208+903575337+905872201+908684922+911499819+913918591+915709249+916895016
1198+918032745+919938127+922748017+925695127+928144738+930271367+932375357
1188+934304032+935883457+937353456+939103696+941253183+943621450+945984203
1178+948384325+950993795+953515317+955300315+956280653+957116008+958431374
1168+960478836+963324065+966734059+969768753+970854018+969019386+965597346
1158+963731076+965302229+968975920+972050596+973686041+975202045+977712320
1148+980926754+984133932+987221888+990337055+992989627+994184609+993645604
1138+992592412+992528629+993067633+992850014+992394313+993697705+997352893
1128+1001835598+1005651587+1008439201+1009960140+1009962171+1009131388
1120+1009013399+1011055781+1015674617+1021344032+1024951037+1024638214
1111+1021949433+1019722883+1019125247+1020207029+1023507742+1028652883
1103+1032962742+1033948231+1031869204+1028696421+1026132812+1025385114
1094+1026665141+1028348478+1029037544+1029532285+1030769499+1032490641
1085+1035200539+1040117684+1045710908+1047941231+1046332635+1045441986
1077+1048063864+1051183239+1051347742+1050729933+1053536631+1059220196
1068+1062599350+1060094953+1053392301+1046879694+1044330452+1047461003
1060+1054837919+1062699706+1068456706+1071982367+1073741823+1073467241
1051+1071064942+1067334070+1063283628+1059806512+1057962664+1058258362
1043+1059529536+1059971595+1059497172+1059800780+1061524462+1062745639
1034+1061614078+1059434332+1058973261+1060616035+1062345522+1062824153
1025+1062195678+1060308581+1057734814+1057615446+1061929441+1067519689
1017+1069432472+1067283638+1064396249+1061606894+1057104016+1051545841
1008+1048498594+1049621737+1051997333+1051851045+1049412100+1047163564
1000+1045762791+1044896306+1045274073+1046956902+1047669189+1045388506
991+1041423544+1038645436+1037911235+1037646304+1036147280+1033643246
983+1031973043+1032164757+1032716242+1031072090+1027245870+1024222133
974+1023499034+1022875710+1020417246+1017439443+1015579341+1013839985
965+1010764220+1007382090+1005457479+1004391298+1002231217+998803082+995577400
955+992884555+989663227+985851156+982585492+980119626+977852441+975931748
945+974888860+974443463+974001984+973416248+972804608+972160821+970879270
935+968294328+965180539+963422607+963702704+964945215+966064077+966503596
925+965714319+964021114+962829760+962469988+961457722+958998315+956453065
915+955574099+956603925+958247279+959156142+959445817+960002309+960359468
905+958839908+955518515+953101848+953457338+955048446+955309603+954394718
895+954276366+954946058+954370627+952257422+950862599+951211486+951350228
885+949679518+947781465+947795615+948946115+948813540+947037612+945508474
875+945280406+945512537+945160603+944192165+943018154+941705329+940431543
865+940047752+941122423+942638065+942747419+941138968+939712217+940337500
855+942414133+943253624+941202171+937871707+936414915+938066613+941192665
845+943543081+944249418+943708817+942589592+941041152+938987376+937081051
835+936436684+937228428+938458458+939296499+940254197+942627325+946417699
825+949360745+949045817+945799963+942025408+939371892+938135041+938610335
815+941450122+946305080+950834807+952460093+951771752+952269467+955805505
805+960103681+961638697+959694058+956541520+954547247+953732355+952333832
795+949823847+948350583+950127527+954127103+957257363+957806962+956076603
785+952965645+949636052+947753673+948599187+952115777+957169561+961675269
776+963052821+960930111+958179722+957440804+958227034+958521063+957775614
766+957240818+957960071+959049836+958771408+957329782+957003389+959259690
756+962891077+965309993+965011175+962524484+959409462+956559806+954187113
746+953184570+954986912+959766186+965600612+969794295+971050376+970255584
736+969078525+968478495+968426466+968141000+966724771+964326027+962148821
726+961252730+961945569+963525140+963974600+961454675+956945846+953660589
716+953207863+954147638+954953387+956056576+957180590+955891928+951172810
706+946312772+945216332+947000242+947412187+944704539+941337720+940013430
696+940255285+939588060+936921773+933703566+931978795+931979593+931489714
686+928208521+923521911+921094432+921229618+920336067+916509048+911961761
676+909523107+909879903+910216745+904708421+890879562+878036047+880362880
666+894629953+907252293+912160658+910185688+905122181+901068182+900418736
656+902975596+905947667+905960946+902160341+896602964+892367121+890952996
646+890205588+887061396+882074807+879298513+880210496+880374635+876617713
636+872271645+870588962+869678358+867399925+864736831+863054147+861713312
626+858737685+853910374+849712989+848231743+849055053+850921178+852792382
616+852850941+850144889+847054902+847413585+851426004+854363825+852470779
606+847520544+843216273+840994005+841357187+844433677
##END=
