##TITLE=<SNM>
##JCAMP-DX=4.24
##DATA TYPE=INFRARED SPECTRUM
##DATE=2/5/2025
##SAMPLING PROCEDURE=Instrument type and / or accessory
##ORIGIN=Admin
##XUNITS=1/CM
##YUNITS=ABSORBANCE
##RESOLUTION=4
##FIRSTX=4497.3318
##LASTX=599.83466
##DELTAX=-1.4281778
##MAXY=1.8440065
##MINY=0.38290015
##XFACTOR=1
##YFACTOR=1.7173649e-09
##NPOINTS=2730
##FIRSTY=0.40066215
##XYDATA=(X++(Y..Y))
4497+233300535+232881690+232924606+233757123+235054004+235925445+235721663
4487+234570691+233085455+231950570+231703473+232354733+233268396+233710390
4477+233434244+232758758+232314230+232619652+233608508+234616261+235017683
4467+234796356+234395125+234155022+234065634+233979266+233887205+233849322
4457+233675145+232987148+231849954+230909428+230584692+230656293+230922808
4447+231506164+232160738+232217918+231603586+231014695+230872812+230962478
4437+231197688+231911351+233161533+234330865+234773015+234694491+234973449
4427+235995692+237119228+237490715+236954769+235910053+234727567+233573349
4417+232493353+231463266+230502835+229820634+229654526+229953822+230431408
4407+230961367+231696202+232700745+233637505+233976489+233607241+233142982
4397+233289533+233900324+234099647+233454061+232479696+231772523+231325930
4387+230996126+230944656+231142885+230917584+229624140+227593345+225878192
4377+225179574+225472467+226327145+227085303+227151628+226638207+226316126
4367+226596298+227041763+227068002+226685218+226374798+226480793+226886761
4357+227167888+227052713+226772836+226882562+227708364+228953496+229872365
4347+229893102+229011023+227606117+226153575+225166906+225045397+225651330
4337+226179849+225940196+225239409+224859645+224814613+224434761+223582600
4327+222957942+223088892+223728039+224356063+224776730+225139852+225642393
4317+226287822+226820679+226861911+226248898+225309084+224714205+224949866
4307+225838297+226604645+226558121+225780301+225008451+224771958+224856122
4297+224719932+224255014+223958477+224381087+225501118+226656619+227063438
4287+226445166+225257856+224230285+223660777+223376596+223304527+223679727
4277+224669485+226056135+227239506+227569848+226951525+225927823+224926595
4267+223982130+223374670+223602348+224485035+225322082+226086625+227351506
4257+228976351+230015375+229977336+229214857+228150774+227060574+226478451
4247+226882007+228013126+229128437+229732808+229737632+229308358+228811787
4237+228494513+228143399+227433484+226453635+225589274+225123956+225102664
4227+225373812+225745716+226222816+226974345+228001551+228931821+229210467
4217+228586573+227490004+226809469+227126674+228175451+229145148+229473598
4207+229267074+228986173+228855657+228709211+228369550+228004276+227968892
4197+228390097+228987301+229254406+228891422+228151156+227573909+227318986
4187+227100227+226774033+226591318+226762857+227076782+227103698+226716662
4177+226389982+226787118+227894272+228927570+229356983+229542422+230058152
4167+230838400+231251275+230829845+229829276+229018815+228932186+229454961
4157+230036303+230131939+229661363+229185235+229303950+229906673+230414975
4147+230533430+230347452+229997588+229534752+228856906+227852259+226865746
4137+226656081+227546369+228938277+229929423+230215791+230227383+230476475
4127+230917775+231035675+230459590+229305373+228066957+227387463+227690611
4117+228798390+230096780+231100612+231593365+231375127+230385560+229047170
4107+228033274+227690021+227921257+228456387+228998945+229352835+229619177
4097+229976139+230235470+230083245+229652287+229313252+229136055+228994815
4087+228905704+228973991+229282085+229895514+230686852+231204733+231000777
4077+230111097+229065478+228367207+228062341+227883200+227664997+227448668
4067+227326604+227359246+227507427+227583835+227423575+227138648+227124453
4057+227704650+228674729+229383603+229506865+229403750+229429000+229513806
4047+229672539+230166802+230921489+231439422+231435726+231031823+230405621
4037+229707003+229166198+228968767+229117834+229528921+230131366+230839546
4027+231545886+232170977+232745274+233420257+234215430+234814577+234940945
4017+234848972+234925709+234923904+234265772+233068327+232175957+232064027
4007+232286846+232247350+232080374+232343506+233060883+233644829+233790893
3997+233860064+234269729+235020390+235879996+236591820+236874579+236611673
3987+236084004+235749880+235751858+235773671+235454662+234908824+234770482
3977+235672032+237562316+239482500+240268961+239671445+238503675+237619201
3967+237266195+237517873+238538069+240007791+240974711+240853393+240094194
3957+239444895+239162015+239325242+240355087+242612033+245482496+247400823
3947+247456007+246557043+245971744+245447876+244009061+241911368+240324198
3937+239914290+241017488+244017338+248224386+251171986+250902104+248664073
3927+247369084+248103294+249438491+249961612+250345038+251896287+254163125
3917+255005499+252941038+248914987+245290878+243709487+244378882+247051480
3907+251964989+259066083+266598326+271698906+272860724+270266738+264545960
3897+257624735+252963771+253002521+256761467+259891000+259318161+257849775
3887+259514689+263479239+265800619+266043933+266478395+265939083+262237664
3878+258169184+258065046+262139947+267587632+272349316+274995571+274071132
3868+271320947+270274477+271124140+270945312+268300411+265145472+264117276
3858+266963895+274933463+287196708+295791090+291563530+279843676+269501083
3848+263769025+262929913+266002736+271192010+276783921+281832250+285422536
3838+286269319+284422419+281440616+278125886+274473282+271271021+269848449
3828+270298495+271729830+274649143+280683117+288204965+291317249+288615150
3818+285134173+282619770+278548149+272994815+269292997+269735234+274233387
3808+280240481+284498722+287516377+292209810+297584229+299009716+296180017
3798+292641461+289262453+285471525+282521098+282184127+284569646+288594898
3788+293242726+297755924+301568388+305101877+309741617+315838359+321611458
3778+325612312+329248255+335109961+344692817+357700597+371524062+382751580
3768+391080609+398539185+405494822+411705785+418441796+425916407+431449160
3758+433396120+434482624+438725871+448059287+460841229+471579169+477075028
3748+481661355+490069654+500582207+506432286+507015954+508884651+516560702
3738+530529242+547304679+560193866+564553798+562655115+560644849+562801683
3728+569801259+579501945+588087667+592263756+591292862+587035141+582420563
3718+579573962+579690300+583816203+591777580+599155393+598912167+590733592
3708+581080664+575472111+575570540+578876871+580455763+578122618+574701511
3698+573333498+574744651+579061686+586766509+596812946+604738437+605295554
3688+599593604+593949685+591488401+591547889+593045845+596173573+602355937
3678+611808746+619865706+619999259+614905307+612053985+611462161+607268163
3668+598029428+588617852+582744727+580597160+580994764+583678277+589147412
3658+595838373+599116452+597164112+595226002+599394386+609466576+615508307
3648+607546860+590823137+576318234+568797184+567164565+567934749+568708438
3638+569475742+570772570+572379297+574533702+578588317+585005682+590658556
3628+590957453+586754361+582621725+582124998+587067697+595890572+603132056
3618+605413419+606011144+608439456+611771956+613905467+615051077+615629851
3608+614361795+610976263+607754964+606960520+608564124+610906918+613319959
3598+616909708+622028718+626620736+628599107+629321985+632212179+638056774
3588+642459708+640284271+633498630+628314370+627505627+629620951+632114860
3578+633495436+633573874+632812610+631902939+632054400+634839293+640592609
3568+646503356+648185120+645088280+640628010+637364230+635482622+634527138
3558+634943692+637144604+639773245+640573659+639408058+639192388+642307622
3548+646792951+647921346+643809743+637384985+632717652+632137003+635721962
3538+640819246+643333979+641660683+638171446+635783532+634988950+634677419
3528+634190896+633598655+632718277+631045328+628844486+627090392+625939993
3518+624362211+621757101+619278324+618735367+620411995+622607076+623437199
3508+622700716+621798124+622044267+623242354+623888113+622964697+620804323
3498+617857071+614360407+611517553+610858328+611895652+612416327+611612165
3488+611013885+611765639+612916525+613228819+612884039+612346149+611467089
3478+610645574+610788359+611342422+610666815+608818596+607356596+606343567
3468+604310221+601372548+599756797+600662373+602444718+602750348+601695671
3458+601648122+603960097+606848902+606889162+603166069+599042040+598050321
3448+599616164+600451285+599234040+597352432+595736334+594306959+593569990
3438+593858475+593928583+592519894+590232492+588240308+586540705+584790082
3428+583478573+582962340+582613396+582108755+582216764+583492733+585434592
3418+587175774+588051988+587434064+584984997+581520818+578992584+578906823
3408+580729012+582337544+582122048+580211287+577882376+576354364+575939198
3398+575995597+575855589+575549820+575178906+574277078+572492199+570450385
3388+569404870+570098802+572098205+574218354+575368996+574959696+573207997
3378+571320698+570587408+571098157+571812913+571777512+570847225+569488549
3368+568346479+567868112+568070315+568559025+568904950+569031769+568849904
3358+567849231+565968908+564225227+563400900+562937110+562064158+561086218
3348+560676224+560838375+561251320+561731457+562019733+561840506+561302825
3338+560860345+560957039+561613973+562007482+560955928+558499329+556343363
3328+555924241+556761028+557476756+557630925+557740252+558198558+558829254
3318+559112776+558753385+558214523+558254853+559034338+560338316+562009425
3308+563432240+563500821+562008488+560315653+559794492+560345397+560970262
3298+561198079+561392334+561834328+562188895+562161928+561972671+561707821
3288+560959364+559719698+558883397+559196871+560230829+560695521+559739481
3278+557926837+556611232+556387545+556728368+557168523+557944537+559122529
3268+560071350+560300034+560039350+559660280+559365027+559492818+560095749
3258+560548086+560515045+560637665+561259858+561508846+560865724+560314126
3248+560767434+561621435+561708550+560648597+558843346+556979335+555604520
3238+554698701+553918660+553425473+553729715+554696063+555505535+555616008
3228+555073051+553874582+551835127+549390121+547757190+547644704+548325691
3218+548709308+548729334+548737420+548421170+547407933+546076328+544899447
3208+543800102+542713667+542000334+541811284+541717298+541514505+541712647
3198+542415707+542470753+541010767+539066583+538131436+538202204+538421379
3188+538482533+538321076+537461695+535623089+533345718+531669958+531410558
3178+532375170+533228408+532587612+530299898+527328976+524571189+522370555
3168+521137553+521493057+523300287+525229165+525848617+524805115+522696107
3158+520301079+518155906+516443496+515020785+513616191+512146140+510987307
3148+510736896+511331948+511735903+511085354+509767598+508718335+508129321
3138+507507059+506617414+505689556+504851450+503917519+502837887+502011339
3128+501901318+502449793+503085001+503283490+502913166+502108033+501180452
3118+500591682+500533583+500591925+500304204+499836527+499532250+499133431
3108+498160211+496798273+495640550+494777768+493926127+493230841+493037106
3098+493060464+492697394+491924121+491117252+490457367+490100509+490236526
3088+490575926+490496030+489909134+489250013+488633651+487740431+486420001
3078+484934575+483721842+483092187+483053974+483393652+483915021+484468078
3068+484813795+484728901+484168938+483151848+481725667+480273004+479436425
3058+479402204+479577058+479274656+478414616+477268693+476037774+474993092
3048+474439723+474266222+473999256+473369080+472489916+471654067+471182051
3038+471156333+471249834+471179865+471127492+471276663+471191422+470174575
3028+468149246+465873610+464302492+463790008+463897530+463957331+463705635
3018+463335103+463127485+463177012+463282348+462940276+461671595+459617459
3008+457707878+456928913+457275775+457610455+456821078+455019783+453290609
2998+452479679+452600147+453094376+453338991+453092120+452559957+451963655
2988+451271493+450483192+449777771+449197609+448552787+447787948+447156765
2978+446898337+446832741+446424482+445394585+444084568+442987340+442236176
2968+441744203+441359788+440744571+439668133+438441169+437567559+437163256
2958+437056428+437066528+436925791+436395919+435663947+435202725+435147055
2948+435109537+434618398+433560250+432255196+431244631+430923348+431209646
2938+431535650+431284891+430348530+429139094+428019098+426970251+425979053
2928+425421901+425660269+426367807+426652578+425939730+424520768+423153623
2918+422321973+421953002+421639771+421019418+420108809+419350530+419087242
2908+418941195+418184270+416902469+416150611+416590661+417500020+417623647
2898+416704257+415585337+414973591+414733661+414387702+413749613+412891933
2888+411887337+410851541+410048246+409732273+409907822+410277972+410430961
2878+410118840+409378539+408404278+407421167+406697421+406447877+406563938
2868+406608259+406245501+405569789+404939822+404607016+404511294+404354106
2858+403881847+403087716+402118279+401133744+400324758+399841116+399619442
2848+399465342+399266645+398955149+398440409+397735717+396965117+396225441
2838+395612514+395234416+394995805+394569811+393764365+392751301+391848641
2828+391241163+390946778+390870249+390807638+390549522+390081497+389515321
2818+388774708+387727840+386737440+386481302+386937491+387148961+386355732
2808+384854340+383506076+382874894+382897106+383017991+382717289+382074411
2798+381580321+381403420+381221485+380710771+379831607+378767212+377862573
2788+377409369+377299798+377125257+376697146+376233078+375981001+375851543
2778+375512837+374791000+373864566+373024135+372411139+372037240+371787349
2768+371378813+370638581+369776528+369087420+368561678+368044716+367509985
2758+366957692+366312662+365582599+364931808+364501059+364235480+363956019
2748+363586320+363203050+362826375+362325275+361594830+360665202+359649293
2738+358722164+358055199+357676371+357468580+357280329+356975879+356528297
2728+356139058+356052707+356188585+356156516+355674921+354814637+353853079
2718+353062592+352613448+352495097+352500372+352384277+352040122+351510875
2708+350920855+350391295+349929657+349457121+348988229+348597358+348175668
2698+347505371+346633391+345888023+345461091+345193327+344835254+344359143
2688+343938771+343732265+343734902+343762946+343562027+343039304+342360608
2678+341713912+341128230+340639070+340377517+340362628+340432424+340416597
2668+340206412+339769415+339226667+338748543+338350175+337950697+337526959
2658+337078822+336621244+336236170+335944839+335630254+335233518+334823836
2648+334385660+333801888+333110107+332528972+332188011+332024575+331975846
2638+332096453+332394587+332665093+332641736+332286579+331778398+331255502
2628+330755998+330356381+330117458+329892661+329432376+328726400+328050064
2618+327614213+327341590+327054944+326738104+326491718+326339979+326209793
2608+326030982+325774636+325469388+325209988+325048635+324885997+324593764
2598+324190191+323783181+323416987+323049822+322642118+322270163+322097495
2588+322109261+322001287+321578868+321109004+320976042+321130731+321165299
2578+320840962+320301580+319824150+319553921+319465210+319453062+319427726
2568+319338598+319121367+318695165+318077275+317438944+316994416+316880334
2558+317083301+317385391+317494718+317337877+317083266+316837852+316529515
2548+316135590+315814030+315727505+315840129+315953309+315933561+315831071
2538+315718898+315528182+315159385+314662277+314203484+313931346+313901533
2528+314046018+314204178+314231493+314052439+313645360+313110768+312712678
2518+312660305+312863654+313060963+313124928+313094803+313029554+312998525
2508+313074534+313192364+313137319+312778379+312238684+311786486+311592439
2498+311638287+311848890+312171873+312458970+312486354+312226537+311893731
2488+311655120+311523129+311494496+311531251+311467078+311166619+310738716
2478+310443185+310390604+310414378+310276244+309952844+309643084+309526746
2468+309615770+309801105+309939413+309903005+309623023+309147606+308680519
2458+308492962+308702385+309139728+309481731+309516785+309277619+308951755
2448+308720779+308692979+308896501+309232847+309485549+309482946+309239615
2438+308899278+308599443+308429726+308435973+308585942+308766037+308871304
2428+308880189+308813482+308672745+308477032+308303219+308219401+308208746
2418+308198855+308156616+308150994+308298256+308605552+308909065+309037377
2408+308996492+308929126+308936726+309016379+309126366+309220908+309249194
2398+309223580+309252734+309413358+309647839+309864203+310032844+310102952
2388+309949165+309482460+308701447+307566874+305908399+303519583+300345035
2378+296588345+292626398+288756980+285032603+281416286+278021348+275004855
2368+272331373+269934956+267992924+266751054+266288669+266708486+268353217
2358+271648130+276723392+283271794+290877007+299046957+306585776+311710027
2348+313209787+311387980+308105701+305433607+303869013+302633582+301207921
2338+299704655+298350005+297186798+296208546+295528184+295266771+295350831
2328+295507533+295411534+294920950+294319095+294190332+294894919+296243600
2318+297689356+298714637+299143269+299267728+299603172+300396574+301471521
2308+302594710+303747782+304899257+305779705+306123201+305985205+305658092
2298+305405563+305360583+305523220+305767141+305911939+305836555+305593988
2288+305460539+305707029+306204762+306465794+306208198+305641849+305081365
2278+304587137+304138687+303843469+303774610+303813170+303789673+303630993
2268+303331158+302963437+302745616+302907247+303432954+304035607+304408083
2258+304442790+304222678+303892545+303576954+303367913+303313111+303387349
2248+303498377+303552208+303536138+303528746+303600034+303709430+303742957
2238+303635817+303417197+303184452+303081060+303200868+303450412+303618914
2228+303630854+303592225+303583305+303591531+303637205+303767842+303927113
2218+303976362+303842567+303590385+303390160+303403766+303632971+303902957
2208+304044909+304051121+304038071+304116405+304292439+304450530+304458061
2198+304325584+304211502+304217923+304239199+304109984+303861482+303698081
2188+303733205+303881924+304010896+304075867+304101793+304107937+304090201
2178+304054592+304044076+304107138+304218340+304257767+304142366+303991113
2168+304035850+304311667+304588872+304677653+304622885+304538790+304462538
2158+304434565+304540699+304807908+305154423+305462760+305647818+305676243
2148+305579827+305472860+305516765+305796330+306217326+306565646+306690036
2138+306623155+306531737+306552561+306671954+306768161+306768613+306749558
2128+306845558+307070946+307326841+307613694+308087688+308820388+309645930
2118+310323064+310737050+310917110+310975799+311049170+311229924+311536179
2108+311911432+312242051+312445226+312561321+312712782+312994951+313432468
2098+313965186+314445531+314736237+314848758+314930146+315098926+315336530
2088+315550985+315703488+315834472+315989057+316170991+316369967+316580014
2078+316772083+316900672+316975848+317076984+317231048+317376297+317542058
2068+317899784+318464467+318938357+319065732+318940058+318760969+318557690
2058+318335183+318223114+318305509+318499382+318690410+318837706+318940162
2048+319044977+319277583+319734918+320311437+320712303+320733613+320493440
2038+320268469+320166639+320114509+320069043+320052349+320052036+320048080
2028+320085494+320229806+320479939+320770090+321106991+321681115+322612860
2018+323522983+323746808+323182021+322478891+322216749+322366857+322635801
2008+322883506+323100425+323303877+323554531+323922009+324396871+324859412
1998+325206517+325642715+326665531+328376206+329961658+330430099+329777052
1988+328800951+328065856+327635905+327451090+327473615+327632087+327849735
1978+328043643+328101674+327970377+327746031+327702959+328229153+329447022
1968+330765577+331225654+330567539+329497521+328740457+328408657+328347295
1958+328507052+328797758+328983024+328915415+328712622+328645984+328918226
1948+329608237+330859078+332786221+334772470+335368494+333896395+331569809
1938+329992062+329491309+329487907+329582206+329754978+329993728+330187983
1928+330421561+331202157+332891939+334848513+336053680+336676047+337497250
1918+337971973+336837469+334540245+332943756+333029413+334188906+335140434
1908+335083688+334258563+333497646+333282115+333424969+333589064+333840170
1898+334544792+335696302+336687188+337275750+338189863+339752895+340720978
1888+339900643+338070506+336731578+336266330+336277228+336506607+336834658
1878+337115889+337339472+337742282+338968134+341981225+346956861+351834691
1868+353206661+350283912+345964205+343088623+342192487+342339818+342580303
1858+342574959+342474030+342525432+342818220+343478973+344842994+347179298
1848+350616613+355127591+359444278+360626816+357567079+353206036+350592943
1838+350076745+350406913+350961636+352648016+356452983+361259526+364120218
1828+364019394+362914114+361836912+359833032+356941415+354913657+354710482
1818+355451026+355949072+356375239+357784935+360286202+362440259+362862887
1808+361881684+361027093+361721337+364555688+368682285+371909831+372628370
1798+371723315+371682916+374351887+379323566+383026945+381558942+376384053
1788+372382332+371839132+373533946+375523145+377280085+378762561+379482663
1778+379827790+381628633+386411679+393393416+398883514+399517160+396236929
1768+391687149+387550383+385633791+387177594+390610779+392722772+392997062
1758+393109929+393246085+393348679+395473929+401367531+408902706+413057867
1748+411976257+408643410+406187505+405638475+406725568+408368842+409249013
1738+410123769+414008562+421707520+427604245+425482257+418614845+412344256
1728+408080045+406092130+406397136+408080323+410894196+416659937+426917774
1718+438742947+444276325+440164409+431932282+425145147+421973341+423009207
1708+427874508+434465791+439856314+444104108+450314446+459064853+465477499
1698+466088898+462627704+456050339+448286931+443741281+444268793+448251946
1688+454314432+463661661+475902590+483097809+479038197+470578878+465279322
1678+465228233+469344418+474412582+477891685+481091222+485453411+487909385
1668+485060562+480364839+479175359+481854117+484403731+483986552+482878253
1658+485169403+493467369+508380809+524522252+528459939+521948032+519414453
1648+523393961+526262949+521202177+512598026+507405957+507613957+513047898
1638+522978796+533607756+536647259+529843500+521949351+519364961+521912145
1628+526355895+530332939+533902315+536705775+537111049+536225395+537823550
1618+542947523+547115040+545502169+540802143+537999445+538209978+539907534
1608+541558340+542951931+544591977+546494409+548043488+548885932+549527283
1598+550761222+552735532+554828193+556433532+557634499+558840048+560051289
1588+560973663+561684082+562637519+564030347+565776562+568396873+573237255
1578+580712283+587525760+588465904+585332206+584831106+588952705+593589079
1568+594104132+591727602+590269629+592014768+599173094+614282871+633884502
1558+641448276+632117984+620785234+614583781+613071318+614113154+615829347
1548+618463264+624347564+634847623+648684415+663487729+674942231+674952643
1538+664993806+657390536+657439057+661906060+665050032+666078262+668989280
1528+675623252+684013123+692204053+701012490+710576638+717560943+720207493
1518+720904064+720637514+718832331+717345204+719525917+727234349+740341877
1508+755265417+761174012+751420085+738151725+731870029+733299195+739423182
1498+745455057+746820293+744060806+742747075+746884015+755463525+762859733
1488+763884076+760025764+756161136+754747032+755439993+757194434+760085877
1478+765185034+772859107+781742512+788766105+790220816+785928666+780986939
1468+780091914+783812300+788821081+791262374+792237988+796318564+805569863
1458+816247205+819500226+813144951+805121865+800461543+799267482+799831610
1448+799995288+798629983+796358755+794238502+792987452+793710261+797630698
1438+804144445+809500782+810149109+807813187+806161271+806021263+805965384
1428+805283461+805208216+806709434+809000445+811398632+814594803+817770913
1418+817110716+811613885+805477820+802146569+801644359+802096314+802025511
1408+801640818+801833304+802462126+802983148+804307985+807815616+812887633
1398+817264537+819602334+819848337+818177263+815758738+814656720+815704595
1388+817590575+818319562+817762514+817919043+820550808+825597072+831628113
1378+837593281+843694222+849773507+853940503+854936386+854414046+854387391
1368+855142754+856931972+860569963+865040576+867200812+865679672+862576863
1358+860123908+858773319+858205164+858021564+857711006+856975772+856074500
1348+855442554+855161635+855256524+856250950+858724243+862228057+865026555
1338+865422909+863398239+860519568+858452140+857798606+858070223+858499619
1328+858749163+858892433+859153361+859857428+861238212+863138978+865096316
1318+866911147+868939912+871494488+874042540+875437416+875285468+874627631
1308+874819283+876155365+877953953+879565262+880764390+881492266+881857801
1298+882259361+882927957+883407609+882996539+881727302+880326249+879069021
1288+877362407+874793045+871941307+869649393+868010665+866595313+865348497
1278+864613610+864284449+863810420+863341389+863830897+865494336+867155415
1268+867623057+866885463+865662249+864651927+864302635+864707736+865774977
1258+867436333+869291355+870560175+871075783+871672327+873055541+875074172
1248+877310416+879498416+881315122+882651273+884088422+886453498+889950857
1238+893956465+897349494+899048334+898868482+897972069+897852191+898909020
1228+900665890+902916919+905730480+908730209+911217870+912940519+914282154
1218+915777472+917580850+919175846+919830074+919736365+920258845+922587617
1208+926512844+930807979+934479497+937436050+940080727+942337309+943632159
1198+944091680+944816571+946646395+949381101+952261438+954583686+955977243
1188+956784181+958090207+960964921+965622467+970913554+974428752+974271113
1178+971348364+968587350+967739665+968219178+968785666+969191044+969826530
1168+971034474+973195681+976513396+980543021+984368500+987118894+988138795
1158+987508793+986736978+987738831+990621736+993499296+995019326+995849726
1148+997077522+998457682+999038470+998807876+999074843+1001141785+1004861824
1138+1008446922+1009696931+1007984972+1004932280+1002986603+1003675538
1130+1006957782+1011664126+1016193671+1019201175+1020518446+1021358772
1121+1022882064+1024820383+1025855069+1025575052+1025697291+1028083469
1113+1031811976+1033659570+1032008210+1029110103+1027990940+1029127109
1104+1031630250+1035246862+1039552061+1042916353+1044222795+1044137555
1095+1043933269+1044032601+1043969365+1043426130+1043220179+1044892641
1087+1048548541+1051801562+1052878105+1053385522+1055658972+1058746371
1078+1059355132+1056549485+1052985142+1051679394+1053945277+1059771270
1070+1066455845+1068816478+1065805573+1062293083+1062421707+1065673062
1061+1068754561+1068723463+1064922488+1060265359+1059058873+1061657458
1053+1063621876+1062215270+1060059268+1059844501+1060209342+1059409553
1044+1059416078+1062828612+1068364176+1072297594+1073376844+1073459099
1035+1073741823+1073524557+1072777870+1072656465+1072749618+1070507752
1027+1064276451+1055893105+1049832771+1049870949+1055677991+1062349586
1018+1064938384+1063192134+1060016024+1057668648+1056788963+1056941883
1010+1057442775+1057947901+1057886886+1055905808+1051326007+1046180966
1001+1043626945+1044520235+1047442984+1051032802+1054745760+1057867172
993+1059053597+1057475816+1053926397+1050435285+1049102049+1050509419
984+1052485222+1051625667+1047175462+1041993910+1038912550+1037729803
975+1036339856+1033979916+1032333415+1033190887+1035932395+1038330027
967+1039044436+1037873837+1034845996+1030917159+1028148440+1027427853
958+1027059056+1024545572+1019628557+1015140382+1013762305+1014141236
950+1012104836+1005950584+998485448+993263497+990993865+990430778+990576964
940+990713987+989710676+987093696+984281385+983124878+983464451+983133277
930+980302085+975687854+972170227+971865985+974018029+976310151+977550650
920+977899178+977150964+974541828+970244194+965809815+963265928+964002273
910+967596256+971479973+972709921+970709477+968112627+968124150+970830952
900+972941556+971892154+968824677+966354993+965128724+963729892+961212105
890+958704799+958378414+961130196+965456845+968520921+968233546+964630540
880+959945159+957043721+956955357+958018780+957680872+955429566+953634726
870+954568554+957371147+959262403+958787055+956301129+952918859+950635275
860+950951595+952408388+951845023+948352871+944239462+942503069+944205033
850+947875718+951218631+952918581+952669107+950873851+948850500+947981228
840+948395283+949207566+949714914+950017837+950868784+952499528+953527343
830+952632318+951097920+951494829+954508302+958519533+961384738+961711886
820+959369856+955558607+951641779+948449009+946866785+948048976+952229785
810+957141733+959441630+958777337+957655328+957342132+956912459+956365059
800+957396622+960047129+961746246+960926674+958981970+958146294+959036737
790+960614727+962091651+963806109+965689729+965980990+963239968+959238177
780+957357680+958587559+961196556+963468895+964834617+964810739+963089200
770+960452784+958192246+956915513+956217763+954701898+950733287+944969629
760+941263126+943174928+950323744+958786500+964303252+965246173+962898797
750+959164598+955771777+954768952+957364136+962347719+967284934+970651655
740+971139705+967619163+962843544+962073950+965655161+968749154+969074706
730+969109413+970290563+970986508+970239405+969036667+967560438+964863077
720+962229646+962846598+966301059+967538295+963900928+959487096+959602532
710+964245847+969114827+971453596+972582546+974343095+975262415+972301003
700+965969190+960240308+957551276+957152076+957501298+957457984+955903525
690+952393880+947802764+942976057+937784509+932620588+928939282+927198794
680+925813359+923445853+920712882+918727501+917569119+916154946+912622464
670+906612941+904348445+913896004+928386955+934151099+927856145+915868613
660+905900752+901277567+901843083+906013481+910966799+912909422+910079688
650+906069151+905192521+906548524+906783352+905474619+903898295+901551614
640+897159647+890475627+882226667+874664837+871214541+873475219+879227493
630+884891196+889053055+891530513+891465194+889149471+886519580+884025672
620+880081564+873997490+866974244+861401196+859184458+859987926+861700996
610+862862779+864305828+866962582+870294597+874533159+881449993+891024206
600+900538168
##END=
