##TITLE=<SNM>
##JCAMP-DX=4.24
##DATA TYPE=INFRARED SPECTRUM
##DATE=2/5/2025
##SAMPLING PROCEDURE=Instrument type and / or accessory
##ORIGIN=Admin
##XUNITS=1/CM
##YUNITS=ABSORBANCE
##RESOLUTION=4
##FIRSTX=4497.3318
##LASTX=599.83466
##DELTAX=-1.4281778
##MAXY=1.7250688
##MINY=0.19026676
##XFACTOR=1
##YFACTOR=1.6065955e-09
##NPOINTS=2730
##FIRSTY=0.20982717
##XYDATA=(X++(Y..Y))
4497+130603607+131193505+131875987+132215350+132091798+131726539+131222722
4487+130385171+129282940+128631112+129117901+130494208+131706635+131907086
4477+131112191+130023465+129508814+130083502+131469279+132702964+133037337
4467+132664297+132365280+132702046+133682292+134866384+135606287+135506785
4457+134828996+134158906+133603389+132717155+131384227+130198234+129690038
4447+129787964+130328668+131332732+132414975+132711311+131851974+130479563
4437+129511235+129277997+129449844+129458164+128985093+128207987+127558793
4427+127306365+127397158+127536431+127402324+126923679+126343167+125950519
4417+125792204+125663569+125439476+125363069+125709610+126128451+125818350
4407+124609225+123367415+123010198+123561476+124417687+125121288+125563928
4397+125669320+125231012+124157413+122790325+121795592+121580495+121984755
4387+122704365+123633450+124490385+124720590+124197944+123352928+122354577
4377+121024673+119630530+118852265+118997187+119872227+121099809+122156148
4367+122608563+122539464+122329219+122114150+121819410+121486233+121191548
4357+120842929+120397563+120133633+120323140+120736758+120972362+121141148
4347+121567788+122041212+122111442+121848876+121593350+121295929+120725452
4337+119957742+119228097+118671932+118428537+118591295+118932754+119105677
4327+119180266+119471937+119851460+119879155+119618371+119644554+120144114
4317+120621034+120691376+120538960+120383353+120078911+119578692+119321728
4307+119667927+120308282+120739179+121031249+121627742+122577779+123381968
4297+123560409+123211373+122961875+123318397+124056835+124431118+124062186
4287+123277411+122488137+121790036+121341664+121454411+122024610+122536784
4277+122751120+122730696+122400970+121832766+121533712+121771226+122157057
4267+122355291+122570703+123013092+123419587+123416025+123099767+122957507
4257+123230025+123710163+124201358+124685215+125058960+125291735+125595639
4247+125896761+125697479+124996707+124581948+124903595+125418821+125476103
4237+125155198+124855931+124610839+124219295+123736699+123436653+123429558
4227+123618869+123921995+124240470+124314466+123998180+123671338+123929767
4217+124724829+125310637+125309302+125303792+125977482+127108001+127818391
4207+127614406+126901781+126475845+126664248+127107463+127292221+127083849
4197+126755653+126650939+126825578+127070539+127282677+127561845+127947917
4187+128434260+129121778+129900571+130198438+129605163+128590942+128123344
4177+128625844+129604541+130332035+130722901+131275979+132179354+132915324
4167+132956301+132448208+131886013+131469195+131169168+131130686+131512908
4157+132059335+132251198+131942813+131563837+131554163+131734228+131483033
4147+130626571+129793306+129673770+130281263+131081148+131516451+131350596
4137+130807712+130388798+130327471+130333992+130078809+129749139+129858240
4127+130578564+131484972+131966567+131758176+131118786+130619828+130619671
4117+130848448+130770000+130373948+130215003+130654600+131466709+132181793
4107+132493266+132384414+132157678+132285673+132962385+133801049+134192574
4097+133972089+133549196+133357658+133373277+133254733+132838119+132348975
4087+132101147+132150583+132393597+132863356+133639942+134500801+134997634
4077+135025274+135018392+135381294+135989743+136436974+136489934+136112961
4067+135369116+134515882+133958232+133939061+134312398+134641632+134573498
4057+134173727+133794946+133613397+133529922+133541247+133857617+134489383
4047+135007160+134977990+134502841+134036392+133781442+133629879+133574860
4037+133697902+133811465+133583847+133047187+132661217+132825607+133493082
4027+134255625+134716045+134819258+134870891+135190498+135771335+136340403
4017+136702248+136823166+136610388+135988862+135213528+134741719+134796515
4007+135243319+135758870+136041655+136069647+136135277+136422106+136711170
3997+136708230+136421791+136035552+135676990+135462079+135486807+135681489
3987+135894554+136095450+136294835+136387872+136298647+136201510+136440387
3977+137193210+138176267+138747356+138521083+137833611+137361273+137400989
3967+137797235+138412009+139246610+140110604+140616935+140669960+140625264
3957+140772439+140949276+140892884+140855172+141589640+143429168+145487919
3947+146520310+146588054+146677354+146841568+146178146+144555959+142934607
3937+142271667+143182472+145792955+149011675+150736322+150032712+148515898
3927+148410451+150021489+151662430+151967642+151694281+152417266+154187445
3917+155157424+153549808+149832780+146232024+144423141+144617350+146738736
3907+151331805+158351629+165631570+170139680+171041562+169165676+164703923
3897+158647334+154093230+153744861+157103382+160247753+160010536+158620325
3887+159851692+163323637+165828571+166824743+167729091+166992898+162927317
3878+158867560+158925120+162894706+168106825+172935367+175954099+175289101
3868+172347630+170715453+170842001+169977257+166791353+163395054+162628013
3858+166326917+175349666+187712786+194475405+187972745+175445421+165696644
3848+161301002+161938751+166085155+171790036+177890996+184069439+189026218
3838+190135859+186889612+182050811+177813512+174384826+171755588+170450319
3828+170455939+171494367+174812551+181948638+190186760+192884039+189595943
3818+186207047+183750120+179043488+172711079+168751010+169504121+174658234
3808+181210311+185428170+187942342+191816117+195638916+195051011+191151879
3798+188060375+185759565+182633095+179732082+179046585+180706160+183822984
3788+188047502+193041046+197762147+201875903+206606112+212529549+218034554
3778+221744514+224944052+230070210+238894012+251774268+266384421+278624554
3768+287162407+293801336+299697597+305898096+314688655+326750894+339074465
3758+348712295+357645300+370542993+390174553+414756325+436813926+450962556
3748+462061123+475658596+489183872+495193325+495264260+498143812+507795628
3738+522458056+537133913+546999277+550534904+549636677+547845676+547990811
3728+550737878+554378832+556120824+554932178+551539572+546417550+540369179
3718+535452691+534049830+537736454+545846544+553498710+554528902+549577688
3708+544511984+543304528+546848985+553230403+558026650+558479418+556991746
3698+557196130+560254577+565882197+573804228+583608192+593410003+598939197
3688+597258420+591251156+585686495+583251475+584739778+589825516+598113129
3678+608558106+615988229+614523040+608798217+606567693+605727305+598813206
3668+586136777+574525192+567741907+565694063+566827059+569747383+573580441
3658+576906379+578286943+579334090+583953147+593576211+604400350+608128006
3648+600866133+589335870+581027110+577681138+577272185+577475158+577901994
3638+579547043+582616917+586002364+589353010+594410182+602175947+608688439
3628+608464318+603857318+600802877+602513075+609740149+619980260+627660918
3618+630271643+631553669+634403615+637178544+638405588+640025596+643501195
3608+646556155+646992005+646706261+648618394+652431677+655640082+657790916
3598+660873849+665105323+667841446+668021752+668669814+673132792+680974538
3588+687398175+687349352+681391616+674083813+668938269+666892058+666237169
3578+664730836+662969923+663484797+666825946+671595740+677582191+684954178
3568+690618230+690481480+685996093+681784134+679367368+677627008+675737284
3558+673788497+672482801+672902475+675030678+676981172+677255415+676663967
3548+676481064+676154881+674375864+671521095+669357054+668827860+668883881
3538+667868826+666112216+665308334+665411843+665183901+665105397+666583831
3528+669128221+670770860+670640193+669511019+668609415+668590420+669064261
3518+668965352+667461542+664673034+661910126+660527187+660127695+659234847
3508+657938945+658407814+661800977+665844800+666840192+663713332+658885142
3498+655267599+653696192+653350346+653554767+654391223+655702188+656395734
3488+655492128+653810312+653296180+654087968+653967170+651811959+649691473
3478+649999774+652243877+653815135+652963171+650335825+647850647+646792036
3468+647391794+649460489+652288842+654509572+655360423+655542732+655353596
3458+653797327+651042728+649076949+648921278+649355347+649094683+648311280
3448+647417616+646019170+643715781+641239952+640317721+641952271+644630073
3438+645323174+643074694+640270826+639265417+639461824+638753215+636339343
3428+633249286+631079754+630759285+631956278+633616427+635057761+636381414
3418+637976935+639777248+640930315+640447051+638492699+636517645+635900895
3408+636913205+638644067+639472954+638050393+634467427+630561393+628880913
3398+630747042+634788193+637875801+637982129+635454063+631796748+628578623
3388+626918176+626900294+627888786+629311273+630346956+629936927+628455228
3378+627677168+627847753+627115771+624812679+622350057+620848955+620521325
3368+621768738+624703382+628122219+630599235+631829099+632305537+632545203
3358+632835325+633060522+632725360+631569400+629979072+628729619+628482088
3348+629307266+630425162+630741328+629959409+628886404+628365298+628310612
3338+628400246+628959713+630196181+631192538+630820500+629373156+628322633
3328+628601031+629499963+629239967+627086610+624797468+624851114+627454494
3318+630384427+631660814+631179330+629639979+627698018+626371916+626887606
3308+629408846+632377066+633927399+633773806+633135092+633086937+633689885
3298+634692401+636283618+638379470+639624767+638337918+634862764+631794077
3288+631160038+632311547+633081668+632422550+631200848+630613185+630778873
3278+630939145+630454991+629689099+629952805+632034633+634807114+636132028
3268+635088628+632681063+630776722+630508786+631133030+630664902+628298740
3258+625620939+624702418+625729716+627277007+628477414+629820433+631726407
3248+633407109+633722237+632631497+631153138+630133631+629456705+628646812
3238+627917946+627821486+628134536+628256595+628424880+629095203+629518810
3228+628581442+626599413+624801772+623765866+623158391+622443252+621595295
3218+621265328+621949711+623120104+623846076+623937045+623616279+622596995
3208+620546924+618001718+616007706+615167392+615283515+615751048+616092851
3198+616073410+615551710+614430623+612808242+611148575+610085215+609814126
3188+609868440+609695443+609117203+608315584+607658803+607161330+606160002
3178+604403318+603206325+603980267+605784884+606037349+603796325+600747339
3168+598671484+597596512+596664264+595527113+594449136+593672189+593106785
3158+592559858+592092287+591931124+592086499+592344938+592480278+592138068
3148+590856635+588789091+587038343+586478468+586713459+586750856+586184821
3138+585264816+584219414+583087531+582059787+581490637+581392247+581258799
3128+580706751+579996361+579691882+579962526+580303586+579917487+578539631
3118+576822273+575603391+575026486+574718037+574457187+574252581+573929885
3108+573057331+571618298+570420340+570184421+570553417+570736765+570656704
3098+570537613+569899493+568022977+565268860+563032252+562277750+562599406
3088+562894685+562653572+562018903+560970235+559451103+558022123+557420251
3078+557657357+558279226+559098876+559972877+560403274+560076163+559292723
3068+558335358+557116216+555831556+554986122+554474402+553610343+552280198
3058+551119489+550456661+550003893+549573236+549266642+548926992+548146742
3048+546937024+545863017+545433547+545582615+545755204+545378973+544256811
3038+542570839+540589367+538639467+537366085+537381630+538309834+538806120
3028+538054549+536683631+535764368+535531454+535416778+534850039+533763604
3018+532510367+531506256+530956249+530764182+530575121+530024335+529145622
3008+528380324+528038188+528029135+528092243+527859255+526851286+524943346
2998+522717422+520975689+520094268+520052011+520692171+521623826+522089950
2988+521269076+518940793+515925493+513584930+512613022+512467590+512226515
2978+511776975+511679995+511986070+511844385+510596676+508811129+507618921
2968+507288546+507148234+506738279+506206934+505560207+504440307+502901363
2958+501670609+501262435+501262843+500856265+499834791+498670446+497726400
2948+496876032+495923156+495025300+494503748+494354792+494173225+493729694
2938+493363481+493442318+493743792+493701869+492971668+491649685+490263444
2928+489419828+489167660+488993327+488457269+487434831+486017946+484600245
2918+483685731+483290839+482889900+482120075+481241214+480754314+480683564
2908+480480257+479765118+478730325+477602894+476450977+475717993+475980216
2898+476891094+477220245+476255015+474600839+473429333+473259156+473531729
2888+473315807+472343454+471105836+470023333+468959418+467598739+465989120
2878+464574832+463768538+463515554+463300782+462698315+461898959+461449901
2868+461476317+461515160+461147017+460439113+459727424+459230989+458909444
2858+458552913+457965176+457087279+456021508+455039954+454442274+454189549
2848+453819922+452952487+451713423+450469609+449364735+448347676+447500461
2838+447000205+446728188+446285103+445582282+445041921+444909437+444756288
2828+444055470+442957051+442054075+441520874+440916367+439856309+438537331
2818+437461469+436815448+436258243+435365061+434220527+433360810+433060300
2808+432934531+432454457+431612214+430781286+430147136+429627811+429188176
2798+428840846+428400544+427593434+426374960+424920418+423464838+422275747
2788+421528479+421134552+420899895+420768820+420672843+420318464+419458338
2778+418287092+417276192+416585502+415869102+414808859+413607636+412698167
2768+412156100+411677918+411032861+410324252+409783037+409381875+408812910
2758+407941246+407020685+406267852+405520733+404526565+403339663+402297154
2748+401692461+401472310+401235316+400609810+399588077+398431931+397370426
2738+396471049+395697774+395003448+394381022+393824931+393277038+392683661
2728+392080898+391564504+391185527+390847881+390321024+389467354+388445621
2718+387555963+386911537+386340865+385530528+384281965+382806462+381653432
2708+381096673+380767819+380190655+379449175+378979007+378915084+378964352
2698+378776923+378213672+377350541+376399038+375589294+374987681+374402280
2688+373588307+372591579+371751191+371311964+371155328+370929575+370373224
2678+369527419+368656757+367964434+367438394+366949490+366380451+365701113
2668+365027600+364533243+364253992+364084297+363935118+363749247+363398986
2658+362744765+361842123+360972982+360363912+359955033+359585035+359262376
2648+359010616+358638874+357978606+357152687+356372586+355714432+355236288
2638+354996437+354827409+354375531+353495260+352454013+351663412+351259616
2628+350965117+350391774+349485941+348613684+348191968+348270360+348479901
2618+348345970+347642740+346517016+345372704+344627774+344448396+344625400
2608+344735921+344478373+343866038+343111313+342388606+341750041+341213575
2598+340829479+340625615+340524221+340363392+340044258+339649812+339353272
2588+339215185+339156159+339100250+339007760+338798998+338396129+337816146
2578+337127310+336399780+335765111+335377416+335212284+335025634+334590155
2568+333900429+333118918+332411979+331881634+331590177+331538163+331590697
2558+331550925+331388205+331253606+331195062+331058757+330748564+330350259
2548+329946463+329544967+329199195+328971661+328797625+328563562+328270657
2538+327988698+327713638+327383115+326992378+326603125+326252048+325945083
2528+325737286+325672213+325627618+325433178+325168581+325077352+325168172
2518+325201785+325105659+325101430+325359794+325752757+325988675+325855486
2508+325345473+324644172+323988839+323500529+323154312+322863485+322542311
2498+322148272+321742027+321454540+321332369+321266220+321125574+320915997
2488+320737212+320600424+320378826+320001556+319611005+319395788+319319993
2478+319168143+318831015+318412825+318078034+317890568+317784611+317657840
2468+317508772+317424593+317396656+317256827+316866164+316277350+315687869
2458+315329669+315343396+315614300+315817088+315764258+315587810+315460223
2448+315324994+315043665+314637643+314252397+313999338+313912264+313953000
2438+313986242+313833649+313466174+313102520+312988364+313104190+313221166
2428+313201689+313092540+312960094+312784722+312531070+312261650+312127088
2418+312178286+312223511+312026733+311650984+311415028+311474054+311636441
2408+311669942+311610211+311630171+311749856+311852993+311876366+311804467
2398+311582312+311216747+310897818+310859345+311122347+311457508+311607169
2388+311487522+311145219+310590240+309731877+308446344+306695374+304603047
2378+302370000+300102747+297846234+295775276+294153507+293082913+292456480
2368+292114474+291890279+291588452+291152286+290869362+291173526+292211027
2358+293944449+296625330+300661083+306129859+312625823+319164915+324332310
2348+327022503+327279086+326487596+326102535+325952095+324836425+322334625
2338+319051315+315657447+312303721+308910743+305676424+302997917+301033696
2328+299648884+298632790+297761961+296909163+296238080+296069424+296502139
2318+297277528+297957515+298212503+298054624+297818075+297877064+298402882
2308+299324482+300389029+301287423+301838636+302061347+302064593+301955760
2298+301852437+301865329+302053166+302431846+302949242+303427423+303678702
2288+303702612+303630917+303538612+303455545+303431820+303443117+303366617
2278+303159766+302948537+302880551+302968849+303100573+303151325+303056887
2268+302789898+302380870+302015566+301956521+302252987+302649474+302874411
2258+302904128+302880255+302895744+302953787+303031029+303062063+302947832
2248+302712544+302572974+302726123+303133035+303597768+303985240+304304096
2238+304643727+305065257+305526447+305924084+306235910+306579103+307082141
2228+307744524+308474726+309215037+309948207+310628453+311227302+311833590
2218+312606679+313629525+314874489+316292153+317863708+319565632+321333074
2208+323080483+324773169+326487002+328339738+330323213+332304648+334241526
2198+336224186+338276927+340330930+342361226+344332125+346136593+347797039
2188+349522930+351400819+353226397+354748535+355940779+356953720+357843711
2178+358481014+358820330+359059811+359330752+359463347+359260262+358781412
2168+358210333+357586571+356753120+355540211+353949846+352084757+350013874
2158+347848423+345749751+343722646+341572926+339094240+336238506+333193527
2148+330186908+327223177+324527716+323158133+324259743+327704697+332267103
2138+336996051+341678178+346299350+350865763+355526558+360383909+365307779
2128+370061287+374551571+378995924+383778890+389068195+394724753+400574788
2118+406543913+412589687+418674342+424737144+430755464+437029069+444223198
2108+452941580+463581703+476757015+493322745+513619841+536938322+561670943
2098+585583134+606363717+622852762+635520546+645335640+652749104+657685700
2088+659784297+658751360+654416228+646237466+633668813+617104196+597464103
2078+575526483+552341710+529106333+506519760+485163311+465823431+448849416
2068+434034397+421191500+410145578+400592225+392457908+385794234+380298245
2058+375580984+371571182+368208515+365297280+362799562+360762699+359150520
2048+358030769+357552847+357745693+358668554+360562730+363816212+369128742
2038+377479018+389602212+405809705+426270560+450803323+478355949+507175280
2028+535351890+561061353+582959016+600686643+614723899+625872625+634845178
2018+641889498+646791962+649318693+649505306+647569874+643588157+637238126
2008+628049948+615987561+601688305+586120750+570019957+553595318+536738836
1998+519513839+502469631+486359637+471402599+457083977+442975712+429392189
1988+416940437+405942671+396452758+388319889+381193801+374795948+369103960
1978+364143286+359813756+355964078+352494452+349498147+347291997+345948162
1968+344809416+342974117+340339982+337642035+335496210+333958750+332877732
1958+332116514+331439292+330598569+329591490+328636908+327945513+327593546
1948+327604490+328158430+329440011+330911396+331231903+329763078+327542979
1938+325916108+325164425+324886213+324776842+324700082+324548306+324300070
1928+324182129+324726646+326196361+327863485+328770802+329217634+329985158
1918+330395261+329112530+326658701+324985084+325053496+326167646+327023505
1908+326911055+326125426+325409842+325133929+325130998+325165204+325322471
1898+325884944+326802574+327576146+328113576+329119171+330748639+331709639
1888+330950166+329309642+328144629+327700060+327589502+327634504+327782607
1878+327931230+328042975+328291508+329342884+332225588+337052702+341612326
1868+342504654+339138426+334528569+331490638+330519917+330670654+330977137
1858+331054713+330993721+331010676+331205154+331684745+332703028+334565780
1848+337676093+342181365+346536085+347448596+344034954+339633376+337227629
1838+336889017+337236050+337689189+339295655+343164143+348085825+350862016
1828+350442267+348979192+347628049+345505114+342685146+340737175+340381794
1818+340856191+341375628+342186485+343956895+346503437+348503793+348802856
1808+347768175+346856592+347399735+349932550+353746576+356906491+357765244
1798+356952087+356985514+359857126+364957852+368463095+366814224+361879408
1788+358247692+357798375+359393747+361427827+363377691+364927764+365543995
1778+365849513+367888342+373239456+380885018+386482068+386268594+381865347
1768+376855442+373121293+372005177+374198008+377855249+379876603+380121908
1758+380529860+381279502+382105644+384806967+391000399+398656756+403029099
1748+402325535+399313723+397090581+396916694+398626112+400920782+402259683
1738+403518151+407922325+416256611+422775929+421270115+415026821+409308751
1728+405490274+403905252+404655005+406928046+410637116+417664221+429373491
1718+442511666+449012805+445630066+438133424+432348463+430604245+433382439
1708+439980817+448034775+454722861+460577867+469103106+480764071+489831601
1698+492177395+489976550+484693218+478272808+475095196+477163927+483074509
1688+491637108+504104293+519673517+529190958+526023363+518398280+514793759
1678+517264839+524328599+532214123+537999455+543201279+549682829+554466833
1668+554007053+551853437+553641433+559710098+565452246+567264839+567429155
1658+570685567+580171250+596472569+613405106+616913353+609898714+607479054
1648+611575224+613735741+607207742+597350540+591631134+592014006+598172118
1638+609062369+620215362+622725880+614849890+606119822+602816589+604452587
1628+608057702+611915134+616169276+619698114+620134224+618860211+620329482
1618+625649061+630048152+628877203+625187760+623824707+625523885+628354836
1608+630254280+630606507+630253538+630222003+630627654+630943226+631106763
1598+631751560+633235114+635003002+636227226+636727408+636859781+636855255
1588+636739354+636703293+637110280+638089793+639619796+642404668+647953488
1578+656384159+663317402+662919912+658374795+657569503+662029291+666737128
1568+667203920+665508377+665374001+668351200+676437806+692514039+713111200
1558+721309254+712801118+703052656+698904360+699619722+703380768+708506648
1548+714456667+722683734+734758067+750203749+766798862+779347036+779035842
1538+768092093+759658231+758833054+761662075+761984622+759686575+759705348
1528+764131597+770874739+777934641+785946527+794264415+798635162+797573287
1518+794657155+791771148+788520375+786090401+787074441+793312355+805189317
1508+819662460+825920854+815995573+801225334+792935642+792645891+797720351
1498+803459716+804927539+801986328+799970242+802974152+809831265+815010940
1488+814157121+809044523+803920127+800983590+800250569+801068772+803635941
1478+808847448+816714274+825602388+832102451+831832882+824788043+817390606
1468+814947277+817667521+821912796+823811201+824278216+827820076+836762355
1458+846883227+847732149+837607122+827012706+821731154+821203444+823024905
1448+824413482+823436788+820561689+817885891+817040902+818796176+823553356
1438+830322023+834976734+833895418+830141421+828523565+829139054+828882322
1428+826628276+824721412+825151030+827596585+831218878+835628061+838808790
1418+837247029+831358596+825524775+822248031+820885423+819786893+818491956
1408+818080814+819125327+820159896+819739034+819151816+820578236+824014732
1398+827775036+830513237+831234163+829327893+826369615+825191840+826424449
1388+827531215+825795011+822488142+821588171+824665020+829795797+834763186
1378+839638493+845555493+851851878+855855484+856355072+855506521+855703151
1368+857136917+859287231+862336477+865747597+867402775+866008706+862844969
1358+859856864+857911787+856927005+856272042+855195995+853544601+851949970
1348+851060387+850900189+851342272+852776557+855556161+858935894+861318157
1338+861775229+860782285+859364250+858266091+857832096+858064564+858808122
1328+860030121+861768254+863799477+865881973+868325154+871549735+875099386
1318+877906444+879625731+880871251+882075813+882924215+882971406+882411271
1308+882095031+882783829+884451917+886402263+888028354+889253766+890251310
1298+891046808+891490820+891380337+890456176+888442835+885316050+881486517
1288+877618177+874303443+871837557+870174068+868964090+867541380+865251570
1278+862290844+859868810+859030425+859649920+860778279+861500170+861414024
1268+860736727+859952804+859354382+859178305+859767527+861044582+862291141
1258+862918947+863085674+863346190+863976964+864708724+865091521+865143387
1248+865318128+865746632+866046845+866079271+866380374+867592207+869738737
1238+872305313+874874635+877245694+879167175+880640638+882202324+884217149
1228+886287401+887858882+888992657+890243594+892020237+894124547+895880786
1218+897056335+898466134+900962368+904166544+907017825+909250947+911480358
1208+914193776+917495154+921414246+925664493+929422497+931983359+933279558
1198+933533767+933114537+932936680+934136122+937038824+940837490+944367849
1188+947142184+949525041+951923703+954195408+955958621+957177503+958391637
1178+960316754+963011770+965600161+967141739+967694677+968051133+968797733
1168+969955772+971041317+971437544+971319270+971951008+974353973+978036813
1158+981459433+983702052+985350701+987286651+989147289+990064252+990325213
1148+991135847+993395087+997139513+1001268146+1003955222+1004383208+1003512323
1138+1002540823+1001794446+1001226297+1000828511+1000462631+999971799+999790454
1128+1001270149+1005650988+1012211079+1018040374+1020721589+1020995461
1120+1021957612+1025608991+1030738210+1034870998+1037378214+1038870449
1111+1039182979+1038136315+1036322349+1034015844+1031254048+1029177933
1103+1029254063+1031290406+1034119575+1037065461+1039343399+1040259472
1094+1040578457+1041855958+1044481968+1047522533+1049935144+1050856781
1085+1049882907+1048130304+1047778003+1049712989+1052324604+1053582367
1077+1053736926+1054474325+1056192424+1057711742+1058392304+1059066856
1068+1060332039+1061005626+1059705940+1057571505+1057238124+1059265712
1060+1061675874+1063043898+1064112674+1065803023+1067511032+1068573129
1051+1069719741+1071585870+1073330978+1073741823+1072503278+1069834380
1043+1066311961+1063487688+1063096284+1064921899+1066585091+1066243251
1034+1064894371+1065009158+1067212599+1069209394+1068439495+1065351294
1025+1063013551+1063748427+1066775636+1069025155+1068292950+1065324434
1017+1062718161+1062357772+1063840064+1065168391+1064807705+1062857879
1008+1060562430+1059326259+1059998214+1061977497+1063071278+1061720839
1000+1059027011+1056809471+1055174550+1053533173+1051635435+1048675600
991+1044072458+1039671363+1038371306+1040164793+1042230667+1042525760
983+1041276827+1039634040+1037870456+1035341574+1032036263+1028802407
974+1026051000+1023733587+1022351094+1022393165+1022994556+1022288321
965+1019075909+1013918271+1008677752+1004823881+1002340854+1000542767+999005196
955+996802645+992316220+985767853+980491124+979014323+979621204+978679978
945+975297425+971813887+970158783+970175181+971004588+972051697+972625263
935+971843270+969574087+966922107+965133295+964331491+963909441+963830047
925+964588000+965970938+966916394+966661369+965313675+963547865+962220057
915+961843492+962051178+961827985+960684489+959513392+959529196+960250865
905+959667060+957084382+954495621+953888443+954921009+956394249+958097286
895+959825625+960257172+958388446+955078907+952189932+950847952+950617116
885+950046889+948327528+946231603+945001071+945036464+946190125+948100551
875+949890476+950538835+949790009+948179796+946304467+944376530+942325050
865+940525331+939938038+941077230+943300779+945481961+947153834+948251177
855+948329383+947116140+945022515+942733892+940991455+940364910+940526073
845+940356822+939310307+937893236+936631763+935276427+933465800+932032702
835+932829090+936731042+942175834+946342161+947860588+947669226+947094400
825+946339044+945352185+944746491+944921083+945148877+944769122+944435667
815+945115858+947122670+950532973+955111629+959495584+961683072+961014827
805+959162129+958529129+960084286+962691449+964225830+963515514+961199363
795+959051497+958512731+959358017+960040582+959580839+958647998+958339549
785+958647627+959069824+960035017+962108164+964181013+964417711+962714303
776+960555827+959028347+958108787+957152350+955439592+952934009+950419892
766+948441425+947140626+947315812+950061432+955238733+961087692+965030602
756+965295422+962777299+960256281+959268383+959668989+961564352+964867140
746+968037703+969584920+969821692+969483044+968476225+967204661+966944887
736+968063822+968910740+967486694+964317244+962241204+962947587+965650617
726+969232322+973012661+975345878+974744858+971908046+968249767+964465199
716+961915689+962133614+964283038+965825506+965504369+963638463+960756315
706+957834915+955805769+953946096+951221920+948652376+947742017+948008914
696+947662919+945497988+941473383+936793890+933362068+931714088+930078795
686+926641335+921818339+917476307+914916335+914053686+914001524+914097316
676+914343734+914371114+912076406+904949725+894011763+886001138+886082758
666+888877573+889620166+890203600+892078113+893304119+892982759+893430407
656+896006258+899423981+901967184+901942253+898050911+891778568+886988962
646+885256096+884211287+881636846+878996144+879015288+881322312+883256779
636+883642025+882996411+881037904+877089503+872720314+870641454+870829402
626+870464710+868334578+867410269+870251311+873750951+873064601+867996300
616+860547888+851511968+843504162+841239951+845288893+849834084+849671216
606+846063169+843000493+842260051+843939790+846686671
##END=
