##TITLE=<SNM>
##JCAMP-DX=4.24
##DATA TYPE=INFRARED SPECTRUM
##DATE=3/5/2025
##SAMPLING PROCEDURE=Instrument type and / or accessory
##ORIGIN=Admin
##XUNITS=1/CM
##YUNITS=ABSORBANCE
##RESOLUTION=4
##FIRSTX=4497.3318
##LASTX=599.83466
##DELTAX=-1.4281778
##MAXY=1.7330298
##MINY=0.17825693
##XFACTOR=1
##YFACTOR=1.6140098e-09
##NPOINTS=2730
##FIRSTY=0.20033082
##XYDATA=(X++(Y..Y))
4497+124119954+124079202+124880647+125870866+126726515+127193553+127035024
4487+126455175+126039007+126198727+126880234+127641924+127910310+127392687
4477+126344322+125357703+124986912+125538593+126841559+128137334+128575309
4467+127954791+126830896+126012187+126087541+127100020+128425809+129236219
4457+129240678+128780425+128212430+127509375+126585148+125751141+125505070
4447+125853500+126175757+125877929+124951930+123857385+123118738+123033643
4437+123486040+123968921+123972272+123502409+123102212+123148670+123286389
4427+122904362+122034958+121355122+121347718+121749197+121816806+121071383
4417+119822804+118876559+118718786+119130495+119574647+119702294+119402445
4407+118694228+117832717+117319166+117533154+118359204+119246463+119624271
4397+119328336+118775243+118605616+118985132+119414465+119330838+118694053
4387+117942029+117544178+117555847+117574663+117251585+116650234+115915880
4377+115054471+114263283+113970783+114291959+114826588+115183475+115382507
4367+115566047+115591140+115213822+114564231+114052074+113818578+113682391
4357+113607276+113778675+114206246+114662916+115042266+115433239+115733550
4347+115520836+114631609+113628409+113203978+113275215+113212010+112825745
4337+112492964+112387327+112242591+111959397+111903698+112335773+112835873
4327+112696224+111828814+110881977+110443522+110566156+111102105+111971140
4317+112932343+113596807+113905731+114199238+114661181+115106736+115358318
4307+115402597+115269447+115123151+115248323+115700313+116230612+116567881
4297+116476397+115801657+114792871+114068351+114068415+114760198+115758357
4287+116493043+116531671+115977230+115402920+115318019+115732073+116197219
4277+116298507+116124560+116111542+116466020+116951034+117174679+117003160
4267+116716771+116730731+117194981+117901859+118441206+118470445+118054581
4257+117634507+117545969+117819100+118352778+118909721+119223807+119404744
4247+119755546+120072374+119834696+119113591+118551939+118445019+118463973
4237+118290284+118077634+118194341+118716192+119310822+119581101+119481243
4227+119401965+119748262+120372390+120625237+120161873+119444766+119180193
4217+119512421+120088836+120635808+121138798+121556619+121643846+121261699
4207+120714745+120517606+120874216+121515756+121948598+121791232+121054460
4197+120231873+119939299+120326016+120944595+121304990+121397443+121456503
4187+121477359+121351900+121223163+121281134+121476786+121778067+122351656
4177+123188388+123949958+124470470+124988472+125585475+125779724+125071656
4167+123732304+122657692+122428064+122806001+123203446+123317862+123214755
4157+123113790+123198885+123436231+123614998+123670226+123753973+123937780
4147+124130082+124246899+124213432+123967416+123658824+123603596+123904710
4137+124347033+124681070+124830340+124881764+125025485+125444884+126093736
4127+126557941+126337905+125425588+124455034+124090955+124366791+124788286
4117+125005727+125162890+125507092+125879979+125875880+125435430+124958919
4107+124840338+125139421+125708072+126442453+127271401+127931443+128041843
4097+127589170+127049482+126812579+126762992+126549927+126028657+125432568
4087+125205562+125555451+126256254+126990053+127587139+127905924+127917917
4077+127848730+127846412+127750996+127463167+127164942+126987247+126815404
4067+126509914+126030042+125334982+124460915+123739312+123664788+124372856
4057+125401557+126131229+126316523+126085159+125694842+125440333+125533663
4047+125940488+126412484+126709130+126786913+126783829+126813835+126803144
4037+126592516+126172239+125828951+126020126+126882090+127883037+128311475
4027+128107227+127823461+127831013+128007074+128185158+128433121+128758840
4017+128888998+128533643+127727065+126809163+126203001+126197213+126734141
4007+127412509+127885078+128204093+128599304+129034537+129248433+129212547
3997+129228233+129392652+129299045+128662297+127930842+127763164+128182785
3987+128714774+129058523+129207571+129181471+129005418+128839032+128938050
3977+129482483+130404365+131334482+131795436+131597817+131046302+130618178
3967+130503668+130615546+130848341+131095658+131238474+131302030+131395683
3957+131487259+131543189+131783037+132512635+133785311+135218168+136067067
3947+135939272+135510807+135751172+136498552+136662861+135838196+134733911
3937+134166424+134612846+136253100+138547948+140064709+139701276+138084722
3927+136902626+137040659+137857208+138351049+138650261+139543420+140908973
3917+141488675+140394314+138307010+136595224+135857787+135933364+137031981
3907+140073886+145342900+151112043+154607932+154794352+152566587+148754793
3897+144356826+141410264+141629589+144486504+147022401+147008857+146311765
3887+147695506+150427258+151815320+151879143+152309973+152135120+149714675
3878+146987198+146872956+149464422+153205791+157139304+159959226+159723948
3868+157249317+155492579+155173028+154409796+152113073+149674440+149068150
3858+151573367+157892058+166903125+172448926+168601367+159953963+152874256
3848+149363060+149295432+151935664+156341608+161621517+166902921+170602855
3838+170686039+167453799+163796575+161459415+159943457+158498145+157367566
3828+156862905+157107139+159208947+164264933+170126926+172158531+170330149
3818+168539399+166899782+162994096+157921675+155058288+155935918+159829954
3808+164269143+167005973+169228763+173236634+177496752+178343805+176439404
3798+174728218+173060073+170465071+168408520+168807932+171504730+175153794
3788+179029808+183005716+186777497+190531182+195432563+201846504+208075115
3778+212647749+216628016+221957170+229630243+239489729+249783692+258034508
3768+263939339+268993092+273912199+279465479+287374661+298133806+309694969
3758+320217839+331132107+345500691+365242744+389061007+410532175+424244853
3748+434293751+446762421+461298406+471918714+477236495+482390677+490724752
3738+502416387+516276746+529950241+539974766+544691739+546278417+548217883
3728+552027202+556021206+556941379+553614729+547609247+541120172+536156214
3718+534131552+535436827+539984737+546989237+553285835+554731848+551684976
3708+548013921+546330857+547557103+550711661+552845339+552442253+551546638
3698+552352588+555156464+559977542+567474941+577852549+589234603+596948446
3688+596842790+590910466+584978842+583232887+586733180+593628295+601272637
3678+607948907+610759467+606686360+599863738+596183044+594158899+588780517
3668+580413465+573347403+569497313+568351168+568813784+570373097+573239716
3658+577152734+580839890+583934290+588205487+595229228+603280275+606878357
3648+603689232+598807516+596484242+596229502+595828004+594503304+593676710
3638+595115780+598801829+603169818+607537401+613026535+619747749+623989845
3628+622264718+617562664+614618050+615686311+621120937+628294574+632316201
3618+633137367+636777290+645134003+652589782+654306636+653100518+653333026
3608+653943102+652609945+651110680+652448416+656593166+660819235+663248313
3598+664836062+667329470+670750106+673607567+675212968+676532165+677854686
3588+677155240+673066032+668101372+665246349+664597644+664957486+665740688
3578+666759204+667630594+668169765+669017594+671264313+675397024+680106871
3568+682061256+679238362+673985504+669813204+667727054+666963794+666914678
3558+667266469+667295274+666327498+664551852+662823401+662146040+663153995
3548+665500719+667709106+668197610+667038392+666146396+666999837+668821276
3538+669792893+669281271+667780011+665904655+664501258+664091562+663858463
3528+662924071+661846689+660962300+659250690+656487547+654127085+653143651
3518+653158275+653555563+653681272+652614155+650160409+647289359+645041088
3508+643593302+642755592+642785505+644024787+645941282+647126795+646772419
3498+645677679+645395907+646598628+648544077+649806328+649426102+647734064
3488+646053474+645696144+647018370+648990186+649876938+648901702+646995547
3478+645319906+644000930+642638673+640857709+638437125+635834257+634154850
3468+634111494+635464740+637594763+639812160+641035931+640397715+638196197
3458+635484682+633191358+631977484+632066115+632934254+634051595+635846296
3448+638739135+641637735+642883073+642002451+639456381+636020826+633040907
3438+631795569+632076455+632117151+630293201+626892507+623984823+623341806
3428+624852519+627120215+629007388+630046512+629888232+628321385+625865497
3418+623792641+623214103+624003435+624874234+624767951+623691898+622156663
3408+620556579+619108794+617827929+616562539+615309556+614308950+613903722
3398+614324682+615381827+616631080+617786790+618525491+618314735+617122538
3388+615922956+615618139+615813644+615486818+614580382+614210459+615314948
3378+617466315+619100706+618933341+617096761+614743685+612706356+611002574
3368+609580528+608713053+608489408+608729524+609359062+610174688+610486816
3358+609705350+608409936+608103051+609571555+611833194+612894401+611703608
3348+609198788+607209910+606721037+607608897+609594931+612393489+614860973
3338+615346781+613662351+611684404+611149258+611892798+612745760+612881993
3328+611835520+609452826+606384609+603793226+602294957+601785662+602030136
3318+602760307+603567476+604190588+604929216+606402261+608516921+610050346
3308+609712367+607508892+604826773+603139647+602666653+602469782+601871080
3298+601397533+601996530+603643587+605272697+605931299+605696796+605554322
3288+606418510+608153202+609410579+608922296+607159206+605961138+606420578
3278+607853149+608924475+609072046+608702381+608588712+609152552+610003409
3268+610398850+610284812+610157589+609820607+608569545+606764318+605656801
3258+605577218+605665997+605244188+604202442+602448252+600265864+598721950
3248+598730887+600137349+602019094+603246336+602777700+600403315+597342558
3238+595478576+595965271+598533942+601710991+603681699+603420681+601306501
3228+598672686+596692783+595584675+594801695+593744623+592144540+590236058
3218+588918117+589193980+591028751+593141749+594149630+593620836+592124303
3208+590707464+590059166+589850181+589250039+588136171+587148490+586487082
3198+585384809+583166377+580354931+578253566+577459507+577158125+576317646
3188+575242775+574944052+575126594+574253100+571898509+569574644+568737783
3178+569106673+569211700+567906167+565366375+563075931+562567558+563779364
3168+565003246+564899290+563994848+563495819+563409257+562723697+560902110
3158+558397105+556026745+554500152+554204494+554808588+555242694+554576412
3148+552824622+550603901+548423802+546718100+546061456+546574297+547333974
3138+547212439+546185207+545028426+544061389+543187451+542731408+542981901
3128+543128733+541890449+539336660+537001531+535986634+535920345+535938551
3118+535784075+535646217+535665457+535844750+535963368+535525310+534120214
3108+531858982+529471265+528039433+528155798+529213238+530086622+530316989
3098+529904412+528507515+525933526+523004754+521006275+520521132+521177850
3088+522125979+522562412+522221146+521574584+521331920+521630606+521848306
3078+521269878+519802705+517967528+516371322+515316873+514800487+514592389
3068+514228596+513312817+512051969+511054871+510441989+509772641+509006057
3058+508710252+508987851+508983530+507913571+506056827+504367411+503458686
3048+503188140+503115906+503236666+503980685+505308302+506257428+505865754
3038+504278042+502522411+501475089+501270611+501263852+500492431+498666524
3028+496601018+495261509+494680460+494136155+493053676+491435867+489697815
3018+488328394+487585519+487347102+487150821+486472573+485229747+483923216
3008+483049722+482598997+482299203+481969348+481482469+480766848+479959310
2998+479326116+478952574+478604771+477983469+477063517+476019666+474884821
2988+473560750+472209498+471315987+471202170+471625752+471946116+471681331
2978+470840483+469645147+468170366+466539520+465237495+464748622+464879242
2968+464836625+464103204+462946719+461915683+461152017+460441308+459621657
2958+458679178+457712141+456943268+456453804+455952116+455191478+454381798
2948+453816517+453435921+453058981+452712878+452477526+452280433+451994081
2938+451520497+450747524+449616705+448266302+447015056+446185286+445887449
2928+445858275+445591052+444780818+443602212+442461791+441608977+441065152
2918+440748777+440559070+440382584+440083528+439621613+439156264+438746125
2908+438033938+436734905+435318731+434515144+434278906+433909536+433069869
2898+432141128+431553875+431153226+430429038+429229825+427945526+426969515
2888+426294295+425737324+425307095+425171970+425330730+425413747+424941123
2878+423850446+422600455+421669165+421164856+420981390+421002439+420964439
2868+420453556+419385849+418257134+417576633+417248330+416779583+415893902
2858+414736604+413678831+413012548+412687494+412420383+412122140+411957767
2848+411956696+411910571+411671046+411247279+410639788+409831364+408922232
2838+408073554+407326950+406668607+406200931+405968201+405691119+405027642
2828+404013520+402926795+401907576+400988806+400280830+399895618+399780471
2818+399695903+399365125+398699285+397806255+396808013+395815753+394943181
2808+394176118+393473312+393015607+392942486+392928416+392502988+391655972
2798+390770402+390146698+389775446+389360395+388570730+387483007+386544517
2788+385877828+385033323+383746181+382478464+381807195+381671848+381582479
2778+381217615+380509122+379479342+378267942+377087710+376017640+375013267
2768+374119388+373452440+372962717+372438429+371791719+371108337+370380715
2758+369493519+368542916+367819762+367355409+366771812+365723493+364358097
2748+363225911+362699259+362571150+362357624+361836696+361062394+360087823
2738+358957595+357782349+356682255+355775597+355130808+354646846+354170418
2728+353699271+353275357+352835304+352324310+351764458+351155970+350496224
2718+349869049+349382946+349020815+348569646+347775587+346669326+345611073
2708+344894566+344425450+343845915+342914330+341798393+340924492+340429489
2698+339983823+339329321+338673895+338316565+338163307+337855057+337220016
2688+336394826+335547071+334706887+333925199+333337466+332931093+332465522
2678+331774940+331028298+330570224+330494223+330466304+330111153+329464960
2668+328814963+328280519+327843716+327542002+327324154+326947104+326255598
2658+325400938+324671505+324214059+323918918+323540723+322960338+322276846
2648+321622750+321003109+320356768+319661902+318933024+318195984+317493547
2638+316864674+316309364+315818090+315426970+315195901+315130167+315136777
2628+315040022+314688194+314101938+313469815+312984117+312728971+312661685
2618+312627119+312473345+312179275+311784387+311276569+310686694+310158195
2608+309783452+309483732+309124389+308652596+308124282+307681884+307484976
2598+307562177+307688679+307516606+306967501+306410179+306250458+306418820
2588+306475488+306149530+305568757+305019264+304651723+304404147+304136353
2578+303828305+303594836+303484916+303370305+303099556+302690413+302299496
2568+302030575+301844487+301692965+301688570+302028728+302724407+303501423
2558+304022591+304130038+303850020+303307321+302715378+302303078+302114719
2548+301963732+301672303+301266872+300870175+300519676+300181531+299841687
2538+299490044+299090466+298675858+298424645+298486225+298730366+298842946
2528+298691886+298445769+298336660+298441540+298657227+298788512+298701192
2518+298413917+298019620+297594690+297220927+296994973+296992573+297236234
2508+297594709+297750625+297474522+296894100+296311075+295872057+295574331
2498+295414130+295347140+295218034+294880628+294373622+293887149+293529505
2488+293210600+292808105+292344343+291934112+291645747+291436338+291167491
2478+290750815+290299850+289991304+289776485+289429642+288902806+288436108
2468+288277847+288425140+288641141+288643339+288325098+287859731+287517541
2458+287358080+287226167+287035297+286859235+286743831+286624234+286431554
2448+286167157+285891294+285669421+285476833+285202133+284818195+284456433
2438+284225587+284060770+283855036+283654176+283586355+283635471+283632941
2428+283471079+283189953+282867226+282562742+282367181+282409078+282779666
2418+283407357+283991029+284196948+283999135+283698805+283558934+283560356
2408+283551050+283496560+283491076+283581591+283695832+283771409+283856624
2398+284012208+284179092+284228910+284127760+283979839+283888401+283834355
2388+283721831+283433208+282774422+281496013+279443100+276595204+272994888
2378+268817030+264462188+260353204+256622101+253161046+249934936+247023614
2368+244424919+242144114+240440240+239620774+239676223+240521264+242475926
2358+246077350+251484906+258471440+266839970+276105814+284816164+291093669
2348+293868001+293484488+291560994+289767732+288272584+286162744+283032559
2338+279256809+275240777+271101326+267020113+263489390+260988429+259583666
2328+259007288+258916109+258993255+259087259+259323442+259936620+261004733
2318+262350556+263651344+264742778+265810652+267104016+268553944+269910680
2308+271103855+272227141+273323173+274365343+275316334+276099481+276634184
2298+276956800+277208235+277481532+277750065+277949909+278092660+278302531
2288+278728827+279367524+280000976+280401625+280551485+280563007+280459475
2278+280186658+279807373+279500304+279322876+279140924+278864469+278570436
2268+278306704+277997198+277654639+277460039+277506589+277652737+277718158
2258+277680896+277614958+277547950+277458082+277334442+277156497+276893983
2248+276620963+276512519+276618119+276768349+276805555+276788327+276899984
2238+277234769+277712877+278194752+278639772+279084237+279515722+279907951
2228+280334487+280892880+281553402+282213610+282877547+283659789+284589601
2218+285532819+286379890+287213593+288221659+289526767+291121329+292888740
2208+294708000+296560202+298470825+300414520+302370345+304367329+306413816
2198+308492488+310636174+312893012+315178729+317259746+319022578+320701838
2188+322579077+324520020+326159064+327436088+328589102+329769296+330928588
2178+331925501+332626350+332983976+333012042+332748513+332322900+331894001
2168+331475589+330982247+330363566+329563783+328502391+327181828+325758379
2158+324462595+323347470+322200032+320913961+319696690+318700478+317868899
2148+317202690+316811052+317115093+319253240+324343091+332044821+340758383
2138+349279063+357421916+365338318+373103862+380723276+388142938+395408531
2128+402705180+410184188+417901613+425667195+432886219+438980184+443846390
2118+447594554+450221980+451732583+452318138+452574614+453658200+456926686
2108+463330491+473160212+486106454+501200075+516579125+529825124+539154191
2098+543880323+543639469+538571295+530160887+520286260+509814740+498714717
2088+486460276+472337237+456297961+439131632+421726739+404929373+389579535
2078+376067532+364412642+354671072+346719993+340211383+334996673+330923049
2068+327503853+324423782+321742439+319377286+317189469+315354218+313990558
2058+312911551+311973725+311168070+310545623+310314998+310644446+311522298
2048+313121495+315828172+319899876+325689505+333893920+345104658+359578786
2038+377502429+398735809+422267609+446348477+469018896+488550303+503793600
2028+514087710+519152523+519522299+516426495+511013252+504170651+496544811
2018+488251285+479172600+469608218+460068430+450592864+440692976+429934108
2008+418452898+406825225+395540000+384846570+374951780+365978935+357811560
1998+350300349+343594388+337994724+333402646+329187914+324894227+320805167
1988+317384605+314572014+312064830+309865454+308150336+306901065+305913698
1978+304994078+304046928+303041613+301975236+300991211+300441386+300509096
1968+300780417+300556237+299672845+298649417+297973218+297651063+297513464
1958+297544596+297718183+297824891+297690430+297384580+297106593+296991373
1948+297107534+297585089+298508309+299457915+299508472+298261010+296478901
1938+295152078+294556165+294448921+294555851+294699913+294807009+294882696
1928+295024801+295531012+296605200+297829101+298607705+299150846+299944259
1918+300475638+299839822+298404832+297450684+297569689+298298143+298838958
1908+298817483+298490509+298301042+298355568+298502825+298728963+299199427
1898+299974135+300778331+301184482+301288291+301820261+302969675+303676414
1888+303003982+301553020+300466960+300059202+300030452+300117200+300200531
1878+300266451+300360159+300558785+301277729+303312196+306823439+310195161
1868+310917392+308550855+305264329+303056939+302261348+302246871+302415491
1858+302516568+302553479+302625140+302802402+303192711+304000101+305443160
1848+307817416+311250571+314589149+315330030+312779269+309496140+307813483
1838+307750444+308109418+308361573+309355143+312024466+315566711+317748619
1828+317817973+317146815+316376539+314865456+312810475+311456010+311348545
1818+311899681+312451483+313129583+314501183+316556718+318330444+318856949
1808+318317076+317792233+318303855+320261859+323168879+325700584+326770580
1798+326806956+327469878+330081979+334154162+336856519+335625325+332010181
1788+329566553+329700386+331451695+333523037+335495111+337150219+338140891
1778+338955003+341057587+345569269+351786394+356587309+357107757+354353773
1768+351040787+348780403+348627367+351017337+354533694+356855085+357787334
1758+358678998+359682078+360697198+363121770+368133256+374253922+378183041
1748+378684433+377503131+376628639+377020720+378729783+380767112+381832861
1738+382674744+385948622+392176568+396691832+394850082+389548366+384971614
1728+382095430+381030862+381805681+383817381+386923968+392387546+401095680
1718+410573906+415056266+412453435+407022761+402918596+401725514+403757672
1708+408576941+414485446+419323733+423424353+429394937+437593923+443994699
1698+445866731+444626896+440891325+435963225+433392781+434912580+439417319
1688+445822933+454907010+466019589+472667793+470357592+465041141+462898415
1678+465442971+471395238+477710744+482219139+486288553+491454443+495412773
1668+495277167+493547572+494566643+498828940+503115980+504880400+505828049
1658+509429233+517893189+531644199+546520379+552241283+549619322+549586270
1648+554385190+558238160+556025194+551253787+549295007+551582977+557912885
1638+567722812+578024086+582355811+578935803+574574165+574469027+578730253
1628+585090887+591933820+599404667+607137454+613411562+618551305+625648055
1618+636088407+645865577+648986788+646344479+642796953+640321418+638174778
1608+635333050+632315463+630962955+632638744+637169260+643391962+650138251
1598+656549589+661954597+665879986+668292150+669754338+671007801+672308459
1588+673447588+674334192+675154176+676039229+677108192+679070628+683270920
1578+690257399+697573437+701044592+701805636+705111052+712801703+721878541
1568+728771145+734688218+742969964+754770651+770431953+792036770+819495215
1558+840855484+847335880+848983159+852819991+857867890+861890847+864684567
1548+867716704+872560087+879344118+886876563+893869394+896813195+889415469
1538+874814045+863359387+858047072+855615040+852390279+848872814+847898760
1528+850075978+853696994+857707247+862729369+867947883+870152133+868540602
1518+865734991+863035810+860371122+858696737+859702845+864614992+873558810
1508+883604089+886456970+878073594+867758804+862494867+862095658+864135868
1498+865579739+863961339+860132631+857808064+859322471+863814359+867880745
1488+868060740+864131362+858843864+855066341+853843161+854383145+855707143
1478+857898320+861562396+866664360+871415050+872299808+868333649+863680526
1468+862285476+864089484+865929757+865257344+863869384+865498716+871249975
1458+877399335+876865333+869263904+861560475+857067036+855297816+855062131
1448+854750151+852844291+849651879+846903509+845631951+845970373+848124917
1438+851677022+853986669+852333924+848260670+845029039+843423195+842147058
1428+840519203+839684670+840757621+843423564+846944722+850776753+853038540
1418+851158457+846118091+841375009+838343315+836352443+834390894+832177632
1408+830467942+829949821+829942582+829546181+829441670+830510559+832105546
1398+833364991+834342516+834381292+832212198+828941570+827349021+827909020
1388+827993663+825303862+821513857+820399841+823403542+828885068+834496438
1378+839393886+844088665+848682257+852178303+854029212+855247961+856878178
1368+858736178+860520096+862730772+865430248+867353834+867455095+866311683
1358+865154237+864822609+865726497+867618619+869422184+870052867+869528689
1348+868902142+869124384+870383386+872516141+875420280+878680051+881299316
1338+882606622+883162707+884017109+885537498+887521058+889951095+893069352
1328+896912167+901179892+905465861+909521537+913465686+917549060+921535382
1318+924810737+927381698+929973266+932833459+935348730+937116695+938473339
1308+939635955+940271955+940244037+939997199+939998086+940359921+941052646
1298+941961630+942711299+942958284+942645712+941722105+940093955+937925600
1288+935626884+933630694+932183647+930934542+929017751+926203424+923526402
1278+921964430+921021545+919476560+917308944+916009246+916712236+918704659
1268+920307549+920711780+920211901+919361931+918897431+919643408+921535752
1258+923486813+924726981+925293554+925070795+923704402+921426514+918645276
1248+914986888+909973629+904212620+898822827+894249990+890353701+886982846
1238+884024273+881429603+879463844+878572512+878862409+879832992+880619148
1228+880654378+880212110+879980267+880132859+880413598+881019612+882478772
1218+884644911+886792142+888863151+891569865+894851646+897429697+898686188
1208+899862246+902362228+905906357+909190796+911407825+912559509+913236871
1198+914470539+916966903+920164410+922575097+923413693+923514954+924248965
1188+926056075+928510044+931180345+933729961+935796833+937566866+939962929
1178+943689489+948301989+952398657+954820349+955794550+956343766+956660917
1168+956361714+956050250+957038928+959570300+962803630+966371097+970393980
1158+974150379+976462907+977724568+979853113+983364743+985921080+985262848
1148+982432346+980095593+979249685+979326203+979951863+981214927+983049365
1138+985247855+987567695+989771059+991903149+994088640+996304560+998845312
1128+1002303764+1006711453+1011528838+1016383669+1020612841+1022746556
1120+1022010033+1019702084+1017858931+1017019005+1016342013+1015573214
1111+1015921312+1018827888+1023973724+1028954117+1031524413+1031696578
1103+1030824746+1029905569+1029386709+1029845670+1032052431+1035779730
1094+1039168385+1040799046+1041941720+1044729014+1048935510+1052424983
1085+1054113549+1054927107+1055848425+1056264326+1054764469+1051323522
1077+1048010795+1047043536+1048898729+1052043648+1054543483+1056061287
1068+1056948926+1056722178+1055512662+1055450694+1058151352+1062033533
1060+1064092429+1063154935+1060223690+1057190814+1055752187+1056340696
1051+1057836047+1058869262+1059262931+1059878473+1061231719+1062713923
1043+1063723429+1064964335+1067452722+1070737014+1073259523+1073741823
1034+1072216337+1070446674+1070456866+1072079181+1072864894+1071527084
1025+1069744126+1069004132+1068352769+1066778167+1065271368+1064987601
1017+1065436960+1065547822+1065041149+1064178696+1062897980+1060701854
1008+1057450946+1054238076+1053031071+1054432916+1056172741+1055479499
1000+1052697745+1050314755+1049470620+1049694634+1050441645+1051073731
991+1050701481+1049442405+1048615036+1048554767+1047456039+1043316533
983+1036375034+1029293942+1025003246+1024133999+1024414811+1022970718
974+1019442691+1015949304+1013795204+1011730178+1008112707+1003485362+999524816
964+996369851+992713753+988150812+983539420+979404789+975768927+973208307
954+972663818+973665421+973831087+971383913+967418862+964351642+962875568
944+961617674+959489129+957209690+956119825+956439266+957140263+956937889
934+955345708+953228685+951955724+951688280+951248523+949942399+948598755
924+948589227+950511410+953765198+956944019+958567885+957743100+954913707
914+951952400+950451879+950018326+949172344+947443673+945445637+943698574
904+942733383+943267975+944932464+945868258+944750770+942275383+940007466
894+939083784+940241378+943456316+946898592+947787856+945597048+942842547
884+941413078+940111829+937435471+934971827+935505164+938705700+940981224
874+939874520+937102810+936235556+938313286+940827597+940928563+938799279
864+936626640+935415942+934802321+934886298+935870988+936317688+934307169
854+930445964+927603276+927734302+930352237+933583572+935706799+936043818
844+935133283+934095046+933713638+934149702+935415130+937185532+937985500
834+936230682+932478492+929172633+928231004+929858415+933153712+936907896
824+940061900+942075742+942934206+942925712+942542605+942108240+941510868
814+940882992+941242907+943389400+946394283+948374592+948627781+948121994
804+948380206+950495161+954127403+956852508+955943228+951800620+948127829
794+947972725+950668803+952684270+951302514+947427941+944254437+943742372
784+945383078+947859868+950667474+953636683+955595574+955080776+952374284
774+949525391+948392245+949027728+949882647+949709078+949150630+949910344
764+952103442+953190648+950968967+946819637+943778268+942720162+942835383
754+944381032+947912161+951948781+954465825+955684131+957021940+958537086
744+959124856+958457687+957548186+957685490+958966798+959804434+958745885
734+956296496+953990616+951890285+948530361+943603443+938774019+935753847
724+934866061+935900236+939437939+945334257+950642879+952345478+952237644
714+955097690+961372241+965072581+961407250+953549382+948078491+947534445
704+949554639+950690740+949407586+946148849+942462911+940123203+939460687
694+938624898+935499920+929895788+923504170+919068046+919102981+923477138
684+928764119+930961722+928348144+921697282+913244405+905664320+900552681
674+897603044+895177438+891120728+885094048+881929851+886760974+894242234
664+896898650+894558647+890765835+888016430+886558009+885452265+883532815
654+881140519+880664423+883041356+885196269+883689839+879351209+875185999
644+871767284+867261067+860993754+855519541+854223166+857159951+860388701
634+860688052+859539691+859751149+861570889+863998121+866507557+868043826
624+866189372+860083737+852615845+847612999+845871845+844992331+843273409
614+842521376+845446195+851615275+857324066+859111013+856332138+850346893
604+844325679+841895420+842934469+843440700
##END=
