##TITLE=<SNM>
##JCAMP-DX=4.24
##DATA TYPE=INFRARED SPECTRUM
##DATE=2/5/2025
##SAMPLING PROCEDURE=Instrument type and / or accessory
##ORIGIN=Admin
##XUNITS=1/CM
##YUNITS=ABSORBANCE
##RESOLUTION=4
##FIRSTX=4497.3318
##LASTX=599.83466
##DELTAX=-1.4281778
##MAXY=1.8447609
##MINY=0.38282105
##XFACTOR=1
##YFACTOR=1.7180675e-09
##NPOINTS=2730
##FIRSTY=0.39797896
##XYDATA=(X++(Y..Y))
4497+231643384+232416288+233243296+233075903+232114703+231539583+231832824
4487+232412125+233032988+234302521+236107849+236816468+235235723+232465188
4477+230574289+230252201+230692557+231172289+231757835+232579362+233247945
4467+233274537+232720093+232157636+232124053+232744552+233722994+234575970
4457+235022120+235114229+234842758+233977744+232706286+231944344+232349140
4447+233435668+234236136+234290031+233579158+232317015+231249637+231348581
4437+232811613+234761091+235959069+235738822+234440043+232952327+231882487
4427+231385182+231551482+232354066+233251085+233502955+232972865+232137167
4417+231425339+230977507+230909613+231355606+232209658+233027628+233139270
4407+232000147+229885306+228068182+227699432+228704189+230165399+231279542
4397+231591362+231058098+230243788+229766692+229575309+229370760+229302623
4387+229597564+230016827+230206753+230220110+230445162+231076468+231586609
4377+231070709+229530971+228165929+227848160+228069084+227897302+227310421
4367+227041291+227511952+228287770+228542399+227974095+227046079+226288925
4357+225810198+225599266+225784265+226430402+227435107+228501634+228970040
4347+228217465+226539997+224970423+224082963+223643908+223419619+223622780
4337+224476675+225790337+226969200+227306813+226502477+225122239+224317626
4327+224754530+225889610+226639219+226716948+226776828+227273647+227785592
4317+227697298+227143947+226746818+226663018+226599461+226561836+226659236
4307+226414079+225401725+224271050+224031011+224741156+225689727+226250485
4297+226011122+224865929+223465084+222820733+223129500+223617142+223752358
4287+223821882+224021002+223958242+223577801+223575667+224304512+225246683
4277+225964651+226556025+226988784+226998307+226708708+226547421+226501818
4267+226104238+225318271+224785337+224833786+224929989+224637459+224421773
4257+224849814+225750839+226698179+227478716+227896140+227895377+227689666
4247+227315295+226696358+226282940+226653477+227465151+227745278+227169360
4237+226291336+225689780+225468977+225484780+225730856+226396178+227485776
4227+228541046+229031446+228825770+228003376+226655021+225271540+224818885
4217+225803624+227625710+229237643+230022812+229926695+229249300+228395197
4207+227567703+226775388+226168315+225969907+226050897+226043525+225881752
4197+225803399+225850546+225784352+225568632+225587123+226125695+226899051
4187+227414257+227544736+227378610+226820957+225879914+225107755+225149664
4177+225925812+226761025+227248078+227511553+227777595+228162061+228696556
4167+229174173+229185708+228577959+227663178+226898305+226574950+226712230
4157+227002002+226980267+226454739+225732330+225371490+225703830+226529277
4147+227272606+227487875+227229413+226907932+226751571+226545444+226145574
4137+226044531+226812804+228071443+228780339+228581307+228084332+227762399
4127+227372105+226617969+225717360+225099203+225036947+225614670+226575332
4117+227377742+227928092+228808284+230163907+231043631+230569536+229094240
4107+227561458+226411859+225689571+225618451+226345526+227357013+227884397
4097+227895776+227997686+228334883+228384685+227880511+227174477+226698526
4087+226684753+227219595+228103603+228846516+228999685+228439899+227479219
4077+226725344+226559460+226813932+227105057+227193610+226948713+226380393
4067+225834275+225820450+226485946+227383224+227851820+227631295+227035897
4057+226528444+226318067+226408216+226764304+227280429+227746805+228039370
4047+228285619+228636555+228843689+228442761+227537798+226925018+227228667
4037+228257085+229254729+229530243+228996615+228276825+228027123+228198610
4027+228270563+228016958+227682762+227581945+227845714+228486560+229485940
4017+230729470+231856484+232343156+231952479+231039000+230244950+229963088
4007+230181288+230681871+231177025+231388461+231304157+231257096+231457014
3997+231605725+231260565+230441936+229673489+229526496+230148053+231092513
3987+231721789+231862469+231851280+231930085+231921117+231625985+231349743
3977+231669750+232615651+233527483+233960345+234241184+234795020+235444453
3967+235764928+235731900+235641144+235642896+235706436+235883716+236269310
3957+236689839+236760092+236477189+236554676+237760894+239746244+240974960
3947+240594952+239829628+240192637+241077807+240555576+238229855+235707511
3937+234665946+235846873+239090931+243086159+245463867+244755544+242377367
3927+241156525+242203503+244015979+244729576+244563519+244975756+246319514
3917+247194346+245985405+242894880+239826731+238463407+239152719+241520297
3907+245478993+250966048+256944336+261599196+263670203+262583311+258208908
3897+252101059+247408314+246437383+248798717+251442398+251761416+251292196
3887+252923158+256089435+257837746+258012806+258567961+258435209+255570586
3878+252226942+252099030+255449942+260081783+264411086+267055669+266503047
3868+264373947+263968527+265078628+264329246+260613347+256801887+255698291
3858+258254529+264896959+274859634+281852878+278487586+268830486+260315145
3848+255938001+255953613+259292088+264202287+269412562+274584398+278764348
3838+279665789+276835894+273021138+270270100+268286259+266514253+265436242
3828+265286352+265618033+267186635+271736410+278102183+281212552+279538397
3818+277009167+274801072+270720673+265417352+262260199+263159056+267710080
3808+273371727+277030139+278955020+281777456+285146027+285878393+283913685
3798+281784932+279786728+277104781+274564033+273809950+275570334+279671652
3788+285374479+291234100+295728072+299021603+303026267+308608172+314047212
3778+317724029+321004480+326523313+335794975+348931594+364236584+378329338
3768+389086027+397101635+403683249+410180490+417828909+425775304+430854267
3758+431892589+432377144+436709899+446348334+458237710+465915999+467839127
3748+470525429+478596511+489387060+495320681+495367066+496388353+503232453
3738+516447061+532440601+544835139+550326982+551672995+552970611+555877351
3728+560570009+566722091+572724681+576129159+575028563+569766318+564055946
3718+562198699+565409764+571771356+578261034+581782739+580423370+575193181
3708+568185018+561008353+555754330+554350449+556501891+559634933+561908146
3698+563779999+566416794+570450322+576077848+583325600+591151750+596051004
3688+594711999+589048184+583977825+582708136+585412582+590116724+595357980
3678+601221139+606014927+606305792+603813111+602238889+599673561+592557365
3668+583464371+577035510+573842693+571695067+568640189+565530530+565344577
3658+568784615+572029992+572010182+571780272+575540040+582663383+587410959
3648+585264236+578717072+571470327+564575575+558417873+553847473+551726630
3638+552286503+554741299+557486058+559718924+562787818+568018389+572567939
3628+571444272+566407600+563104460+563964252+568312064+573889146+578238727
3618+580698449+582310071+583117165+582037489+579755914+578760785+579520905
3608+579598547+577778943+576288156+577457028+580725510+583954164+586889526
3598+591114282+596566748+600589036+601345340+600732664+601898135+604915927
3588+606273111+603898455+600677780+599856531+601276440+603005045+603891586
3578+604083993+604212634+604918494+606778170+610160860+615133941+621249734
3568+626717048+628490616+625413916+620034027+615673068+613396176+611976684
3558+610314411+609191542+610015914+612457943+614442998+615076836+615796088
3548+617256449+617674428+615646354+612169507+608830112+606529006+605994666
3538+607292734+608925865+608997887+607370376+605562879+604761822+604672245
3528+604497601+604572260+605785954+607616904+608266076+606871285+604390053
3518+602082216+600214978+598516416+597037599+596494933+597479447+599219917
3508+600202766+599669051+597769548+595037001+592239926+590342713+589661068
3498+589428348+589161838+589482885+590543931+591180684+590579942+589185221
3488+587451550+585591112+584369022+584079961+583478040+581566256+579384978
3478+578406467+578438280+578596792+579058623+580205811+581060192+580257330
3468+577919275+575192938+572807944+571157987+570622329+571030178+571761504
3458+572510349+573028764+572508059+570310753+567203801+565011595+564796603
3448+565632215+565728418+564791260+563884077+563196222+561946413+560085870
3438+558359242+556993142+555665031+554411058+553641883+553688475+554570888
3428+555801304+556532837+556146012+554558294+552153248+549642527+547729563
3418+546725552+546436214+546220841+545444311+544101698+542876243+542753638
3408+544465071+547648868+550423567+550720780+548578740+546108922+544928914
3398+544865322+545115111+545246839+544813005+543262825+540822565+538729962
3388+538154547+539163866+540787942+541837470+541727805+540715503+539402691
3378+538236595+537543016+537454376+537474775+536887078+535780897+534726859
3368+533803127+532962832+532729523+533466399+534669234+535695449+536320683
3358+536278566+535351087+534192520+534029082+535172350+536386912+536164808
3348+534414693+532344675+530995089+530538809+530698673+531159151+531530503
3338+531335426+530425155+529487373+529690915+531433606+533753482+535240174
3328+535183556+533854195+532184498+531051569+530510673+529932725+528926493
3318+527770528+527051519+527238270+528428061+530174187+531627019+532091834
3308+531507120+530379915+529435750+529192553+529543610+529620107+528515522
3298+526439398+524699032+524441056+525830955+528258136+530754494+532339575
3288+532616181+532224326+532302176+533308720+534584757+535179427+534755377
3278+533542445+532138461+531413138+531613905+531833164+531279709+530454852
3268+530229383+530463803+530358336+529651643+528795597+528235932+527974487
3258+527847823+527794882+527776322+527744508+527671410+527505232+527137175
3248+526551213+525962441+525545988+525021328+523901998+522285208+520941068
3238+520389764+520394413+520710777+521421460+521990492+521129103+518458240
3228+515478472+514066751+514643485+516226727+517607190+518020104+517197953
3218+515475558+513711080+512634006+512278473+512119337+511614695+510627996
3208+509384501+508105133+506936296+506175690+506172360+506879677+507708316
3198+507862977+506750412+504406633+501775181+500148364+500096429+501134473
3188+502256474+502521354+501499997+499537215+497336266+495323561+493752738
3178+492997197+493126636+493472767+493218156+492338450+491445976+490804575
3168+490016770+488752459+487348648+486355357+485742300+485012917+484018690
3158+483160042+482769817+482650647+482296710+481410933+480156717+478990448
3148+478212426+477670663+476944403+475774699+474292412+472968950+472314435
3138+472424446+472858072+473027095+472614354+471640179+470362962+469143717
3128+468237818+467666981+467321233+467091531+466873938+466595181+466298002
3118+466070972+465809249+465138567+463783950+462116265+461025835+460953674
3108+461340013+461298763+460544333+459450814+458535999+458047662+457767587
3098+457170350+455988226+454548681+453369263+452658754+452393388+452511240
3088+452831697+453088979+453182685+453173561+453038189+452677314+452130382
3078+451517706+450818159+450011655+449378545+449237068+449415597+449390341
3068+448888544+448022714+446975199+445967927+445338113+445118750+444770815
3058+443844690+442657744+441848117+441487450+441066869+440248464+439276198
3048+438582722+438175185+437601643+436603253+435601081+435215921+435340503
3038+435121695+434135724+433101080+432850771+433035441+432625371+431419032
3028+430139560+429276922+428733320+428402975+428320475+428332618+428206266
3018+427896598+427384289+426597802+425681252+424892441+424166667+423253898
3008+422251864+421567756+421377570+421430442+421370597+421068943+420620087
2998+420084707+419384015+418546599+417830886+417384736+416984173+416317688
2988+415385075+414501102+414005445+413944975+413944420+413513882+412588728
2978+411592280+410902934+410472326+410045326+409584016+409292249+409213323
2968+409003917+408341943+407460952+406882970+406661387+406341623+405595067
2958+404490690+403293093+402292447+401650977+401265401+400948690+400676941
2948+400436137+400017187+399244716+398302944+397603293+397309063+397151627
2938+396819443+396311922+395699871+394903843+394085266+393812615+394344525
2928+395080187+395119216+394170922+392686554+391274868+390173231+389267644
2918+388484627+387925204+387606169+387351940+387009903+386583285+386103136
2908+385474710+384563503+383486116+382670037+382457612+382765858+383278168
2898+383725358+383822811+383322227+382333412+381339705+380794784+380813692
2888+381171410+381480697+381444998+380991146+380206775+379306427+378605666
2878+378255199+378039618+377658309+377082407+376460816+375875235+375303012
2868+374631081+373741209+372796592+372272384+372444668+373002217+373333395
2858+373059668+372236130+371235241+370464435+370041009+369744212+369362695
2848+368982322+368792414+368689376+368279654+367391586+366437290+365989267
2838+366051298+366060110+365603066+364825495+364148950+363836264+363725385
2828+363262479+362088820+360642961+359769118+359775883+360270533+360724871
2818+360819652+360465854+359804851+359063049+358373147+357828192+357472556
2808+357095895+356371578+355339431+354438979+354024364+354076889+354290146
2798+354259582+353754315+352916240+352044791+351242554+350491280+349920028
2788+349668401+349597003+349445221+349171807+348897040+348651761+348397949
2778+348160580+347972961+347781422+347461068+346837395+345758586+344328999
2768+343015909+342313726+342293778+342595952+342794777+342638902+342048013
2758+341105513+340065283+339228665+338753928+338564332+338421501+338123143
2748+337670540+337221406+336873507+336525746+335997096+335306084+334710443
2738+334332950+333922707+333237801+332477646+332006968+331816435+331569457
2728+331051146+330329222+329601956+329075076+328857482+328802702+328559193
2718+327933924+327125407+326474188+326093677+325873412+325712229+325574741
2708+325384208+325014070+324412566+323678604+322978572+322407007+321965229
2698+321634571+321398972+321213053+321008539+320744214+320449221+320203942
2688+320036896+319877656+319671858+319452912+319211519+318827643+318254899
2678+317659882+317249292+317021568+316794052+316459162+316104428+315838056
2668+315608737+315311939+314980866+314710990+314420195+313860113+312947865
2658+311976847+311368230+311232096+311268419+311122293+310765130+310464274
2648+310417508+310521552+310509062+310220418+309746618+309383592+309372663
2638+309578288+309558374+309070905+308339302+307748102+307474028+307430281
2628+307387435+307151628+306715192+306223802+305827228+305602766+305537023
2618+305508644+305331121+304867035+304166655+303507700+303155047+303025885
2608+302786088+302330225+301920294+301788461+301860865+301935940+301904300
2598+301742875+301495029+301286629+301173843+300990526+300545625+299933192
2588+299439860+299172343+298964707+298663607+298363133+298262697+298360184
2578+298450003+298418780+298319211+298131870+297741437+297205398+296767227
2568+296527673+296316394+295966829+295569491+295349331+295368655+295466523
2558+295455942+295280396+295011804+294770411+294615785+294503623+294369639
2548+294195655+293985173+293760954+293555745+293351890+293123438+292935958
2538+292859772+292826016+292712120+292512081+292312840+292142879+291923829
2528+291612599+291360139+291406212+291783427+292231520+292428679+292249109
2518+291822699+291382482+291053316+290826477+290694523+290668919+290699848
2508+290721028+290736553+290772408+290805418+290793432+290718964+290565396
2498+290292970+289915425+289596182+289535417+289714641+289899935+289935755
2488+289884618+289852458+289816794+289687077+289483968+289374529+289475260
2478+289681908+289777400+289656998+289378814+289049804+288734325+288471145
2468+288320561+288306857+288340214+288322226+288289632+288304984+288287533
2458+288123124+287845234+287559868+287293843+287047090+286900930+286926359
2448+287034254+287056544+286975623+286944278+287049779+287161455+287070560
2438+286764101+286503957+286561582+286894494+287220676+287382588+287432216
2428+287403421+287247251+286984834+286747188+286665521+286775324+286966829
2418+287065356+287048357+287098471+287356152+287726983+288010788+288132387
2408+288192492+288330084+288536506+288625164+288447675+288111675+287887820
2398+287921818+288109160+288233326+288192319+288081492+288038213+288043955
2388+287955922+287657598+287025529+285822450+283805998+280895321+277123706
2378+272580782+267560190+262588463+258079295+254038533+250218469+246420575
2368+242612983+239026506+236196472+234630646+234400927+235273695+237219460
2358+240532366+245424803+251971187+260457403+270641955+280479909+287018885
2348+288647367+286110193+281983948+278782787+277064936+275992632+274936339
2338+273761119+272502463+271261569+270132872+269204561+268662139+268648765
2328+268964261+269199149+269256236+269490725+270244913+271458833+272840475
2318+274186315+275392082+276361469+277081693+277709321+278478114+279532864
2308+280845797+282221004+283386874+284173673+284623518+284895544+285092236
2298+285230157+285335467+285483883+285719205+285974613+286131702+286164314
2288+286174513+286255140+286349626+286286693+285958325+285448965+284976795
2278+284701577+284599927+284534843+284425387+284298966+284165277+283928742
2268+283517892+283045306+282731474+282689895+282842873+283027387+283149627
2258+283235908+283336344+283426754+283448159+283392113+283302761+283228311
2248+283179949+283120034+283020414+282923916+282904158+282994498+283169437
2238+283344375+283426771+283427465+283449686+283538777+283654287+283781436
2228+283926088+284017763+283967181+283809398+283652916+283501846+283279413
2218+283031030+282921470+282993110+283109782+283167442+283183869+283182013
2208+283160850+283155005+283181406+283180278+283117848+283083364+283185378
2198+283390604+283550243+283575534+283508698+283425730+283359016+283314071
2188+283273359+283193878+283067041+282938764+282842890+282799559+282881469
2178+283150252+283525611+283833926+283968205+283923451+283754237+283577546
2168+283523182+283610487+283745824+283850180+283915801+283960520+283991276
2158+283989853+283928412+283838367+283825739+283965828+284211367+284428024
2148+284500167+284437738+284402646+284565702+284911174+285239975+285372519
2138+285298363+285146565+285068506+285134509+285299768+285476233+285632871
2128+285789562+285953850+286136629+286379704+286677438+286931754+287064610
2118+287106051+287123050+287125687+287082946+287018365+287064541+287344877
2108+287793923+288229648+288583324+288883660+289093136+289185956+289285108
2098+289519233+289851851+290176593+290460467+290719397+290946913+291099839
2088+291117151+290987590+290821464+290795010+290979524+291266781+291499362
2078+291624672+291680181+291704778+291742073+291858884+292082202+292379311
2068+292719440+293055787+293271854+293300198+293271368+293373747+293604454
2058+293814866+293944964+294051818+294169358+294284781+294400759+294526867
2048+294663280+294834801+295086359+295422047+295764292+295983828+296019319
2038+295970679+295981018+296039510+296031982+295965163+295986118+296187371
2028+296518757+296887334+297239154+297547018+297828447+298195150+298736670
2018+299287142+299496305+299254253+298834608+298526952+298386967+298374928
2008+298458295+298554637+298590510+298601299+298667979+298821703+299016954
1998+299175639+299396424+300035883+301213844+302334735+302619528+302056325
1988+301277505+300735429+300485329+300458650+300561306+300676764+300762941
1978+300859387+300988444+301114171+301187754+301293568+301735936+302698524
1968+303734903+304038153+303454793+302713476+302438536+302551149+302784770
1958+303168646+303737019+304252069+304482256+304473097+304446835+304623179
1948+305189574+306344221+308112342+309857947+310373136+309193822+307370435
1938+306198754+305931480+306083851+306280629+306486150+306783884+307179417
1928+307677502+308538994+309987317+311530628+312425668+312924066+313745558
1918+314424254+313803668+312136226+310964059+311179050+312292691+313173334
1908+313129760+312415052+311762445+311579926+311745238+312013101+312403534
1898+313145198+314210372+315141736+315768463+316656218+318049864+318978938
1888+318495875+317184486+316248611+316038997+316206980+316457289+316704302
1878+316941636+317193367+317562256+318528694+320984462+325211230+329513697
1868+330917231+328614632+324994469+322451831+321462009+321377116+321587944
1858+321810360+321990693+322248843+322714768+323467880+324652675+326512142
1848+329395360+333417857+337304461+338278671+335464769+331652823+329573404
1838+329452430+330010256+330493458+331681168+334700867+338905605+341783689
1828+342144182+341417124+340533046+338785568+336199980+334232514+333793303
1818+334348804+335026113+335830015+337364723+339576148+341342639+341692724
1808+341036058+340659363+341602349+344146375+347520532+350044610+350510569
1798+349649632+349572544+351931970+356376678+359761867+358747413+354604637
1788+351418412+351073703+352592105+354412820+356018093+357233765+357691086
1778+357902088+359535149+363935346+370426308+375587874+376100288+372813835
1768+368532079+365017971+363685974+365358551+368582453+370561194+370861183
1758+371067883+371469210+371878203+373811636+378762027+385158103+388924948
1748+388351198+385732964+383756061+383477166+384666853+386141403+386617943
1738+387039011+390401371+397513092+403322339+402048904+396296067+390798535
1728+386915296+384952514+385020720+386474176+389182681+394645139+404030594
1718+414654305+419643379+416099921+408869378+402932565+400278320+401387658
1708+405843537+411746143+416490736+420121585+425425323+433006368+438693080
1698+439498891+436907370+431628681+425123009+421179127+421501979+424788501
1688+430082906+438695578+450167946+456881219+452967450+444884192+439756104
1678+439582570+443380257+448137652+451426186+454367445+458226747+460217249
1668+457411951+453117705+452231338+455045933+457766928+457540488+456368182
1658+458180917+465517690+478929076+493545657+497300567+491445421+488805886
1648+491957904+494605939+490903103+484143376+479961396+480080913+484600176
1638+493240707+502945995+506406953+501168056+494633451+492544352+494811356
1628+498660388+502265633+505895892+509146265+510274788+510113120+512153614
1618+517449962+521852761+520894441+517227338+515564302+516748403+519046492
1608+520838169+521875000+522749849+523857279+524988960+525848197+526784696
1598+528541750+531254626+534143083+536321169+537623503+538474935+539288517
1588+540238234+541386012+542754401+544258093+545843903+548056196+552179059
1578+558787282+565149915+566441356+563814969+563205034+566580197+570431311
1568+570865734+569207868+568843523+571545853+578926721+592862315+609858755
1558+615981626+608417337+599711237+594929454+593279670+593591073+595114783
1548+598063189+603931691+613749211+626539768+640110429+650484282+650935498
1538+642998746+637199005+638188653+643175680+646845628+648271504+651227334
1528+657826745+666670367+675842183+685407972+695042105+702039373+705368707
1518+707137903+708039223+707632554+707555327+710517819+717944169+729721695
1508+742972904+748936603+742082547+731977493+727188562+728447219+733710470
1498+739705671+742420802+740905488+739360754+742105166+749114994+755633363
1488+756670263+752995666+748894070+747033770+747588578+749631015+752794656
1478+757699530+764760009+772995119+779517304+780492450+775813496+770744039
1468+769785614+773158106+777378143+778604535+777965215+780261465+788089350
1458+798207518+801642734+795412177+787058626+781606992+779193758+778402970
1448+777590324+776100614+774907596+774963105+775987029+777771144+781059470
1438+785581890+788209387+786530531+783299726+781999854+782623423+783285363
1428+783274469+783432807+784102865+784905449+786404596+789636928+793116065
1418+792886538+788367725+783354748+780542408+779941667+780326757+780745361
1408+781310854+782362047+783144302+782856074+782664638+784366461+787813681
1398+791393219+794218604+795986204+795889411+794194111+793086091+794036814
1388+795666267+795212068+792663671+791394052+793998651+799872011+806555934
1378+812469329+817898620+823185810+827134271+828698294+828939756+829309304
1368+830040768+831431882+834387018+838559596+841749880+842425281+841486909
1358+840468396+839692456+838616353+837049694+835534935+834508096+833805913
1348+833329095+833371767+834006368+834993380+836399064+838389393+840329139
1338+841118401+840768281+840519811+841189730+842416954+843565912+844444543
1328+844936557+844858359+844577208+845095936+847120541+850273426+853342216
1318+855502262+857374357+860290707+864419641+868374001+870918513+872299149
1308+873502921+874986040+876502534+877735309+878688807+879514705+880252414
1298+880877995+881403175+881796107+881872986+881593015+881339271+881328794
1288+880958136+879453923+876851544+873699977+870482840+867721983+865618556
1278+863575772+861219157+859440385+859188724+859933579+860511631+860760795
1268+861188697+861768206+862110832+862301574+862725867+863426732+864315493
1258+865653804+867572804+869432063+870473056+870919415+871571987+872671056
1248+873984319+875463761+877003498+878214626+879235220+880911231+883435413
1238+885825056+887360561+888349515+889030605+889232795+889520746+891166713
1228+894530253+898456512+901591843+903632684+904997708+906017470+906936761
1218+908188756+909955663+911768572+913279376+914896409+916944883+918897257
1208+920152861+921085404+922824626+926092830+930200532+933464990+935157238
1198+936523719+939192709+943147207+946740276+948539585+949085720+950365192
1188+953172190+955884268+956830897+956793568+957587826+959538396+961995482
1178+964985242+968567139+971653970+973038006+972980416+972902357+973848431
1168+975609717+977112195+977874813+978746991+980417659+982183247+983321520
1158+984335314+985592791+986556003+987221065+988178795+989216250+989945355
1148+991254732+994368276+998981799+1003342690+1005923907+1006742033+1006926738
1138+1007398214+1008241805+1008806258+1008309248+1006872062+1005633528
1130+1005396298+1006203809+1008305779+1011632198+1014235618+1013699059
1121+1010876518+1009793477+1012943587+1018429497+1022589030+1024510112
1113+1026122704+1028519910+1030678152+1031799425+1032489535+1032836602
1104+1031670367+1028389535+1024273853+1021725595+1022385244+1025954375
1095+1030451608+1033526435+1034313754+1034271429+1035704312+1039361632
1087+1043781778+1046913848+1047704012+1046969426+1046914750+1048397314
1078+1049258112+1047125266+1043171253+1040691409+1041617430+1046122712
1070+1053079182+1059780313+1063257646+1062701450+1059855527+1057792413
1061+1059008536+1063373589+1068398570+1072083574+1073741823+1072613404
1053+1069087639+1065747690+1064221066+1063130948+1060981934+1058828758
1044+1058493139+1060095810+1062348902+1064033933+1064343671+1062169262
1035+1057084887+1051701044+1050063403+1052692773+1055762465+1056059991
1027+1054693718+1054556056+1056779313+1060564510+1064103457+1065253248
1018+1062862009+1058355963+1055296194+1056358835+1060657625+1064371980
1010+1064283444+1060589974+1056357239+1054349981+1055006994+1057743704
1001+1062014671+1066007054+1066932173+1064280877+1060505740+1057822596
993+1056437727+1055240477+1052734821+1048113873+1042405513+1038036227
984+1036623950+1037552817+1039248186+1041253710+1043942891+1046770358
975+1048497992+1048686721+1047076626+1042672092+1035334279+1026929382
967+1020057146+1016766045+1017605334+1020541320+1022287480+1021677927
958+1019828312+1017243696+1013512272+1008801262+1003391468+997680748+993533080
948+992635438+993534537+993168528+990990303+988488672+985864366+982577219
938+979590096+978134593+977696283+977291765+977237436+977769208+977596021
928+975879835+973883332+972977224+972739786+972053978+970517640+968406095
918+966564530+965946650+966550652+967459119+968148882+968856963+969548808
908+969465337+967797999+964541451+960805379+958186832+957649163+958921002
898+960786853+961954614+961795166+960340078+958094966+956166113+955695331
888+956422563+956428044+954173009+950535673+948232207+949677025+954938611
878+960965590+963603565+961288095+956310505+952271841+950737169+950153566
868+948394778+946081736+945783655+948209379+951030740+951786419+950767976
858+950087996+950494111+950331332+948261904+945618032+944519240+944850210
848+944592511+942819915+941272892+942403324+946349634+950415983+951704614
838+950114363+947732422+946155424+945801557+946686363+948566923+950367413
828+950421811+948066375+944692149+942760521+943792633+946988538+949893786
818+951097558+951670337+953161644+955481415+957842610+960531097+963987684
808+966728488+966095482+961627114+956369136+953966656+955113532+957313683
798+958000462+957158398+956466900+956822155+957326242+956425824+954204857
788+953307978+955941373+959794638+960068780+956243062+952536825+952099210
778+954710124+959142135+964048049+967210510+967273235+965489606+963567623
768+961704964+960032908+959993011+962501512+965526034+965532626+961853380
758+957724932+956520882+958545348+961601302+963858765+965668552+968448698
748+972237781+974833152+973984635+970335225+966913540+966000008+967374746
738+969451737+971388014+973402350+975192778+975006894+971552597+966395367
728+962953143+963353291+966473426+968681279+967255958+963506980+961204000
718+961611987+962344978+962193370+963496572+967808268+973103298+976539485
708+977074241+974778060+970148370+964565597+959406425+955287205+952763925
698+951904375+951065571+947864255+941774065+934935065+929588134+926343174
688+925136002+926542172+930641964+935302670+938089477+939306987+940622887
678+942381190+943728104+943301799+938810186+928299365+912295695+894682902
668+884539270+889938517+903582171+913116597+915688794+913848893+909936096
658+906192599+905277263+907650531+909866571+907475818+900797377+895188030
648+894338610+896520859+897906838+896219240+891002130+884288024+881245462
638+885960913+895844279+904221907+907757871+907405114+903930487+898147815
628+893797610+894869272+900328468+904422015+903141503+898988075+897785413
618+901343442+904019232+898121934+885099490+874328472+869930391+868321337
608+866570250+866574830+869913947+873485644+873634476+873561691+880926981
##END=
