##TITLE=<SNM>
##JCAMP-DX=4.24
##DATA TYPE=INFRARED SPECTRUM
##DATE=3/5/2025
##SAMPLING PROCEDURE=Instrument type and / or accessory
##ORIGIN=Admin
##XUNITS=1/CM
##YUNITS=ABSORBANCE
##RESOLUTION=4
##FIRSTX=4497.3318
##LASTX=599.83466
##DELTAX=-1.4281778
##MAXY=1.7158704
##MINY=0.17733474
##XFACTOR=1
##YFACTOR=1.5980288e-09
##NPOINTS=2730
##FIRSTY=0.20304504
##XYDATA=(X++(Y..Y))
4497+127059686+126682893+126165894+125885304+125609852+124769452+123310592
4487+121856319+121006296+121005942+121974966+123735416+125523840+126563098
4477+126762293+126439509+125822632+125293595+125471631+126416122+127265063
4467+127197524+126376502+125563125+125205681+125222167+125294415+125151691
4457+124891699+124981580+125546984+125884642+125261564+123944253+122851377
4447+122552726+123044837+123960589+124671133+124709215+124200477+123600674
4437+123217223+123055150+122733411+121698880+120017084+118592809+118103961
4427+118208826+118218981+118006695+117909708+118145316+118502359+118493090
4417+117908114+117218644+117167536+117942858+118945842+119326850+118691343
4407+117467111+116626628+116787675+117548655+117956509+117570055+116740725
4397+116001909+115651486+115796551+116323807+116870991+117159507+117267375
4387+117337339+117201571+116606104+115683694+114870551+114329354+113710407
4377+112704038+111625131+111043866+110970928+110986425+111136870+111947943
4367+113415364+114707769+115084684+114552466+113521554+112411624+111660164
4357+111570227+112058217+112864096+113877273+114979538+115850261+116177643
4347+115872072+115043375+113978838+113078574+112643930+112768760+113385711
4337+114228768+114894040+115159067+115098866+114825690+114356768+113766579
4327+113270700+113119976+113391465+113855891+114210324+114446966+114776735
4317+115268707+115812878+116267253+116464033+116287600+115860183+115495624
4307+115419814+115656717+116159012+116869518+117630881+118220482+118541765
4297+118617090+118427183+118023423+117756615+118083353+119064984+120115730
4287+120344326+119423641+118047537+117119905+116736249+116483801+116346550
4277+116646405+117394770+118211978+118712575+118783490+118627795+118556247
4267+118694998+118951512+119157942+119161355+118969303+118858237+119060975
4257+119354395+119337480+119097276+119129940+119577526+120097603+120549721
4247+121119219+121662411+121707757+121221278+120771155+120902624+121686795
4237+122660640+123072606+122601708+121805163+121429629+121543437+121750977
4227+121894112+122117634+122423811+122523437+122263501+121979741+122087096
4217+122469027+122753515+122953707+123234642+123378662+123130168+122720123
4207+122559514+122788147+123340505+124036922+124608937+124987613+125355091
4197+125699770+125727119+125357711+124892669+124671925+124861431+125379093
4187+125866775+126041502+126035814+126005909+125722867+125094680+124666592
4177+124999903+125912569+126806716+127443314+128018378+128654678+129104978
4167+129019657+128402976+127625901+126999215+126626646+126702279+127488884
4157+128785467+129858005+130197275+129997223+129661207+129227281+128565646
4147+127874162+127658864+128185020+129026138+129326412+128691763+127654789
4137+127043993+127183686+127903256+128869361+129639983+129845631+129578235
4127+129300676+129317908+129556891+129787389+129895313+129969808+130126174
4117+130289795+130326851+130300444+130389131+130659576+131040611+131334107
4107+131263864+130836969+130624030+131310310+132877850+134409481+134869619
4097+134099323+132874447+131959012+131454181+131160509+131071523+131289777
4087+131834993+132643110+133468301+133903802+133828831+133619837+133615967
4077+133696887+133669659+133657714+133773312+133779401+133484022+133194704
4067+133336086+133811077+134184588+134334744+134455704+134570099+134538843
4057+134461756+134602204+134966857+135354653+135751858+136286266+136825431
4047+137025082+136812106+136480603+136286406+136224919+136166901+135998040
4037+135720312+135524736+135618291+135956200+136271906+136292076+135885500
4027+135272139+135084525+135804458+137076545+137994507+138186205+138207568
4017+138667006+139367198+139650176+139256309+138441264+137529642+136809933
4007+136616072+137058549+137856166+138701088+139551753+140360402+140806309
3997+140617092+140029253+139628262+139708912+140016236+140143984+140002277
3987+139855729+140027220+140548891+141034131+141029291+140569107+140229343
3977+140520693+141325547+142040585+142223004+141943542+141529655+141263379
3967+141386540+141999500+142794236+143231873+143118018+142720095+142347088
3957+142158738+142282113+142763203+143451824+144081140+144368238+144105309
3947+143393834+142686815+142400966+142616395+143176642+143886719+144521984
3937+144797762+144544149+143955275+143520025+143565893+143940420+144289696
3927+144454800+144431544+144227230+143971145+143958902+144365348+145021667
3917+145560524+145710624+145471725+145128669+145015541+145148334+145247531
3907+145215109+145339351+145909567+146764727+147377006+147382331+146955604
3897+146658929+146847773+147290482+147413755+146944890+146428972+146696880
3887+147743095+148654184+148797878+148834767+149587495+150637952+151023930
3878+150693499+150217323+149870658+149770073+150094909+150627853+150806729
3868+150612822+150471077+150405645+150143005+149746836+149502715+149460679
3858+149635368+150280079+151595768+153057445+153742625+153730624+153645247
3848+153825661+154268977+154788848+155237721+155673148+156255159+157007738
3838+157794147+158521345+159141326+159513419+159540983+159367152+159206301
3828+159140114+159302681+159885625+160699225+161161749+161220569+161716756
3818+162886653+163826491+163953550+163814947+163961047+164435283+165217104
3808+166094187+166575864+166658052+166784123+166999356+167234525+167959092
3798+169375442+170924072+172169704+173333335+174613637+175810930+176807556
3788+177835139+179161356+180750735+182372862+184116042+186515273+189869820
3778+193706156+197388262+200904257+204627615+208675548+212825810+217142761
3768+222217289+228185553+234289641+240112440+246394835+253910536+262215946
3758+270291167+278164918+286841564+297010966+308448921+320091162+330873254
3748+340944989+351166180+361678564+371398161+380003454+388652984+398070087
3738+408197584+419134317+431361403+444562736+456686020+465073190+468678833
3728+468604049+466981287+466038633+467411119+471416718+477183942+483717134
3718+490377292+496781543+503482693+511924878+522198139+531831985+539201642
3708+545468148+551805224+558250242+564224064+568813352+571666379+573618825
3698+575523379+577381086+578917090+580170108+581672020+584522511+589852368
3688+597233177+604101948+607959283+608454500+607151167+606018736+606225073
3678+607215171+606412463+602751394+599934248+600791824+603959727+606774635
3668+608233579+608901826+609948282+612743645+617456131+622379021+625795111
3658+627555318+628834968+631259841+635440147+640096089+642972427+643139153
3648+642120074+641440861+641633995+643572939+647816429+653065721+656811421
3638+657879809+657192914+656293937+656556745+658868005+662640561+665550841
3628+666158066+666100328+667303291+670168439+674057442+677739137+680327305
3618+681961293+682920992+683727617+686146746+691607448+697968917+700684497
3608+699105562+698016436+700826755+705629952+708232965+707165248+704862342
3598+703623199+703240588+703242229+704340979+706631277+708682491+708807740
3588+706626130+704255340+704292415+706291485+707710184+707772026+708082352
3578+709418173+710643739+710955259+711089759+712138677+714161543+716051252
3568+716772314+716759931+717071674+718005563+719870357+722901709+725667419
3558+725980953+723830675+721206029+719476779+718944972+719609190+720333907
3548+719497592+717534031+716483845+716767614+716957242+716723378+717242503
3538+718496043+718921175+718502608+719103940+720683397+720707865+718142898
3528+715299531+714501112+715256712+716169341+717444141+719721907+721905904
3518+722635097+722780488+723783529+724498175+722889177+720396644+720501304
3508+723245083+724852738+723176602+720469899+719442688+719775916+720119065
3498+720661316+721937608+723282904+723945555+724051484+723886847+724028508
3488+725734184+729238262+732292293+732521830+730411983+727998523+725922469
3478+723645448+721440489+720363970+720773287+722002434+723118863+723187344
3468+721740223+719554137+717669501+716009851+714689397+715484608+719496398
3458+724185536+725419382+722363711+718463593+717297556+718914760+720621183
3448+720701301+720553523+722366844+725942536+729264446+731304097+732562336
3438+732785011+730353946+725161423+720330774+718976154+720593805+722347747
3428+722353118+720716444+718325438+716287653+715989262+717699414+720071547
3418+722128877+724530998+727602186+729574474+728668858+725729858+723096036
3408+722163565+722901262+724743825+726936699+727944887+726447189+723750407
3398+722549160+723105361+723513410+723447019+724243051+725577156+725517329
3388+724003741+723566151+725427886+727107752+725704420+722072034+719484015
3378+719492072+720937029+722170950+722828678+723369362+723766968+723643658
3368+723589053+724928977+727467462+729153296+728828796+727309912+725634149
3358+724268339+723548173+723284694+722719019+722152301+723376374+727252248
3348+731884094+734223553+733334646+731186232+730115830+730423471+730433094
3338+728688104+726386989+726739090+730971615+735877682+737116303+734566851
3328+731662464+730648159+731287312+732528021+733603124+734124860+733751722
3318+732232242+729765295+727002793+724982090+724664229+726050404+727826277
3308+728429176+727463583+725782747+724728831+725277348+727038824+728368304
3298+728303628+727726018+727664922+727518114+726113887+723653281+721523815
3288+720789475+721591027+723554514+726031083+728285351+729911954+730952592
3278+731556088+731766603+731598683+731110590+730515226+730332536+731190261
3268+733312939+735995547+737582389+736582780+733435726+730465096+729048486
3258+728164130+726737374+726129627+728437680+732820967+735779512+735467693
3248+733454674+731531172+729369853+726141115+722614433+720585450+720999468
3238+723036284+724991639+726029666+726416157+726502839+726724916+727843136
3228+729832284+731313720+731229723+730064358+728848340+728458642+729633407
3218+731934298+733177395+731566979+727971519+724789479+722961238+721415126
3208+719259327+717485916+717637274+719262535+720391496+720278257+719781138
3198+719313559+718464041+717309343+716526738+716585670+717540969+718755942
3188+719088424+718303656+717390654+717121580+717731566+719505723+721712771
3178+722217723+720161586+717193940+714627182+711859682+708430500+705383183
3168+704353213+706261273+710006898+712594395+711987915+709408699+707008966
3158+704448176+700568199+696977066+696494120+699009033+701265091+700898667
3148+698895719+697316784+696619817+696120386+695473400+694806795+694403594
3138+694827160+696406095+698053287+698009647+696253617+694475655+693516627
3128+692745958+691977378+691907182+692268682+691582682+689280671+686625962
3118+685144228+685072689+685387416+684738193+682630807+680081132+678704879
3108+678900698+679489722+679434668+679141499+679508147+680452554+681204947
3098+681466113+681458877+681471484+681755478+682008289+680943556+677636192
3088+673303259+670347772+669815368+670872418+672146099+672458514+671037652
3078+668371679+666269441+666152248+667541033+668582865+668087536+666668688
3068+665509812+664690282+663526408+662058922+661166435+661159796+661299891
3058+660832834+659779440+658798107+658522394+658899113+659418835+659873955
3048+660324153+660542500+660090438+658786843+656853942+654789152+652925253
3038+651002497+648788363+647024276+646690899+647531466+648410376+648830958
3028+648998579+648881386+648263195+647266719+646122315+644873475+643653131
3018+642799062+642467251+642399815+642155955+641340901+639675880+637298301
3008+635029039+633732083+633279872+632893083+632458402+632467205+632700322
2998+632233714+630810166+629047273+627452299+626205622+625465389+625173749
2988+624873270+624068174+622715979+621430436+620999784+621305560+621183145
2978+619874887+617887605+615908714+613998826+612453907+612117733+613041700
2968+613900506+613527741+612365062+611740306+612068536+612242759+610932860
2958+608297808+605961221+605172276+605463878+605489913+604667175+603297523
2948+601586700+599625563+598092617+597835554+598703759+599636380+599957597
2938+599850251+599516539+598632071+596941127+594992187+593767703+593555473
2928+593654240+593246638+591969451+589721337+586820270+584214460+582658538
2918+581996483+581752810+581605144+580975651+579455350+577720095+576822535
2908+576859573+577158188+577115667+576236272+574316463+572080508+570628053
2898+570092032+569729897+569173062+568620480+567984572+566798767+565023565
2888+563331726+562431257+562379897+562650910+562696154+562287470+561469618
2878+560478326+559585951+558725467+557479871+555732495+553981985+552742619
2868+552027077+551640960+551549316+551625630+551396577+550410582+548720646
2858+546798822+545065656+543612642+542412067+541745499+542020503+542972034
2848+543569711+542989528+541263187+538947824+536679755+534959420+533917961
2838+533314130+532830961+532230710+531397678+530442044+529482046+528322051
2828+526762698+525131918+524074793+523839475+523981285+523827539+523248512
2818+522753482+522649157+522524951+521917017+520960302+519941633+518754373
2808+517253467+515744393+514732624+514354078+514186904+513554390+512092574
2798+510125208+508365038+507150998+506142698+504848353+503195081+501469748
2788+500044932+499265721+499185939+499260649+498664725+497117046+495183399
2778+493692004+492967996+492599931+491882711+490533948+488934349+487589800
2768+486535958+485507666+484497650+483744624+483285698+482928114+482518647
2758+481855847+480659262+479101625+477942638+477601129+477478192+476664033
2748+475042838+473329105+472208498+471689000+471179982+470087387+468341577
2738+466359926+464584277+463157931+462002450+461047413+460260332+459512639
2728+458637907+457633784+456560062+455318868+453911508+452770349+452321420
2718+452292663+451907701+450717831+448946098+447142623+445738769+444814914
2708+444175611+443632689+443118562+442542406+441782666+440892231+440049053
2698+439188680+437969641+436290335+434582234+433358123+432626319+431952926
2688+431040521+430082388+429462631+429201912+428908183+428253551+427232607
2678+426006892+424818587+423931509+423363895+422856295+422213747+421442817
2668+420658572+420099909+419928260+419851574+419385189+418498110+417513271
2658+416540480+415493687+414415639+413431657+412635140+412129890+411878309
2648+411539673+410788213+409701921+408540584+407329528+405991357+404678735
2638+403632204+402900139+402484518+402482616+402753294+402750384+402095155
2628+401087713+400292353+399802805+399272975+398561201+397947635+397655100
2618+397475469+397044704+396319316+395614330+395205311+394997034+394646350
2608+393933681+392899720+391735026+390697744+389995407+389589857+389271362
2598+388960513+388701696+388401329+387902829+387304220+386867376+386591066
2588+386161980+385371431+384375887+383535954+383129956+383132642+383167180
2578+382850998+382261825+381820132+381700216+381644678+381333419+380678265
2568+379819123+379025366+378541339+378442572+378674571+379149944+379699133
2558+380040753+379972235+379575375+379116002+378737046+378364319+377944669
2548+377617819+377500999+377441209+377230918+376985529+376971244+377080940
2538+376879824+376246378+375578616+375261613+375279480+375437291+375669253
2528+375992335+376293076+376315679+375921840+375286380+374713656+374301392
2518+373901324+373400811+372948338+372834763+373123755+373488202+373535907
2508+373215734+372760912+372348386+371977710+371583275+371132854+370672661
2498+370330444+370205045+370235182+370254988+370163009+369937053+369552352
2488+369052212+368614100+368338871+368080950+367679801+367207933+366828231
2478+366582729+366456100+366476838+366624840+366748038+366687353+366438644
2468+366125147+365887591+365855439+366049953+366231598+366102134+365731010
2458+365477229+365487038+365591475+365613444+365476707+365153475+364714430
2448+364273184+363819332+363314380+362910247+362813979+362968470+363088685
2438+362995512+362750682+362494327+362308840+362230624+362250281+362254720
2428+362050807+361525490+360800474+360197091+359999258+360226744+360612414
2418+360797975+360607117+360173593+359807318+359756927+360076728+360573250
2408+360860861+360686713+360230138+359899409+359900043+360139986+360405181
2398+360542702+360588095+360685818+360828672+360830910+360578173+360077473
2388+359276630+358045917+356273587+353779748+350192643+345090719+338335151
2378+330253645+321472450+312535831+303690389+295050165+286870228+279485577
2368+273043058+267587187+263343491+260525991+259034335+258896013+260812372
2358+265601619+273231958+283184747+295555789+310170711+324408616+333909045
2348+335789951+330762252+322847174+316351094+312457000+309798916+307093574
2338+303954055+300545312+297228642+294307042+292075806+290884629+290862399
2328+291714193+292870700+293869843+294858431+296636560+299829100+304100434
2318+308428425+312021760+314871709+317518660+320374223+323377377+326300563
2308+329067653+331630346+333829076+335534939+336793141+337808491+338814814
2298+339869290+340810041+341527895+342166974+342932234+343822185+344663125
2288+345329805+345822038+346130052+346176451+346000625+345832780+345816107
2278+345826364+345717974+345540655+345400262+345323800+345314139+345328499
2268+345202205+344813178+344335417+344129043+344320945+344649623+344810381
2258+344819034+344905903+345154799+345406790+345478068+345336183+345075054
2248+344837161+344767189+344921457+345181877+345359271+345425812+345546175
2238+345836025+346194616+346445190+346557907+346636197+346734965+346829032
2228+346947307+347183297+347547072+347916853+348166495+348286821+348392712
2218+348626166+349006129+349401460+349723908+350074779+350594986+351233356
2208+351776613+352107529+352352023+352704460+353159916+353552710+353836182
2198+354159152+354674324+355401652+356242741+357045823+357713659+358261318
2188+358718900+359066973+359332093+359597475+359869010+360099443+360356917
2178+360793500+361432280+362122607+362737926+363341869+364090979+365005324
2168+365956109+366890669+367907809+369094322+370479117+372147383+374234403
2158+376825107+379938591+383494702+387246854+390894832+394287685+397418140
2148+400302125+402982831+405560704+408119331+410688849+413328452+416145373
2138+419179299+422364099+425642333+429020042+432495177+436071913+439830668
2128+443789307+447727134+451337999+454502210+457257066+459604320+461444944
2118+462554063+462609228+461467957+459449380+457145803+454932713+452799107
2108+450632491+448520965+446747591+445574654+445022556+444751468+444159088
2098+442705664+440176279+436618229+432150013+426954693+421352218+415703605
2088+410268677+405221956+400684513+396623451+392827733+389141226+385681944
2078+382744398+380511875+378879229+377528414+376190504+374848193+373678613
2068+372846960+372364425+372059246+371682341+371133302+370549500+370106128
2058+369806395+369530831+369221250+368966984+368915213+369079179+369275669
2048+369325874+369273543+369360599+369860441+370937744+372594149+374781652
2038+377585556+381177809+385575940+390569735+395855132+401106922+405942905
2028+409921127+412608360+413722999+413286416+411593346+408986865+405725826
2018+402079714+398395146+394935118+391721486+388641608+385646547+382773864
2008+380071823+377582050+375326290+373260418+371307823+369440232+367674131
1998+366045551+364639534+363545111+362728676+362024138+361265629+360396491
1988+359491546+358729083+358270829+358085006+357920779+357527463+356901178
1978+356253893+355739840+355328173+354967344+354696442+354511365+354284887
1968+353937261+353583855+353389155+353326008+353220900+353014898+352821615
1958+352717813+352642618+352515690+352292195+351930807+351458454+351023848
1948+350794460+350815534+350959694+351012658+350902142+350810424+350913257
1938+351106353+351135222+350902142+350569399+350382792+350412594+350528780
1928+350639521+350771148+350853280+350713111+350412743+350275707+350424828
1918+350584020+350481597+350244749+350198275+350445977+350794572+350981476
1908+350896920+350609607+350280146+350092160+350168622+350446238+350676633
1898+350663019+350472869+350336691+350387119+350585139+350825567+350998335
1888+351002923+350797780+350448028+350115360+349950424+349952140+349999509
1878+350035316+350127221+350341353+350625608+350830677+350833624+350661900
1868+350491146+350464216+350568615+350729336+350908856+351097774+351261069
1858+351339284+351327274+351299188+351310490+351329251+351317092+351343947
1848+351566807+352069633+352735530+353307806+353614850+353658266+353522535
1838+353401911+353572814+354107792+354736912+355117994+355151899+355068163
1828+355193300+355575726+355982395+356248448+356481715+356852913+357319559
1818+357685349+357903845+358190823+358745196+359499714+360255240+360935981
1808+361575918+362169492+362707229+363277603+363996315+364851578+365711428
1798+366514510+367360522+368381877+369581893+370782730+371800504+372725552
1788+373828741+375252438+376913468+378618473+380242130+381804728+383414957
1778+385129212+386857119+388422664+389688102+390692373+391729841+393073905
1768+394670557+396286269+397820632+399362268+400997711+402712340+404489257
1758+406369940+408354052+410358866+412319368+414205982+415941162+417461724
1748+418830107+420120312+421357179+422662900+424246945+426163733+428251015
1738+430415057+432764847+435304713+437690198+439678899+441585877+443691435
1728+445922056+448171811+450463676+452808319+455238191+457940157+461041221
1718+464278128+467167483+469647633+472021221+474435836+476894316+479422470
1708+482093851+484978470+488071999+491325317+494769680+498482035+502407963
1698+506439485+510565932+514624942+518445576+522302501+526586424+531272353
1688+536052910+540887625+545962657+551053465+555697769+560049464+564518911
1678+569310807+574467336+579841206+585181321+590528186+596145244+601887925
1668+607128862+611782603+616559318+621991113+627776351+633176853+638043234
1658+642761838+647601364+652737640+658421911+664288349+669325038+673572706
1648+677732647+682327418+687214389+691556796+694793964+697031373+698734215
1638+700277343+701739234+703154726+704675176+706264406+707581354+708202902
1628+707985077+707250215+706294543+704973120+703215971+701462402+700025054
1618+698626421+696808997+694572707+692284049+690063947+687707554+684955197
1608+681869985+678899057+676457250+674729194+673780535+673499824+673602097
1598+673863264+674066170+673792694+672698495+670932917+669009788+667391913
1588+666289731+665655203+665216643+664620608+663814057+663228167+663204594
1578+663405635+663261288+663043612+663600186+665008665+666813780+668920867
1568+671833311+675932530+680812040+685611657+689824041+693695065+698215835
1558+704688231+713099346+722553413+732673114+743280834+754189033+764841884
1548+773986743+780724184+785662179+790261352+795061864+798810399+800399703
1538+801370070+803199579+805380667+807331173+809396783+811857762+814229596
1528+816149070+817923376+820027852+822640935+825903317+829762256+833437909
1518+836316560+838887645+841809190+844892089+847736798+850414110+852792136
1508+854238585+855088030+857160578+860590207+863718761+865444877+865650095
1498+865260248+865708729+867257751+868664813+868982674+868601479+868890172
1488+870764216+873483825+875828132+877599306+879153325+880475420+881408265
1478+882150214+882952885+883584131+883647986+883773161+885408716+888420897
1468+890797282+891001978+889839969+889666380+891201452+892968448+893573212
1458+892932417+892410681+893242520+894667635+895511260+895671347+895874849
1448+896684757+897539423+897157855+895168334+892758605+891525579+891995246
1438+893418944+894720972+895612042+896584423+897840648+899000717+899524542
1428+899277698+898816386+898966029+899924908+900875208+900882221+899917448
1418+898812582+898222663+897905026+897233796+896045007+895044577+895113505
1408+895999204+896318855+895237039+893520247+892258875+891526027+891069340
1398+891125885+891863581+892783595+893090714+892314226+890556033+888120567
1388+885030506+881452725+878633006+878251887+880698393+884810144+889072060
1378+892577258+895157816+897186725+899182512+901296909+903380199+905493030
1368+907791013+909919808+911114714+911201098+911104121+911821005+913129001
1358+913981728+913950322+913892210+915064663+917542798+919999226+921400395
1348+922301386+923790058+925772269+927204395+927611624+927610804+927993117
1338+928912608+930325340+932381626+934750700+936463314+937102392+937405408
1328+938149520+939185683+939997007+940475179+940776553+940969612+941216904
1318+942002418+943691533+945887839+947537941+947888923+947321458+946869918
1308+946819415+946460227+945495679+944636015+944400510+944526804+944711806
1298+944866000+944828925+944713447+944952981+945302247+944633926+942199654
1288+938555481+934986951+932210946+929872457+927533446+925580403+924389824
1278+923353512+921620682+919059444+915863231+912103879+908169298+904966893
1268+903322162+903234361+903601456+902847423+900205769+896309530+892465510
1258+889535685+887382572+885209167+882592205+880099970+878512755+877767225
1248+877238477+876767094+876705252+877040718+877219976+877003046+876857954
1238+877226392+878038686+879239486+881065936+883345344+885121515+885655336
1228+885462799+885691292+886718577+887931685+888718915+889142257+889640793
1218+890583634+892200092+894564541+897490263+900414642+902636684+904056055
1208+905468040+907612724+910107496+911983031+913215161+914906366+917820675
1198+921471263+924788996+927044980+928187892+929012345+930649840+933227638
1188+935771345+937794435+939630136+941183409+942108868+943087665+945137908
1178+947956732+950431138+952229092+953742008+955108265+956247521+957625565
1168+960077368+963485663+966286881+966998767+965892632+964645508+964857888
1158+967284253+971884097+977767319+982887109+984963910+984052699+982945669
1148+983706565+985590307+987257864+988881035+990876226+992546021+992927364
1138+992255612+991904928+992666422+993850660+994956049+997142881+1001223823
1128+1005327592+1006817085+1005591743+1003620648+1002730399+1004196840
1120+1008574383+1014558984+1019102656+1020288685+1020089509+1022248665
1111+1027349358+1032041405+1033409303+1032122194+1030529832+1029824137
1103+1029803772+1030010259+1030770932+1032886075+1035827463+1037732539
1094+1038165728+1038942812+1040943672+1042276733+1041020582+1038509325
1085+1038281503+1041873682+1046977881+1050152162+1050708512+1050828241
1077+1052170180+1053976414+1054580730+1053660567+1052851630+1054276446
1068+1058366340+1063094119+1065241638+1063186247+1058843094+1056113042
1060+1057164720+1060320427+1062041098+1060948465+1059097547+1059247040
1051+1061380087+1062663466+1061657889+1060806655+1062897629+1067260998
1043+1071149180+1073293715+1073741823+1071975498+1068040171+1063510896
1034+1060685657+1060632917+1061764564+1061371509+1058489202+1054351715
1025+1050981913+1050241530+1052622988+1056378386+1059174457+1060117521
1017+1059354461+1057736288+1057407386+1060274922+1065173232+1067994965
1008+1065837301+1060212260+1054984602+1052346379+1051854035+1052441491
1000+1053594548+1054469579+1054032959+1052678638+1051985550+1052459097
991+1052460365+1050130678+1045927769+1042009226+1039335942+1036874665
983+1034239800+1032460420+1031246567+1028636243+1024430425+1020883229
974+1019202692+1018178018+1016446754+1013695814+1009887974+1005154750
965+1000321042+996725880+995023933+993874681+990655193+984501255+977779181
955+973275344+971164975+969762314+968103932+966547749+965340535+964062751
945+962367592+960364121+958342001+956575378+955279765+954397871+953532762
935+952327412+950889616+949672479+948924339+948449450+947775683+946416289
925+944586482+943790972+945573111+949135078+951436193+950802635+949047276
915+948549784+948944928+948251468+946104173+943980227+942667232+941421898
905+939897569+939315781+940952604+944252284+946895132+946789949+944101746
895+941019369+939322644+938926679+939046334+939234246+938527880+935571946
885+930905486+927324871+926843342+928487998+929953470+930813134+932589231
875+935471239+936981320+935295860+932000580+929632402+928458010+927287273
865+926056859+926088414+928066446+930426867+930850284+929506928+928684936
855+929159005+929343634+928170659+926743381+926661846+928259058+930623656
845+932336494+932390353+930968670+929374443+929125809+930861996+933797415
835+936456078+937929606+937940796+936245563+933176763+930421496+929693050
825+930741968+932120310+933457250+935313241+937627262+939790148+941317312
815+941756394+941040928+940158288+940237212+940955812+941147379+940777896
805+940798858+941164238+940545748+938765325+938077757+940172909+943189416
795+943890933+941851581+939388365+938101032+937361769+936101888+934782926
785+935126374+938091409+942144675+944304428+943608282+942279473+942524452
776+943730473+943734353+941650689+938365108+935150618+932866138+931984094
766+932994744+936471743+941764078+945982578+946300290+943296539+940082645
756+938908478+940087793+942800389+945591836+947089683+947176142+946947350
746+947596052+949223998+950247628+948710691+945000425+942149748+942516023
736+945254281+947802166+949217284+950835831+953782813+956789996+956775375
726+952231255+945164018+939052078+936248771+936902471+939574337+942598229
716+944671225+945047869+943844683+941935802+940065115+938257240+936821159
706+936417212+935881526+932570283+926927265+923275409+923990278+926464088
696+927107866+925402413+922763221+920014668+917053214+913724291+910421477
686+907461515+904134532+899579372+894315906+889728222+886766544+886009079
676+887732733+890420638+889708528+880782315+864038188+850517652+853576755
666+868010292+879634331+883789498+883365186+882099040+881173207+879692517
656+876505629+871802915+866855520+862464773+858689010+855406935+852655846
646+850969117+850433207+849497155+846946585+844423392+844221381+846063721
636+848654350+851763806+854864609+856615269+855795589+850954720+841961817
626+832202348+826181865+825972842+830769997+837993815+844223918+847988939
616+851169114+854457231+854641040+849923033+843731722+839516355+836094931
606+830410361+822472792+815744377+812848046+812671847
##END=
