##TITLE=<SNM>
##JCAMP-DX=4.24
##DATA TYPE=INFRARED SPECTRUM
##DATE=2/5/2025
##SAMPLING PROCEDURE=Instrument type and / or accessory
##ORIGIN=Admin
##XUNITS=1/CM
##YUNITS=ABSORBANCE
##RESOLUTION=4
##FIRSTX=4497.3318
##LASTX=599.83466
##DELTAX=-1.4281778
##MAXY=1.731132
##MINY=0.19316174
##XFACTOR=1
##YFACTOR=1.6122423e-09
##NPOINTS=2730
##FIRSTY=0.21155202
##XYDATA=(X++(Y..Y))
4497+131216020+131394743+131775238+132149532+132311636+132343652+132467123
4487+132545111+132197307+131612090+131620851+132540592+133525547+133621826
4477+132997329+132498890+132484351+132792903+133354487+134093342+134565080
4467+134312131+133507940+132819189+132645975+132839116+133145865+133514502
4457+133889637+134137697+134247877+134249494+134018496+133479215+132846168
4447+132445995+132420707+132621233+132678555+132339114+131786024+131474903
4437+131687656+132279204+132787773+132795482+132251505+131450558+130758248
4427+130359730+130072519+129447023+128306405+127062669+126224152+125835892
4417+125706460+125834682+126267508+126845257+127379234+127809029+128056248
4407+128064298+128026903+128191983+128457548+128530712+128352239+128060351
4397+127715606+127260320+126628363+125919435+125414711+125138120+124676984
4387+123898644+123415834+123774453+124578828+124888813+124222262+122925270
4377+121817675+121612982+122434714+123669181+124361370+124031431+123135176
4367+122486704+122337197+122319747+122043183+121384183+120506090+119853310
4357+119809371+120315990+121132362+122206323+123401361+124268326+124526941
4347+124432667+124329049+124176613+123794592+123239395+122657884+122054700
4337+121523828+121395163+121732413+122008635+121733753+121111520+120679812
4327+120651816+120913851+121268532+121428400+121177123+120745156+120639977
4317+120981062+121403426+121629757+121675526+121518532+121115097+120738141
4307+120749704+121085290+121446727+121831706+122403955+123030634+123330544
4297+123033851+122229928+121527988+121773940+123128938+124675422+125450618
4287+125509355+125438492+125349524+124974981+124313485+123615195+123046605
4277+122725835+122783323+123162211+123612450+123979886+124300111+124611519
4267+124872684+125078469+125279493+125383740+125155209+124642962+124320593
4257+124471560+124782727+124875032+124864052+125109071+125701007+126352345
4247+126662274+126541946+126358528+126446554+126691000+126874778+127058371
4237+127288103+127311745+126891340+126182643+125632169+125562249+125909158
4227+126382041+126782861+127021105+127031013+126971787+127206630+127781338
4217+128267346+128376131+128269204+128050305+127536541+126792270+126290910
4207+126325034+126734282+127257584+127707685+127873006+127714811+127565054
4197+127784130+128329743+128818449+128895828+128549206+128127175+127954395
4187+128020581+128245497+128735812+129393241+129659610+129162557+128339059
4177+127991707+128465515+129473512+130436692+130916258+130963219+131002463
4167+131276938+131683516+132152832+132707438+133146873+133172456+132796184
4157+132275350+131824686+131632081+131843698+132324576+132731662+132910819
4147+132953427+132908065+132724176+132422787+132086045+131769083+131600730
4137+131754443+132063004+131956354+131196704+130438199+130590885+131736845
4127+133036951+133655368+133482117+132941957+132422916+132077524+131929782
4117+131911972+131973647+132283354+132985914+133656449+133552517+132602054
4107+131568382+131098104+131167026+131502141+131962538+132412389+132675958
4097+132695450+132525332+132257568+132066128+132142896+132492956+132943482
4087+133358119+133709381+134013792+134285808+134448412+134383890+134298812
4077+134727988+135733028+136481874+136210995+135258286+134575265+134561401
4067+134885564+135188025+135434698+135630436+135598558+135209162+134652542
4057+134278747+134216619+134291252+134248062+134000594+133754013+133858869
4047+134459835+135321616+136005284+136165743+135748999+135004589+134272721
4037+133711543+133314319+133198566+133657318+134753747+136025581+136862212
4027+137076454+136874034+136513354+136261875+136306507+136497790+136572839
4017+136598672+136676909+136476439+135761273+135052668+135066477+135745034
4007+136353459+136414173+136215172+136377193+137096270+137946654+138432062
3997+138524903+138491685+138380960+138027822+137556306+137478244+138098509
3987+139065367+139694588+139620223+139082318+138670768+138802658+139458590
3977+140374781+141270103+141891227+142112446+141939741+141273384+140037605
3967+138763664+138472248+139590517+141362324+142622910+142930094+142672283
3957+142312500+142011269+141921764+142388132+143605952+145123359+145953956
3947+145628287+144934461+144932816+145515214+145628065+144779501+143555257
3937+142831800+143315109+145346621+148245377+150172476+149891153+148552745
3927+148342552+149751286+151159826+151214393+150662135+150938782+152057328
3917+152590113+151363641+148810556+146412911+145245397+145538311+147493323
3907+151761254+158393298+165487107+169989077+170537934+167988924+163455475
3897+158244013+154614046+154459595+157203529+159456944+158749264+157415108
3887+158717229+161859016+163829020+164618127+165819431+165755935+162503644
3878+158923319+158734421+161865653+166300115+170923032+174201664+173852556
3868+171097198+169595457+169827370+169010332+165957292+162955510+162625867
3858+166259873+174417864+185592961+192106008+186719641+175459828+166520013
3848+162594424+163432221+167461362+172724508+178036010+182905111+186012589
3838+185484510+182000214+178509430+176185937+174004909+171515181+169875302
3828+169883139+171225429+174278746+179963738+186216553+188071894+185481885
3818+183087761+181445109+177747237+172479914+169102203+169795317+174429806
3808+180330666+184071219+186161135+189349708+192498186+191988332+188878709
3798+186570985+184811747+182197541+179801347+179314785+180671456+183125249
3788+186631080+191066799+195461999+199444910+204105259+209779807+214609904
3778+217296831+219566661+224014636+232027557+243660971+257016264+268695484
3768+277193914+283653909+289126102+294797396+302805271+313893248+325957973
3758+336833261+347732210+361821451+381088603+404186737+425102235+439169035
3748+450213461+463513207+478073742+487323902+490434116+494423034+503936495
3738+518397913+532886467+541642300+543408506+541118398+537964818+535994907
3728+536082008+537581438+538745699+538371007+536451228+533727017+531589447
3718+531316756+533320828+537715159+544152861+550122374+552124154+550247481
3708+547475320+546360859+548356501+552906587+557100356+558670732+558501927
3698+558445178+559579714+562944800+569431155+578390915+586671647+590043055
3688+588026561+584474666+582390591+582698219+585368749+589916136+595994120
3678+602628318+605637271+601303792+594610184+591523889+590028821+584527348
3668+575239701+567428636+564003659+564433657+566868577+570247453+574236852
3658+577151125+576782682+575132118+577735215+587208932+599870390+606396857
3648+601596114+591538344+582960595+577773663+575601859+575643635+577273126
3638+579941845+583008989+586521401+591937510+600789761+612015193+620139874
3628+619726253+613596659+608279186+607493425+611912083+618915094+623956844
3618+625973412+628633183+633936460+639354196+641772183+641818322+642488071
3608+644980960+647973610+649876235+650442838+650355885+650174140+650548351
3598+652942012+658171349+663907174+666491897+666627799+669377630+677573589
3588+686740012+688695430+682419103+673579347+666133583+661638841+661672040
3578+666568055+673215784+676971199+676134789+673325289+672594983+675850934
3568+680811720+682420508+678429593+671712435+666571604+665457993+667554637
3558+669877908+670900055+671521743+671757168+670391939+668932806+670500113
3548+674697025+677900182+678513219+678456877+679020078+679066661+677249953
3538+673659055+669696237+667464652+668503732+671922203+674666636+674955150
3528+673979880+672902722+671032926+668263057+666230889+665696672+665385754
3518+664559252+663840259+663349149+662858261+662798591+663418874+663908579
3508+663430557+662408188+661985768+662769828+664216614+665230923+665282607
3498+664280572+662144222+659558390+658092011+658567002+660283224+662282046
3488+664564797+667651129+670977175+672354678+670266167+666250261+662874823
3478+660428147+658233088+657329319+658626228+660269545+660147470+659253683
3468+659787678+661511960+662280789+661313653+659895705+659174715+658658318
3458+657461006+655747150+654003348+652515230+652066192+653391420+655553649
3448+656561008+655845416+654522259+653640154+653485915+653773985+653752839
3438+653029483+652477742+653192447+654601375+654713838+652543845+649656559
3428+648168442+647814047+646854527+645409664+645317979+646722618+647524794
3418+646589452+645041739+644142628+644013676+644327404+644822876+645352879
3408+646073942+647153245+648016051+647615962+645827795+643869937+643156711
3398+643994969+645326334+645728124+644668637+642834184+641275158+640656428
3388+641446995+643715920+646223079+646999376+645623129+643719173+642738654
3378+642559201+642197191+641219851+640387878+640782496+642176857+642899991
3368+642008052+640624486+640240293+640863756+641881910+643389178+645150874
3358+645615292+644057375+642379157+642592253+643969830+644350177+642884981
3348+640332275+637905710+636512827+636308161+637006229+638760161+641874590
3338+645552369+647993352+648061007+646225297+643902027+642381523+642223809
3328+643176971+644243112+644297384+643269248+641959769+640762828+639708590
3318+639217776+639638347+640537902+641217115+641574172+642281335+644167102
3308+646946435+648890688+648739629+647200197+645567453+644250063+643383411
3298+643230577+643528260+643811894+644333541+645455212+646513516+646497323
3288+645634146+645151983+645567157+646027064+645557988+644526451+644220487
3278+645038781+645742025+644994935+643394576+642937405+644469073+646888540
3268+648812238+649864331+650429677+650887366+651031549+650413706+649204342
3258+648175023+647699662+647529748+647598660+647801182+647148587+644863247
3248+642003024+640305361+640192602+641155671+642806087+644329696+644368588
3238+642794035+641275380+641206024+642330209+643683682+644659247+644924100
3228+644226993+642635951+640564373+638484882+636882454+636320361+636843709
3218+637312785+636450274+634731315+633902595+634365238+634461878+632957567
3208+630853160+629865542+630374324+631635445+633034391+634394445+635477223
3198+635909328+635548723+634436812+632466753+629585088+626411285+624144282
3188+623494349+624077145+625110014+626272425+627486743+628398128+628653813
3178+628285000+627465004+626202034+624505480+622547473+620486468+618470751
3168+616954203+616496515+616983595+617371780+616704619+615329630+614298535
3158+613735963+612969167+612121666+612088245+612873674+613371882+612786239
3148+611149502+608864496+606699864+605536380+605497524+605820236+605667365
3138+604603700+602575561+600082968+598082002+597216460+597286001+597615330
3128+597672042+597237163+596382194+595419754+594510365+593454649+592269057
3118+591564371+591771588+592361704+592533467+592185948+591487510+590147384
3108+588008853+585906219+585131512+586080792+587802116+589090189+589635201
3098+589588730+588813653+587418663+586076392+585033542+583788798+582298906
3088+581457320+581924288+583243675+584311517+584346121+583411482+582147329
3078+581068765+580268660+579657101+579124918+578431582+577321557+575999213
3068+575118217+574891480+574555164+573303839+571535711+570468497+570609981
3058+571239802+571468980+571381952+571558891+571736347+571010256+569223938
3048+567096941+565167771+563544269+562329619+561544856+561031860+560746821
3038+560731146+560833849+560805086+560456791+559621786+558421665+557429685
3028+556963789+556582628+555753760+554577596+553582769+553234216+553610497
3018+554168781+554092253+553285012+552532931+552245304+551774639+550435326
3008+548468668+546536356+544907456+543581896+542710290+542373567+542155592
2998+541386579+539847221+538025227+536705508+536358988+536737598+537079201
2988+536954020+536657705+536455849+535991875+534884956+533363084+531920736
2978+530852080+530336274+530463821+530915040+530891009+529789266+528011747
2968+526578271+525799054+525030188+523931106+523022383+522633458+522241539
2958+521292481+520049844+519207889+518925734+518623873+517809904+516702800
2948+515746903+515000293+514316496+513668041+513080883+512570845+512258485
2938+512176818+511907159+510845749+508993994+507193850+506301837+506285164
2928+506415261+506161351+505573897+504941932+504442503+504082526+503668758
2918+502784435+501110949+499033345+497606339+497514135+498297974+498870455
2908+498583124+497616431+496559310+495807118+495287504+494719904+494070821
2898+493554608+493222802+492852030+492306870+491698676+491040092+490102236
2888+488871948+487824587+487389302+487353921+487088994+486212398+484883288
2878+483582054+482717954+482363485+482256900+482025949+481405850+480369322
2868+479245507+478547291+478379669+478214413+477537565+476463586+475427649
2858+474631241+474020865+473410121+472513006+471268927+470089879+469410037
2848+469088657+468541981+467460386+466210540+465351135+464846938+464142400
2838+463045056+462039693+461586736+461512463+461231084+460417115+459316000
2828+458294703+457350118+456396144+455671125+455377546+455292699+455120715
2818+454826212+454408857+453750754+452810828+451732818+450737290+449941140
2808+449221592+448342519+447289317+446366434+445890667+445779757+445526845
2798+444758386+443672687+442677712+441879345+441195658+440591531+439955203
2788+439112878+438075203+437034275+436193170+435696255+435460978+435053199
2778+434089649+432757397+431602934+430841869+430179440+429289497+428201691
2768+427189341+426445430+425861525+425100165+424005334+422884736+422160937
2758+421814527+421424161+420700916+419788644+419016710+418493547+418025321
2748+417364075+416424186+415329763+414398229+413926528+413809038+413555386
2738+412855248+411870107+410830584+409704181+408476185+407430709+406821406
2728+406430966+405795155+404809904+403844469+403282118+403095826+402824096
2718+402006430+400760355+399719168+399256082+399055297+398572469+397675650
2708+396724559+396088490+395665811+395056471+394216069+393523842+393101607
2698+392595820+391763107+390768244+389817633+388908762+387984216+387073237
2688+386261080+385640871+385269433+385094638+384943616+384616616+384003098
2678+383154193+382289242+381657794+381292937+380961759+380422403+379642705
2668+378745665+377894467+377258176+376945705+376906775+376931804+376770984
2658+376300282+375616669+374927622+374324382+373718517+373031059+372348630
2648+371773265+371218049+370545675+369799214+369087614+368431655+367915886
2638+367671256+367509290+366988456+366039214+365119621+364617236+364469799
2628+364405434+364203504+363703078+362876280+361947038+361186824+360570311
2618+359862298+359039826+358365530+358015793+357855270+357616000+357175095
2608+356624316+356101966+355635108+355224039+354948390+354801213+354579466
2598+354142776+353565378+352900214+352130202+351464446+351273422+351571991
2588+351885793+351761204+351199666+350525333+350000063+349636167+349282585
2578+348811994+348225206+347620117+347091150+346640744+346187085+345664846
2568+345080609+344471195+343889398+343418658+343095688+342855235+342667317
2558+342639330+342804069+342898416+342588053+341910281+341279129+340999636
2548+340949319+340811125+340476399+340089323+339795817+339581133+339306445
2538+338840253+338193573+337551737+337122256+336931860+336854038+336845683
2528+336975078+337153791+337127136+336863577+336627042+336552104+336502712
2518+336398161+336314128+336245586+336066651+335702237+335173972+334578459
2508+334095668+333883164+333892259+333888451+333719128+333453018+333170751
2498+332828298+332488433+332373456+332466694+332421924+332053887+331554385
2488+331157659+330929998+330829846+330719195+330442918+330018095+329597229
2478+329268676+329039794+328926888+328927110+328939680+328789988+328384759
2468+327850949+327430674+327204750+327019124+326721404+326388563+326237577
2458+326314512+326394626+326279982+326042893+325830944+325613080+325289259
2448+324917267+324682544+324673930+324749312+324670048+324380979+324060080
2438+323869610+323796964+323739586+323592889+323291103+322919221+322720692
2428+322816149+322981997+322911458+322642131+322484195+322584791+322816556
2418+323023403+323137086+323121189+323001406+322894636+322875893+322863803
2408+322711487+322387482+322000886+321636842+321288621+321021883+321025247
2398+321356942+321792227+322062663+322135864+322156862+322200487+322160338
2388+321857812+321217343+320303777+319165174+317662453+315520447+312602107
2378+309106942+305477002+302127130+299218882+296610462+294084614+291644038
2368+289433341+287518978+286036979+285261440+285196003+285560379+286517367
2358+288830064+292954921+298603609+305463342+313382914+321384706+327583064
2348+330502661+330196698+328294553+326509603+324946473+322847647+320164622
2338+317319297+314336482+310918491+307121559+303648483+301312384+300203616
2328+299612706+298816575+297742983+296925798+296953618+297885096+299189325
2318+300292363+301060470+301717206+302468862+303330707+304249191+305252003
2308+306390199+307564626+308525366+309119585+309462926+309754379+310015406
2298+310191957+310411300+310885108+311576669+312159317+312348122+312219208
2288+312161720+312463210+312982898+313357996+313461955+313443434+313379475
2278+313174661+312800968+312364537+311936424+311572713+311443688+311641699
2268+311944890+312079794+312089924+312155841+312241686+312206712+312108113
2258+312152588+312400657+312661296+312726067+312646286+312656785+312867810
2248+313175142+313424579+313546617+313587912+313660780+313831989+314102461
2238+314490942+315012405+315585329+316072853+316416452+316712212+317150677
2228+317812145+318545704+319177855+319781834+320580608+321641278+322792155
2218+323821993+324698996+325594040+326726358+328195140+329900457+331614757
2208+333216003+334839579+336709005+338874229+341182970+343411043+345405723
2198+347208234+349007492+350933445+352983729+355128656+357329778+359459436
2188+361344316+362917797+364253635+365432129+366488584+367512506+368609333
2178+369711521+370622018+371232542+371540761+371571039+371390551+371056010
2168+370532366+369770414+368770744+367521527+365987862+364164649+362116879
2158+359977090+357824215+355600320+353216196+350584263+347606808+344389935
2148+341189181+338028354+335102805+333510358+334436051+337653256+341850316
2138+346172926+350534502+354924877+359306343+363769069+368342779+372981224
2128+377738860+382703047+387888870+393276217+398817765+404488967+410354114
2118+416428992+422565500+428601670+434502974+440350486+446359484+452880294
2108+460303506+469088657+479890782+493392606+509893253+529111642+550106256
2098+571029073+589511093+604118062+614981816+622740235+627946354+631292585
2088+633046296+632531377+628732263+620841750+608566185+592581158+574052076
2078+553772943+532461311+511151898+490789694+472047923+455365641+440747729
2068+428003754+417155823+408087519+400304441+393519812+387820032+383152122
2058+379275741+375973615+372976307+370167916+367816770+366114300+364882533
2048+363988967+363482699+363378481+363780456+364914992+366930081+370172204
2038+375489308+383798210+395638601+411260176+430666853+453477286+478853366
2028+505288784+530622016+552878749+571022382+584917493+595297605+603335332
2018+609455794+613277497+614881701+614901628+613356650+609571363+603242464
2008+594752112+584373405+571950403+557638973+542268499+526585702+510703895
1998+494677647+479161991+464974854+452168547+440048145+428202763+417010605
1988+406954535+398075887+390260941+383501119+377717898+372677071+368163179
1978+364102909+360512601+357359612+354548855+352140960+350403886+349381443
1968+348537676+347164831+345160871+343097869+341498620+340377874+339523718
1958+338868276+338394727+337962622+337430179+336790413+336155009+335716988
1948+335691553+336246954+337378680+338556323+338726090+337387553+335374831
1938+333850113+333135297+332900574+332834805+332829518+332849408+332843825
1928+332904678+333479673+334862611+336414576+337249729+337638395+338272504
1918+338547303+337395243+335393759+334135817+334210127+334957661+335471248
1908+335338637+334744972+334098403+333594539+333235930+333135408+333525812
1898+334435348+335438567+335963024+336133271+336818436+338220525+339097786
1888+338364966+336730854+335542933+335119663+335015186+334966386+335024059
1878+335242219+335578129+336051049+337111202+339639878+343870247+347997433
1868+348972925+346121796+342097276+339453179+338630411+338783874+339075752
1858+339163815+339125810+339185405+339468781+340081115+341187369+342924813
1848+345596008+349477787+353367921+354275499+351210277+347141208+344877200
1838+344531715+344806513+345148634+346533753+349976513+354378867+356912571
1828+356693302+355599913+354571740+352783943+350320482+348617827+348372938
1818+348905861+349397193+349990968+351428622+353717177+355596918+355862733
1808+354912381+354246662+355046287+357576220+361043971+363766259+364436933
1798+363689288+363714354+366275489+370914340+374230922+372858927+368333980
1788+364909225+364468727+366041173+368117077+370145549+371761546+372385600
1778+372541244+374148663+378758974+385608078+390938084+391236876+387532923
1768+382902722+379345873+378412121+380747333+384442746+386436946+386559909
1758+386748567+387369182+388198494+390664950+396073554+402794187+407052025
1748+407283199+405338650+403564791+403342970+404977822+407348969+408813167
1738+410094363+414182915+421671416+427261100+425710207+420325190+415709371
1728+412822344+411837574+412920722+415443039+419306222+426116027+437025882
1718+449076596+455185302+452704576+446742567+442227344+441058240+443767515
1708+450014082+457820340+464485445+470261161+478240070+488801963+496872225
1698+499173757+497959957+494418228+489945372+488278098+491140502+497084026
1688+505013542+516452439+531209469+541216923+539923638+534225558+531847757
1678+534803548+541884491+549797482+555877203+561466591+568458843+574304174
1668+575363107+574266650+576095594+581366337+586074581+587197582+587004673
1658+589843527+598538767+613524383+629001922+632256468+626066798+624043502
1648+627942583+630422385+625520824+617582842+613067323+613901034+619831840
1638+629604903+638806226+639658829+631457546+623067493+619935208+621422845
1628+624599088+627600906+630445972+632439322+632030359+630662394+632089142
1618+637167640+641537276+640588921+636692723+634357770+634531899+635861193
1608+637152483+638247683+639278555+639958582+639872515+639155001+638584554
1598+638897098+640060693+641300298+641885534+641761684+641365291+641174526
1588+641507922+642390766+643484413+644328883+644956264+646482387+650623104
1578+657617759+663776670+664013057+660539131+659752187+663027879+666516667
1568+666968662+666144527+666797122+670094109+677893084+692533437+710081039
1558+715532418+706648224+697027440+691799878+690277230+691600239+694977821
1548+700180318+708398977+720741495+736376859+752700753+764082198+762374626
1538+751410055+744139530+744486087+747834462+748269304+746367270+747168040
1528+752468729+759961666+767396635+775179491+782903935+787057887+786369579
1518+783797575+781038132+778189295+776503018+777836823+783439927+793813938
1508+806299900+811028514+801855141+789778660+784045791+784868892+789582275
1498+794634821+796132329+793459248+791010797+793078309+799542148+805432805
1488+805443600+800506401+795695047+794082562+795227228+797317292+799889149
1478+803998294+810337692+818282773+825254137+826455146+820362929+812792872
1468+809451743+810751165+813164051+813447833+813092107+816390573+825341682
1458+836146987+839095642+831453715+822124920+816856396+815630839+816415121
1448+816870592+815876986+814221246+813031476+812675751+813757790+817487696
1438+823626865+828426979+828124934+825023297+823468707+824102077+824954311
1428+825060341+825314916+826203676+827285419+828833650+831607511+834175819
1418+833000098+827718855+821869827+817830260+815541446+814197215+813502844
1408+813637193+814400477+814939500+815029559+815952922+818753845+822559688
1398+825708203+827597963+828025559+826451523+823770752+822344522+823153648
1388+824456990+823654518+820783648+818824384+820280707+825119197+831559524
1378+837942325+843508533+847705296+850051636+851231350+852671998+854499056
1368+855756555+856803842+859258652+862979833+865247057+864175000+861130223
1358+858283752+856248108+854652186+853320526+852381635+851698059+850708741
1348+849075258+847257293+846239730+846932105+849645409+853436464+856156053
1338+856285818+854567155+852815737+852040624+852260743+853076450+854106435
1328+855396319+857318243+859863555+862504620+864900574+867145024+869189245
1318+870619911+871196570+871230878+871275686+871715481+872753525+874400836
1308+876260650+877761559+878806258+879804597+881135740+882854772+884506445
1298+885170723+884435980+883124358+882220145+881498268+879911145+876944004
1288+873054535+869025468+865276707+861833466+858764067+856086106+853420345
1278+850656392+848655426+848244023+848921906+849533982+849832034+850430727
1268+851447624+852208467+852478497+852994302+854121371+854892048+854322857
1258+852915704+851912485+851848675+852531216+853731041+855222560+856556734
1248+857410372+857915161+858347045+858825733+859447864+860294848+861363282
1238+862973992+865789777+869764720+873791126+876958496+879287904+880902163
1228+881662859+881862053+882316119+883676394+885870417+888035161+889391073
1218+890430005+892391487+895469907+898687852+901525006+904201858+906425310
1208+907580401+908181977+909542992+911997654+914833995+917883652+921616664
1198+925665326+928947007+931250979+933217045+935017264+936390996+937567530
1188+939130179+941246270+943537229+945607550+947476977+949482009+951842472
1178+954201307+955709536+956050178+956185932+957395222+959479222+960963569
1168+961397745+962196667+964679427+968305225+971435477+973378696+974958056
1158+977053665+979507070+981803056+983939037+986146295+988407752+990205826
1148+990653311+989599813+988345420+988398288+989833020+991559447+992778275
1138+993589545+994566663+996124949+998185955+1000377612+1002284230+1003574262
1128+1004345457+1005242868+1006871323+1009295892+1011925496+1013703163
1120+1014222813+1014613069+1016288699+1019000968+1021295550+1022519627
1111+1023375188+1024691394+1026174854+1027046755+1028077553+1031078928
1103+1035604281+1038816681+1039520221+1039443249+1040534604+1043120214
1094+1046037593+1047719729+1047824281+1047585232+1048208547+1049710270
1085+1050925253+1050450188+1048667789+1048146585+1050270661+1052907290
1077+1053496814+1052642141+1052198574+1052106815+1051683582+1052047515
1068+1054352744+1057061981+1057955177+1057570911+1057501038+1057185979
1060+1055673165+1054524876+1055790878+1058820572+1061697062+1064052496
1051+1066123853+1067167073+1067232214+1068386640+1071536783+1073741823
1043+1071216474+1064477282+1058250346+1056266091+1058219513+1061281519
1034+1062477055+1060067423+1054917202+1050606793+1050512667+1054352448
1025+1058607329+1060769484+1061471323+1062100405+1062748785+1063156712
1017+1063229469+1062484819+1060599348+1058146238+1056498115+1056824116
1008+1058218256+1057742452+1054299285+1050767169+1050200048+1052127518
1000+1054146377+1055174366+1055482252+1055037872+1053319727+1050162487
991+1046138817+1042357153+1039929257+1039347866+1040188047+1041176774
983+1040829108+1038772613+1036058495+1033692265+1031306442+1027954887
974+1023716125+1019634116+1016452919+1014018147+1011596241+1008422068
965+1004319504+999976635+996459602+994276522+992800531+990713425+987078753
955+982118706+977177588+973807696+972577777+972583619+972164231+970228554
945+966995747+963552654+960851550+959226717+958883118+960201839+962616055
935+963828672+962062022+958927408+957606395+958593938+959645809+959225608
925+957864224+956708984+956336105+956551418+956645839+956312592+956115393
915+956288413+956118499+955317654+954605020+954378689+954262604+954143634
905+954177499+954025552+953326892+952456839+952046694+952075900+952069394
895+951841510+951228621+949520458+946338374+942883451+941153623+941886961
885+944008153+945933034+946772919+946372534+945132042+943993439+943770066
875+944264355+944737719+944903271+944471609+942609429+939226006+935943437
865+934501680+934898886+936000223+937225410+938502502+939264085+938920190
855+937976715+937641396+938359650+939521766+940583102+941639261+942830584
845+943683038+943223723+940909843+937555996+934883802+933823723+933809157
835+934004951+934161334+933941288+933109389+932786566+934480681+937639252
825+940159943+941164640+941123899+940105523+938434330+937904771+939994908
815+943592092+946190420+946983057+947221957+947991230+949269653+950979295
805+953261529+955054354+954124779+949962989+945369463+943879645+946229238
795+949792483+951058263+948919030+945878245+945272824+947368950+949202146
785+948785346+947838839+948540457+949754700+949076078+946901279+945367245
776+945010262+945377597+946985497+949941990+952239530+951994640+950138005
766+949050125+949809194+951724389+953298499+953010872+950308289+946434496
756+943600743+943003973+944079801+945891776+948161809+950459719+952047212
746+953092650+954511264+956503505+958378920+959275074+958511273+956140385
736+953649640+953261677+955635005+958784777+959752209+957302945+953507380
726+951844468+953258424+955288226+955492966+954198202+952829276+951638397
716+950399753+949416646+948805088+948021841+946593023+944871403+943879867
706+944142428+944552352+943467651+941232665+939583802+938559510+936740215
696+934523196+933897220+934999814+935367444+932561197+927047561+921665612
686+917905834+914799686+912048673+911038947+911464916+910557376+906778595
676+901758657+898011523+895572092+891026553+881570803+872437062+874737337
666+887022404+896906045+897919911+892636598+887002218+884180665+883734807
656+884584156+886549409+888476287+887556029+882819799+876680112+872435213
646+870632481+868853409+866523188+865679015+867149609+869306144+870292357
636+870287625+870058410+869546375+868845498+867382150+863078839+855532886
626+848003570+843759855+842617259+842274843+841367672+840609121+841496698
616+844117651+846903121+848831625+849611841+847478596+840596773+831938540
606+829359659+837744757+852212534+861207416+858854791
##END=
