##TITLE=<SNM>
##JCAMP-DX=4.24
##DATA TYPE=INFRARED SPECTRUM
##DATE=2/5/2025
##SAMPLING PROCEDURE=Instrument type and / or accessory
##ORIGIN=Admin
##XUNITS=1/CM
##YUNITS=ABSORBANCE
##RESOLUTION=4
##FIRSTX=4497.3318
##LASTX=599.83466
##DELTAX=-1.4281778
##MAXY=1.8750907
##MINY=0.40472847
##XFACTOR=1
##YFACTOR=1.7463143e-09
##NPOINTS=2730
##FIRSTY=0.42855498
##XYDATA=(X++(Y..Y))
4497+245405411+244763001+244627191+244798600+244484077+243258920+241617869
4487+240477342+240698891+242679637+245551733+247342093+246877647+245026993
4477+243518867+243279706+244150320+245369811+246006094+245503863+244189162
4467+243019964+242689297+243062100+243545814+243802041+243902047+243992342
4457+244107741+244215102+244186124+243767772+242840551+241777742+241404887
4447+242245073+243687102+244366630+243667818+242397914+241763458+242231420
4437+243495606+244941049+245925492+246060995+245471626+244615330+243906074
4427+243576550+243671299+244075453+244578042+244846760+244470902+243381794
4417+242165819+241513238+241430708+241346317+240830844+239993303+239387159
4407+239505545+240112167+240382370+239996068+239659359+240233829+241603431
4397+242637741+242448276+241518734+241125400+241790661+242784644+243018616
4387+242047758+240368649+238940751+238274790+238144168+238242928+238530897
4377+238776543+238453504+237372434+236055241+235437202+236210694+238160688
4367+240179714+241241328+241220491+240598117+239762897+238909315+238316823
4357+238245676+238459374+238250608+237314785+236322407+236137754+236678861
4347+237081632+236925667+236714665+237011969+237679875+238224600+238393210
4337+238107255+237292242+236179600+235359569+235112968+235003866+234574575
4327+234241995+234810527+236113111+236988947+236822061+236185863+235745837
4317+235563472+235538453+235487751+234951132+233886360+233153502+233567332
4307+234958249+236471255+237323660+237344463+237064993+236941556+236645805
4297+235769747+234779706+234466650+234888893+235516217+235975458+236179463
4287+236121354+235833402+235322707+234544641+233596702+232853570+232746277
4277+233336107+234117551+234383369+233981451+233583578+233930442+234937548
4267+235801472+235957949+235658972+235496591+235663802+235915899+236031281
4257+236009010+235874377+235631053+235490891+235774167+236527965+237509797
4247+238412597+238837332+238372868+237117129+235818504+235120903+234991766
4237+235074484+235135768+235015249+234652958+234354238+234588910+235436758
4227+236572558+237618557+238191714+238012062+237384431+237030759+236991132
4217+236454445+235198178+234210236+234269318+234805356+234764569+233975359
4207+233153707+232997486+233646364+234731614+235715546+236254451+236299948
4197+236062665+235938442+236131116+236270219+235808162+234835614+233983875
4187+233559038+233428552+233598084+234116084+234596316+234615174+234429310
4177+234633571+235288695+235919278+236201000+236250372+236318925+236449172
4167+236482894+236325649+236044438+235649620+235025539+234262594+233797533
4157+233929827+234375058+234617069+234618331+234810305+235411125+236052135
4147+236123726+235444864+234538020+234077788+234102960+234142655+234118046
4137+234487573+235359194+236132276+236248699+235827515+235398360+235267294
4127+235262584+235067231+234704855+234562953+234945484+235657078+236055890
4117+235687762+234834692+234091304+233584619+233094625+232679840+232631663
4107+233087184+234015924+235201283+236170896+236563496+236431202+235980885
4097+235387523+234861195+234448475+233948053+233420224+233384522+234114565
4087+235145308+235793605+235837532+235442526+234797881+234105554+233602692
4077+233365323+233260812+233164100+233118841+233305166+233826852+234418252
4067+234556963+234082276+233408363+232940913+232686052+232620092+232992708
4057+233917847+234906147+235231780+234757555+234027717+233537432+233310934
4047+233190620+233097048+232947432+232630297+232154741+231761527+231782910
4037+232243910+232774743+233092679+233248388+233336431+233430446+233734082
4027+234271212+234638879+234547645+234302374+234396288+234929800+235565486
4017+235900488+235811217+235363921+234573158+233581718+232818756+232556027
4007+232612242+232811008+233336294+234368829+235661959+236643996+236906042
3997+236567438+236069662+235673035+235406364+235355593+235525688+235574940
3987+235185583+234539044+234072395+233973994+234159004+234548498+235159046
3977+235954877+236732772+237241368+237436209+237532187+237730629+237947860
3967+237940982+237702112+237547478+237750255+238210350+238524754+238382425
3957+237983033+237968322+238715635+239916063+241048484+241809041+241906487
3947+241261585+240569139+240616275+241048826+240824956+239866948+239136223
3937+239336422+240574464+242713598+245106298+246355056+245595695+243977409
3927+243546292+244884663+246612836+247348032+247571339+248509892+249885245
3917+249884153+247446588+243771749+240917077+239917838+240724319+243178762
3907+247440256+253320974+259465513+263809213+265125075+263302921+258754772
3897+253097634+249148939+248932749+251802439+254297721+253700894+252097900
3887+252785704+255053379+255936007+255736644+256568945+257148006+255323634
3878+253171170+253852370+257112680+261054770+264858626+267230488+266225276
3868+263454500+262479034+263376731+263037001+260002251+256549814+255644403
3858+258852645+266430373+276107046+280481994+274332557+263890413+255770315
3848+251908332+252365492+256255190+261946818+268102348+274088191+278458821
3838+278722642+274866240+270190336+267025612+265047989+263365126+262147086
3828+261805445+262500861+265219040+270984768+277547420+279968073+278200854
3818+276319960+274287145+269536544+263545649+260190436+261219779+265905018
3808+271499491+275195031+277827283+281719319+285271727+284742822+281310523
3798+278658338+276921906+274735840+272805864+272751697+274697083+277745333
3788+281523232+285951016+290275892+294130008+298753110+305065526+311552730
3778+316533464+321447572+329180549+340872902+355132710+368693158+378730672
3768+385536461+390714135+394398342+396736056+398994105+401378647+402525574
3758+402520522+404056789+409676741+419655104+431028259+438273254+439946355
3748+441409478+447034823+455690856+461958730+464812992+469137886+478278691
3738+492507268+509115506+522605097+529070969+530477809+532114491+537842197
3728+548298847+560797323+570946652+576753475+579232595+579390011+578735365
3718+579646135+583180061+588579693+594054551+596914718+594739779+588470062
3708+581403507+575982781+573556019+573939386+575001154+574485766+572227136
3698+569908263+569930961+574181652+582516063+592241681+598492421+596752934
3688+588821413+581726256+579359702+581132296+585062355+589679620+594950440
3678+601235720+605846023+604514342+599712901+596715116+594213332+587415256
3668+577433241+569579200+566150843+566352220+568301480+570625029+573225829
3658+575793623+576551825+575261852+575398310+580116196+587948939+591631407
3648+585755160+574752471+565446502+560787049+560535840+562620364+564527062
3638+564997807+564578328+564759260+567061169+572217238+578535626+580889757
3628+575908101+567958969+562962022+563333375+568901754+576547114+580692202
3618+579428648+577405663+578267146+580413893+581345073+581758408+582798537
3608+582977387+581127859+579063302+578907730+580897812+584176638+587833711
3598+591026593+592953258+593288431+592899945+593920687+597907608+603278911
3588+605381969+601820533+595925991+591757694+590497211+591980778+595693623
3578+599924450+602140005+601176058+598599594+597643566+600888601+607939865
3568+613947929+613129588+606459916+600020496+596877924+595931452+595523237
3558+595092359+594207256+592534804+590743915+589914446+590414749+592107407
3548+594732338+597429424+598565736+596786178+592533643+588211617+586179485
3538+586563193+587380510+586705795+584473105+582206830+581233804+581303023
3528+581209707+580591514+579901440+578869775+576794569+574137008+572317039
3518+571940225+572122249+571952854+572025929+573484547+575812669+576993693
3508+576224707+574920467+574356884+573857060+572050504+569130812+566754462
3498+565734607+565074671+563554173+561404969+559787196+559387411+560186332
3488+561770622+563376381+564164652+563625167+561850081+559620292+557857629
3478+556826477+556119678+555493840+555354275+556089779+557107005+556954676
3468+554806667+551578560+549020391+548004086+547962309+547578498+546024960
3458+543964055+542957648+543455937+544096077+543562564+542227299+541186521
3448+540720044+540437502+540000206+538996496+536963681+534339911+532625715
3438+532864842+534516884+535991270+536030248+534589277+532516153+530609864
3428+529211421+528323656+527637233+526798891+526000176+525706814+525673911
3418+525176407+524220140+523525868+523407431+523408694+523042290+522273986
3408+521336354+520455245+519628030+518619575+517367045+516356132+516124003
3398+516360945+516022427+514506127+512419521+510887827+510385443+510567740
3388+510826186+510669146+509977570+509017991+508112137+507438957+507074772
3378+507024667+507311953+507940796+508563460+508633600+508170604+507809593
3368+507969193+508428401+508663875+508354130+507664943+507035657+506672496
3358+506515388+506563889+506791343+506972855+506970705+506903534+506783493
3348+506349372+505538062+504875941+505063461+506034405+506696184+506008396
3338+504217473+502589562+501957307+501913823+501555133+500812564+500509304
3328+500986499+501483184+501170026+500013269+498501781+497290380+496888957
3318+497138186+497394140+497385675+497324375+497226076+496829500+496127070
3308+495415185+494910173+494687975+494883004+495551643+496310937+496594503
3298+496431661+496273938+496013274+495163396+493889908+492878143+492525392
3288+492969036+494243956+495870877+497050024+497674395+498502532+500015214
3278+501579230+502189095+501853444+501456595+501253102+500629175+499367873
3268+497888606+496362544+494822932+493749969+493499613+493698020+493749286
3258+493303970+492272203+491009399+490062552+489350361+488405186+487490218
3248+487397414+488257430+489390090+489950566+489240047+487093062+484379627
3238+482513853+482190489+482880496+483532615+483469335+482688914+481666807
3228+480908196+480629579+480780134+481100528+481124147+480457863+479300662
3218+478368082+478019359+477856687+477446288+476927111+476520159+475990026
3208+475129498+474237534+473522305+472621877+471380747+470403489+470022374
3198+469521014+468332207+467157463+466908814+467359523+467614043+467179034
3188+465933638+463830341+461266301+459116926+457949077+457538404+457319211
3178+457000864+456605381+456169348+455579826+454641102+453319182+451941764
3168+450918838+450185450+449283282+448033960+446732382+445760482+445319330
3158+445221031+444855140+443812519+442413598+441245680+440527550+440240775
3148+440351328+440552909+440287194+439346798+438142120+437155647+436406456
3138+435668939+434916574+434187692+433320065+432241128+431193661+430325214
3128+429482298+428632385+427978491+427531604+427061577+426483079+425876798
3118+425248878+424637170+424289573+424423949+424892304+425219388+424938382
3108+423932453+422510322+421121845+419999391+419188422+418767066+418671941
3098+418510157+418031358+417536346+417298346+417013415+416360203+415536810
3088+414754955+413964227+413396003+413438326+413794831+413715543+413111344
3078+412514142+412050600+411371072+410484707+409894467+409892658+410171446
3068+410151274+409530180+408530292+407626827+407069047+406729334+406351565
3058+405792761+405041693+404169663+403308555+402566191+401924378+401262565
3048+400487605+399643324+398884406+398286794+397738264+397143929+396628336
3038+396312789+396032567+395536156+394811848+393979752+393063111+392091826
3028+391221229+390529721+389822649+388877953+387901513+387428824+387586376
3018+387773042+387437800+386853637+386597717+386597444+386264456+385340545
3008+384134570+383083588+382408258+382073187+381853823+381498854+380953088
2998+380391792+379979004+379619802+379027037+378082921+377045761+376279334
2988+375882588+375723363+375696092+375712544+375537516+374944103+374036371
2978+373201715+372673220+372272616+371669202+370784168+369862032+369182163
2968+368738793+368239173+367490290+366713214+366274656+366193081+366121575
2958+365706943+364836313+363716623+362766636+362223498+361923685+361638754
2948+361354369+361022097+360444145+359664202+359061915+358794288+358529972
2938+357987415+357398132+357168187+357328435+357488478+357183136+356294927
2928+355247494+354567455+354200334+353677130+352939374+352372071+352034952
2918+351575745+350892667+350252869+349827247+349586687+349499207+349470912
2908+349257179+348713291+348039634+347557661+347261841+346841680+346212019
2898+345676459+345411665+345170320+344697699+344097698+343607976+343330213
2888+343263008+343308881+343246420+342918448+342391182+341815278+341250160
2878+340656781+339975751+339284926+338852273+338781791+338705097+338200904
2868+337397034+336746348+336386088+336120066+335852234+335683453+335646216
2858+335575597+335274863+334732203+334092268+333402262+332553168+331595843
2848+330913824+330850783+331241659+331524986+331330469+330793510+330259554
2838+329879600+329616990+329450325+329340933+329124573+328665945+328035260
2828+327357883+326635213+325896466+325358415+325213253+325343260+325402888
2818+325126422+324501266+323758356+323224092+323038757+323012817+322893629
2808+322683242+322485585+322184851+321603179+320863375+320236717+319730681
2798+319177167+318614677+318219261+317951123+317616940+317226029+316968404
2788+316874371+316777334+316588927+316355091+316056678+315568424+314815650
2778+313849109+312810619+311899644+311279369+310949691+310766165+310582195
2768+310341874+310081142+309859627+309662380+309389839+308933260+308224003
2758+307290092+306341300+305672626+305372472+305233146+305021530+304712945
2748+304384599+304035022+303630561+303197806+302739076+302176859+301504738
2738+300872585+300391806+299967925+299444072+298834548+298316805+298004056
2728+297811963+297576591+297222952+296788183+296360854+296006260+295697403
2718+295365063+295030402+294743218+294398112+293847022+293204664+292789384
2708+292704805+292657260+292283108+291574159+290849509+290342176+290007003
2698+289732584+289483559+289179207+288686551+288026171+287413575+287028570
2688+286829548+286640663+286385358+286160994+286057541+285997640+285819455
2678+285443751+284924778+284419766+284110004+284045359+284046263+283846712
2668+283386105+282896486+282627307+282556415+282463662+282209757+281846237
2658+281525041+281357233+281308510+281249155+281117099+280933198+280677057
2648+280307359+279889843+279542110+279255455+278907619+278482782+278152302
2638+278021219+277902321+277554366+277080209+276826491+276922042+277158336
2628+277275561+277171101+276885641+276523231+276164797+275833174+275551246
2618+275360911+275242218+275092209+274826152+274475023+274194648+274149321
2608+274315423+274450328+274365938+274169544+274100922+274195774+274253116
2598+274093209+273727590+273301046+272966778+272787672+272680976+272511922
2588+272296244+272202006+272294367+272451697+272592643+272739000+272781904
2578+272494617+271892842+271298182+270955568+270841108+270871485+271029566
2568+271241114+271367265+271402881+271512393+271786419+272105755+272338038
2558+272514106+272683195+272748455+272602371+272303531+271983444+271682488
2548+271392556+271153822+270983625+270791327+270491497+270139139+269851460
2538+269676740+269619433+269653308+269617589+269289157+268683303+268108730
2528+267828850+267821137+267922900+268055570+268196551+268227287+267982375
2518+267484667+266998085+266759829+266756143+266835926+266929037+267059386
2508+267236273+267412802+267504275+267443487+267265115+267085821+266942109
2498+266745426+266467201+266229969+266127130+266086206+266006304+265920463
2488+265932187+266045436+266118648+265989904+265649952+265285528+265116764
2478+265166784+265234740+265138591+264913851+264705614+264566988+264463108
2468+264371123+264283678+264197751+264121621+264004293+263724959+263264421
2458+262789205+262470330+262321243+262270028+262269636+262272434+262179033
2448+261907174+261500529+261104909+260829944+260684134+260624779+260599095
2438+260548699+260429238+260238630+260035086+259918850+259943237+260043584
2428+260104697+260071965+259967932+259864188+259852891+259972539+260147259
2418+260252539+260240610+260169121+260116592+260091898+260034847+259920983
2408+259858130+260008275+260360224+260665890+260705449+260544211+260436969
2398+260578326+261035417+261864339+263278073+265751409+269934878+276459268
2388+285857905+298581223+314958082+335133387+359010171+386151582+415723647
2378+446556331+477303447+506846295+534814000+561210555+585112119+604705411
2368+619249466+629897186+638218012+644549439+647525449+645286820+637273111
2358+623944279+605777623+583307372+557348521+530862029+509741003+499095058
2348+500612689+512868182+531184846+548214201+558478212+561847657+561236325
2338+559236140+557308451+556672543+558297894+561612217+564382720+564592288
2328+561882471+557001504+550754792+543678202+536006902+527598323+518233716
2318+508185212+498247466+489031264+480292870+471087249+460682581+449216179
2308+437308147+425328063+413382350+401737644+390798030+380729628+371361232
2298+362401324+353647981+345086356+336849972+329065320+321776124+315024570
2288+308898616+303468641+298747785+294702362+291244174+288249699+285620433
2278+283285110+281159081+279163043+277264178+275474023+273856625+272515284
2268+271479490+270637683+269864788+269165737+268599458+268089975+267424322
2258+266508791+265556363+264872740+264481010+264118139+263581026+262915783
2248+262289074+261808687+261459998+261149570+260808629+260433146+260028840
2238+259618235+259313354+259237223+259325590+259334823+259118070+258793256
2228+258562747+258447877+258290462+257974812+257579874+257320218+257332198
2218+257502054+257569823+257440054+257273235+257217840+257218573+257165567
2208+257064776+256968115+256879253+256816383+256842784+256959429+257069810
2198+257098037+257049792+256952244+256840548+256795579+256881062+257039809
2188+257132340+257087525+256973388+256899920+256879134+256830343+256710609
2178+256561675+256442419+256390112+256407912+256429466+256364428+256212201
2168+256055263+255951930+255924795+256000124+256153051+256262238+256213805
2158+256023896+255804668+255648601+255589980+255624658+255700243+255724954
2148+255636672+255449921+255253288+255191732+255378347+255758813+256145473
2138+256433101+256701427+257091245+257667524+258412056+259266662+260149120
2128+260985858+261819951+262855267+264261305+265939286+267616193+269147409
2118+270594814+272034761+273404414+274544532+275343060+275796892+275920636
2108+275661491+274954624+273822544+272415517+270979921+269708653+268580550
2098+267443384+266264834+265194926+264387711+263840376+263403797+262926995
2088+262401162+261942722+261641903+261477320+261359156+261212509+261035502
2078+260888292+260816360+260809755+260842692+260895648+260954286+261065624
2068+261343302+261792099+262186371+262275114+262061262+261758975+261585108
2058+261673679+262016754+262400206+262577657+262562503+262588050+262786816
2048+263083506+263388472+263723611+264106893+264428362+264557687+264531286
2038+264496813+264512684+264541935+264583388+264684094+264876870+265164446
2028+265519313+265909984+266332398+266758959+267143520+267562094+268138118
2018+268718663+268934871+268717383+268412110+268308759+268386989+268515751
2008+268623095+268695044+268781210+268952397+269194749+269417817+269553285
1998+269642642+269927829+270731767+271990100+273044052+273249883+272665139
1988+271829834+271171537+270842081+270794808+270878277+271005469+271190121
1978+271400082+271575570+271757066+271990748+272268273+272725245+273567171
1968+274574841+275083045+274776610+274125753+273756551+273819336+274149680
1958+274620765+275117091+275474723+275649989+275795560+276111364+276697319
1948+277572422+278832307+280563279+282278225+282824485+281659827+279798695
1938+278650607+278587003+279050938+279442787+279600304+279693825+279889502
1928+280281880+281136554+282623108+284185640+285085709+285619426+286462837
1918+287045977+286239343+284451474+283266747+283448447+284421609+285169690
1908+285183189+284711933+284305050+284231018+284386454+284626706+285042430
1898+285829780+286824155+287477982+287739089+288384553+289732994+290765409
1888+290485836+289387547+288512172+288151912+288109350+288270963+288568387
1878+288898713+289212690+289622202+290676803+293288696+297624819+301859366
1868+303091042+300714351+297177045+294846807+294192332+294447296+294794210
1858+294952615+295107676+295482203+296050734+296767704+297848108+299670774
1848+302653167+306867951+310882213+311786361+308803013+304902137+302806930
1838+302619479+303029093+303425669+304736564+308022831+312410595+315293084
1828+315618393+314885415+313941333+312128770+309646134+307945728+307772543
1818+308518628+309374002+310380375+312072589+314289408+315856905+315881275
1808+314940709+314413988+315302812+317857500+321377876+324235243+325111062
1798+324599701+324821387+327435430+331917261+334979624+333583706+329435342
1788+326540702+326413766+327936688+329779901+331688033+333459740+334508060
1778+335178577+337096402+341603355+348028712+353044943+353503809+350310176
1768+346225330+343020092+342046691+343916971+347078725+348994877+349517945
1758+350136616+350938779+351762069+354240303+359867354+366977052+371365499
1748+371243683+368970854+367388441+367689721+369680827+372092572+373451832
1738+374498719+378111591+385025441+390331587+388800951+383273599+378168216
1728+374602411+372911766+373270729+374948540+377723651+383134137+392377167
1718+402687426+407241617+403473411+396371870+390717923+388280273+389459283
1708+393843634+399586597+404293219+408252938+414130380+422047087+427606660
1698+428280351+425731636+420317191+413488670+409359931+409787021+413478123
1688+419344847+428317657+439535717+445561495+441370090+433615577+429053809
1678+429478168+433835897+439055382+442684604+445929571+450152752+452553438
1668+450156131+446318979+445979335+449410149+452841441+453463116+453207196
1658+455918412+464181078+478675131+494628689+499859164+495422011+494221839
1648+498945766+503295098+501371812+496537708+494553940+497171021+504396562
1638+515938531+529012365+536396584+534932744+531746790+533301932+540306880
1628+550178376+560630317+571595836+582731570+591902139+599057914+607740605
1618+620330826+633817756+642455324+646657480+650991521+657182462+664078905
1608+670200354+675072242+678847957+681636310+683499218+684870560+686549429
1598+688996944+691815743+694234109+696186032+698487531+701622117+705025933
1588+708052457+710807089+713488815+715763282+717469320+719564801+723757127
1578+730808391+738538056+743031083+745080622+749370155+757564763+766786324
1568+773373670+777888882+783324284+791741840+805059954+825934754+852566340
1558+869848303+869953019+865507640+863661253+863994856+864849172+864765686
1548+863754637+864147151+868073319+875207386+883321170+887566741+880863484
1538+865935651+853541755+847565980+845260590+842388887+838479376+836495506
1528+837804592+841004506+844620279+848793287+853033466+855267658+855103348
1518+853692276+850409764+844745133+839392262+838364420+843800368+854738958
1508+865637340+865696934+852377182+838658430+832389669+832850106+836693128
1498+839455883+837505940+832055998+828432783+830275280+836547727+841641335
1488+840231696+833858492+827751310+824532146+823580350+823432355+823917162
1478+825915162+829754362+834649869+838465108+837804729+832072381+825876252
1468+823361498+824589215+826633156+826964438+826939249+829833479+836466630
1458+842762219+841519553+833085068+825154708+821223421+820666460+821629383
1448+821632865+819161663+815414414+812681968+812128420+814147173+818826763
1438+824544024+827184588+824718574+820962245+819520796+819695073+819017559
1428+817053485+815531963+815380282+816133568+817815441+820979926+824147004
1418+823867398+819764770+814912405+811086653+808203140+806091891+805080228
1408+805533292+807049967+808069549+807432242+806308081+806719163+808964823
1398+811723072+813616220+813580860+811249871+808378850+807617645+809329690
1388+810960912+809980718+807524944+806920062+809421300+813566866+817522796
1378+821003818+824795233+828933563+832159075+833644964+834304115+835366703
1368+837176774+840016189+844229267+848558939+850135072+847926206+844414738
1358+842317415+842013916+842403563+842605418+842382470+841687071+840647352
1348+839833789+839861094+841041368+843704526+847847157+852181608+854638133
1338+854501538+853163713+852336429+852575897+853385364+854072093+854635880
1328+855750211+857773879+860248972+862560574+864624517+866680951+868895551
1318+871512836+874936039+879220180+883842838+888200294+891809446+894062000
1308+894769823+894995707+896308548+899160591+902718546+905937710+908389115
1298+910389300+912389280+914009101+914212458+912926376+911536602+911030156
1288+910651841+909308691+907384142+906033142+905477273+904980657+903896635
1278+902047722+899691270+897552921+896343499+896145876+896718947+897949531
1268+899555017+901079815+902584954+904707672+907682316+910843115+913412207
1258+915320645+916953437+918536601+920127205+921618214+922515945+922385357
1248+921720677+921779725+923097959+924613951+924739761+922950100+920029725
1238+917287586+915838013+916134618+917859360+920323667+922851596+924539886
1228+924226284+921683405+918494824+916677653+916680247+917529716+918460692
1218+919272412+919555978+919064072+918590256+919260670+921205152+923559351
1208+925438846+926727863+928117910+930138779+932190229+933240939+933632224
1198+934984112+937823868+940648401+941868199+941880009+942599300+945360758
1188+949654319+953437338+954624642+953062435+950879305+950238994+951436061
1178+953695032+956679916+960165921+963319825+965388819+966556601+967644309
1168+969191362+971104852+973033497+974598093+975531595+976027391+976726613
1158+977795481+978318788+977965934+978275509+980544856+983743063+985695873
1148+985532450+984543451+985010372+987990136+992121503+994990886+995702463
1138+995614744+996404756+997970035+999005522+998866197+997774597+996449605
1128+996409330+999201506+1004061175+1007708487+1007907816+1006171469+1006018627
1118+1009149117+1013695662+1016671876+1017783954+1018760394+1019819909
1110+1020022447+1019687683+1019249569+1017527352+1014067424+1012314625
1101+1016325644+1024899728+1032234216+1034402193+1033254685+1032546999
1093+1033238370+1033976024+1034287578+1035231319+1036992992+1038048617
1084+1037781570+1037699859+1038759853+1040375783+1042813809+1047045523
1075+1051457999+1052715956+1051115931+1050612489+1052341258+1052788861
1067+1050405719+1048748489+1050233627+1052210807+1052039057+1051033810
1058+1050678977+1049925828+1048393315+1048346145+1051560530+1056981529
1050+1062546222+1067337900+1070498084+1070107072+1065658690+1059365627
1041+1053994734+1051971476+1055422257+1062796339+1066665916+1061394414
1033+1050989234+1043563887+1042765001+1046707210+1051786960+1056340331
1024+1061227032+1067196800+1072454581+1073741823+1070197111+1064517668
1015+1059568574+1056296506+1054363356+1053438046+1052952284+1051690436
1007+1049514609+1048262932+1049943576+1054396464+1058887442+1060617782
998+1059353066+1057254173+1056173973+1055812997+1054875604+1052943683
990+1050070546+1045797805+1040620780+1037220104+1038314844+1043739255
981+1050124679+1053353809+1051535273+1046056251+1040310182+1037193413
973+1036712907+1036060037+1033313460+1030584223+1031162686+1034455848
964+1036587712+1035522531+1032411155+1027959087+1021869175+1015847596
955+1012817453+1012668571+1011574105+1006899293+1000950687+997888597+998580310
945+999932607+998704959+994865144+990972631+989337109+990282898+992370255
935+993490047+992164373+988338962+983108145+978266839+975567501+975326600
925+976140913+976842388+977910846+979710814+980971434+980953822+980980240
915+981770866+981531876+978619351+974567375+972536130+973586635+975640611
905+976186240+975380869+975221952+976176410+976473834+974619664+971449991
895+969152725+968412886+967721924+966028788+964790354+965443976+966559126
885+965848573+963505638+961244141+959734974+958922640+959240543+960893335
875+962659240+962773513+961230010+959877986+959848155+960443207+960514883
865+959167842+955647159+950610620+946736606+946338630+949206443+953313713
855+956616772+957973438+957329032+955496092+953745410+953320607+954433641
845+955794881+955992299+955079276+954258682+954167960+954438079+954903908
835+956047319+957630073+958178160+956926415+955024188+953751554+952838395
825+951491627+949940547+949200777+950234557+953394946+957805783+961524225
815+962961033+961903974+959327101+957119122+957356337+960625197+964973300
805+967390233+966834569+964687959+962437862+960450920+958489509+956546529
795+955388509+956129850+958707338+960788073+959714564+955982264+952766514
785+952094529+953201488+954566414+956107186+958291068+960552019+961948277
776+962402502+962307889+961727991+960633252+959544588+959230303+960055334
766+961708878+963231151+964136733+964975484+965946326+966453864+966249415
756+965305333+963246920+960540892+958966534+959478782+960752235+961142770
746+961123724+962172181+964343024+966394270+967571062+968292811+969262355
736+970972011+973555780+975871546+975783486+972761399+968978448+967090830
726+968014569+970651242+972822904+973006464+971825850+971276056+972108938
716+973173573+974044750+975284140+975620337+972983664+968147069+964094136
706+962348028+962319630+963313135+965170649+967350299+969043913+969900891
696+969540256+967173770+963118584+959390654+957385418+956000900+952853208
686+947732500+943254492+941135529+939960443+937752260+935101730+934172324
676+936462014+943111821+953518981+961820966+959475164+945624254+932344573
666+927326396+925416797+922347744+919017857+917228060+916372174+914610365
656+912190975+912306272+917462613+925006398+927808540+922463314+914784641
646+912236438+915892761+920944523+921674394+916421460+908413895+902496212
636+900903901+901840952+902676427+903476269+904596744+903126488+896415585
626+886800963+878767116+874603460+874338189+877390449+882080483+885908351
616+887780133+888425153+889923875+894202282+900549409+904793001+903272503
606+898226202+892001812+882046283+868047105+856837510
##END=
