##TITLE=<SNM>
##JCAMP-DX=4.24
##DATA TYPE=INFRARED SPECTRUM
##DATE=2/5/2025
##SAMPLING PROCEDURE=Instrument type and / or accessory
##ORIGIN=Admin
##XUNITS=1/CM
##YUNITS=ABSORBANCE
##RESOLUTION=4
##FIRSTX=4497.3318
##LASTX=599.83466
##DELTAX=-1.4281778
##MAXY=1.7890904
##MINY=0.33452711
##XFACTOR=1
##YFACTOR=1.6662203e-09
##NPOINTS=2730
##FIRSTY=0.35470974
##XYDATA=(X++(Y..Y))
4497+212882864+212908978+213341394+213932014+214502780+214591603+213919404
4487+212911393+212094334+211592519+211610101+212424817+213580264+214120535
4477+213812892+213303118+213147311+213406339+213921837+214419591+214652774
4467+214685130+214676777+214454058+213815897+213089557+212777211+212915435
4457+213294461+213903700+214671679+215135093+214853331+213969325+213110573
4447+212900500+213595074+214837001+215673091+215289522+214031891+213206604
4437+213502334+214190165+214275679+213693180+212841476+211819334+210749078
4427+210056489+209938745+210151876+210444673+210708906+210871992+211022612
4417+211293605+211546301+211728597+212205532+212978895+213221074+212452487
4407+211371339+210747093+210486008+210348481+210467389+210667034+210293303
4397+209157065+207996645+207693224+208268461+208848170+208745844+208401123
4387+208748008+209765589+210285433+209346766+207282539+205339187+204515099
4377+204898633+205922921+206882890+207281001+207146264+207056726+207555751
4367+208498245+209086522+208626417+207251328+205728283+204598109+203868621
4357+203462032+203446042+203854133+204624241+205582278+206370379+206645755
4347+206374153+205795500+205259540+205067210+205210317+205350026+205216882
4337+204864685+204480114+204138273+203668922+202784987+201594107+200770036
4327+200903610+201912749+203223180+204256000+204730091+204678650+204261080
4317+203745278+203664325+204488002+205900760+206920362+207068710+206912045
4307+207037087+207064167+206286690+204861841+203656634+203202361+203377753
4297+203801923+204122265+204180914+204150758+204318423+204755007+205396512
4287+206107757+206455911+205922187+204655792+203572336+203394905+203914875
4277+204373709+204318244+203943475+203807146+204277124+205043457+205291324
4267+204677881+203905073+203907792+204661122+205160612+204621433+203430731
4257+202661017+202886115+203844618+205010618+206018540+206685623+207017859
4247+207086310+206825797+206257214+205818823+206073379+207070176+208264061
4237+208993245+208887180+208017625+206833274+205808878+205124768+204790439
4227+204887329+205385834+205863324+205815979+205241082+204578774+204158252
4217+204058626+204458829+205595121+207155905+208169765+207956097+206924529
4207+206061485+205969496+206620893+207524557+207958834+207609606+206989259
4197+206718409+206699986+206581347+206479110+206575123+206562030+206143422
4187+205616352+205447202+205630678+205759620+205549761+205121423+204781907
4177+204653306+204659333+204876114+205596927+206836261+208057834+208672063
4167+208605258+208142328+207530495+207028448+206948425+207309905+207734058
4157+207857294+207595225+207031256+206394937+206038716+206097472+206290124
4147+206281664+206077261+205916947+205963755+206198314+206451314+206488017
4137+206250721+205998275+205972805+206025337+205888544+205709181+205918878
4127+206631947+207455946+207805334+207329150+206243048+205256106+204931186
4117+205183345+205621467+206029165+206237127+205987883+205256571+204430909
4107+204046052+204417959+205422054+206575892+207409406+207682027+207314055
4097+206425272+205443553+204837820+204710255+204808236+204876758+204929647
4087+205205882+205819735+206455214+206582241+206021706+205110459+204341997
4077+204053600+204340494+205020831+205753181+206261345+206349757+205895197
4067+205108420+204530016+204466789+204702385+204936104+205184239+205606782
4057+206196204+206636132+206480862+205768724+205225377+205405473+205999813
4047+206407100+206458701+206221370+205733452+205232478+205030382+205041418
4037+204987098+205017308+205510555+206302090+206755827+206667183+206514059
4027+206741142+207266996+207721394+207852786+207694869+207498515+207430011
4017+207322389+206923367+206294292+205691098+205254460+205082252+205341512
4007+206036337+206907841+207764482+208659990+209594078+210281444+210431616
3997+210120594+209651886+209124888+208415468+207596603+207047139+207072001
3987+207600770+208255583+208631926+208625809+208568162+208919071+209825418
3977+211073712+212327373+213211737+213335975+212562898+211298774+210279512
3967+209997411+210462255+211418415+212497435+213213455+213220520+212693825
3957+212201240+212113329+212340519+212780269+213722084+215286195+216650714
3947+216811565+216122124+215824122+216154480+216141387+215268237+214169328
3937+213733996+214594393+217017613+220234658+222197810+221444891+219189998
3927+217982627+218687307+219875754+220137769+220014444+220800273+222484043
3917+223575511+222575155+219544359+216167698+214271243+214522777+216755259
3907+221193179+228174872+236205536+241782341+242786811+240088233+235148462
3897+229370367+225062282+224230146+226482177+228652433+228079753+226534995
3887+227371228+230544738+233157408+234381306+235647576+235942090+233230688
3878+229514726+228483480+230865133+235158944+240077161+243726730+243566756
3868+240792501+239532634+240732243+241168237+238446872+234387906+232266748
3858+234163166+241191381+252527233+260712541+256839020+245671030+235985661
3848+231288588+231652375+235291570+239850687+244239742+248738743+252730152
3838+254032374+251964355+248483650+245113571+241962669+239413298+238468567
3828+239232898+240872989+243765042+249458393+256611704+259854291+257650606
3818+254276037+251296896+246704923+240990609+237406772+238054413+242659712
3808+248438756+252148046+254524476+258421285+262707745+263221884+260428974
3798+257971036+256035090+253159206+250261930+249432423+251170727+254648302
3788+259167694+264224368+269045625+273590594+279130982+286122280+292594199
3778+296897740+300700772+306893649+316976735+330823252+346409559+360438552
3768+371645677+381344103+390082899+397673974+405066155+412645747+418352299
3758+420319743+420552085+423416879+431910169+444963506+456867513+464270962
3748+471406512+482215241+494117137+500820127+503297328+508579905+520140747
3738+536718485+553370988+563620844+564716874+560189165+555968205+555781759
3728+559861240+565647778+569821734+571171783+570342866+567770046+564244071
3718+561291276+560139048+561671608+566157105+570975715+570919946+564824298
3708+557179099+552442480+552619840+556818049+560662148+559792092+555568878
3698+552928841+554671600+560553722+569244118+579338650+588336725+592067604
3688+588909118+582843627+578264084+576529482+577222715+579942667+585104798
3678+592720628+599354006+599539164+594635022+590725961+588730328+584591465
3668+576737320+568334748+562361013+559356528+558537054+559428681+561535888
3658+562493836+559956359+556792472+558986534+568277298+579544520+583372164
3648+576168718+564269540+553891225+547019246+543115336+540720340+539030597
3638+538414990+539351296+541771189+545805740+552089049+559621172+563230890
3628+558784849+551138899+546545906+546741796+551306171+558511227+564591134
3618+566928000+567858940+570398063+573598223+575322809+576583856+579413844
3608+582554765+583205035+581675194+580755773+582165955+585477869+589592335
3598+593864843+597371179+598732175+598133417+598229752+601382442+606620089
3588+610270230+610435999+608877540+607086704+605070788+603510326+603367666
3578+604137129+604872251+606018827+608621124+613036364+619042259+625448446
3568+629190665+627568817+622439203+618163475+616539910+616250869+615368937
3558+613459051+611557034+610663297+610554048+610443297+610758809+612701106
3548+615664846+616815071+614356293+610355297+608173039+608406347+609012474
3538+608244369+606088083+603014521+599330110+596337501+595842519+597569573
3528+598782006+597444226+594513682+592292719+591832973+592706570+594381826
3518+596523660+598133989+597849992+595467803+591969731+588203938+584919498
3508+583475188+584813039+587762471+589475037+588147095+585257403+584027657
3498+585786513+588859109+590874631+591207529+590469938+588945642+586725752
3488+584444941+582980385+582598586+582493201+581181249+577940881+574002129
3478+571649702+572041839+574036613+575182831+574059937+571429595+569313945
3468+569243652+570715650+571273305+569048121+565062542+561691140+559798138
3458+558847558+558556264+558990755+559681985+559786834+559143110+558512228
3448+558291942+557445425+554909414+551686574+549827520+549729862+549960486
3438+549473660+548624710+548098248+548001985+547971292+547564489+546657587
3428+545613678+545018211+545189168+545825701+546181600+545767285+544863389
3418+544084910+543448556+542329596+540460204+538489039+537327331+537113484
3408+537152512+536844154+536271295+535770625+535310914+534583877+533556029
3398+532567889+532022790+532181226+532856572+533193584+532410670+530878396
3388+529813238+529860565+530451059+530611641+530166884+529944093+530764067
3378+532333330+533367187+532898140+531155703+529112958+527589341+526869065
3368+526839087+527343406+528419403+530074770+531914328+533222953+533407145
3358+532383161+530752441+529405683+528622483+527974932+527354031+527153169
3348+527075185+526149360+524646671+524500111+526768401+529883996+531493037
3338+531248211+530527254+530064181+529287992+527698662+525764736+524418622
3328+524181809+524722472+525148843+524863988+524040007+523142657+522205779
3318+520952387+519782272+520002809+522261691+525033549+525820612+524137057
3308+522025701+521589063+523184332+525543341+526685767+525346521+522445633
3298+520421274+520571697+522029457+523434989+524345324+524582495+523722277
3288+522109909+521158364+521880966+523775613+525448937+526072593+526028128
3278+526067907+526124999+525503598+524105435+522676436+521811603+521593535
3268+522076068+523191057+524280362+524562248+524050309+523413669+523109961
3258+523047968+522779997+521800156+520073638+518363540+517557982+517696815
3248+518125332+518454509+518752887+518989915+518920015+518369586+517424551
3238+516495615+516027640+515954558+515795263+515397045+514973679+514395955
3228+513264547+511717142+510396819+509584644+508965817+508275947+507670965
3218+507392763+507531167+508063209+508617001+508346777+506699065+504357514
3208+502761601+502496599+502689842+502153220+500676430+498895109+497355752
3198+496278324+495828666+495913124+495946500+495420217+494631257+494402099
3188+495007833+495699027+495474054+494131052+492242521+490329880+488513073
3178+486915980+485985076+486094682+486850910+487192107+486460383+484934871
3168+483137524+481247061+479382176+477912254+477179600+477012937+476709802
3158+475698839+474177833+472820129+471958086+471461316+471263709+471439602
3148+471705927+471354607+469958626+467919422+466084120+464930104+464314819
3138+463923004+463666767+463622803+463813362+464156276+464512247+464640562
3128+464153200+462815921+461016106+459612363+459169393+459408102+459451423
3118+458711114+457471851+456418462+455775705+455214078+454403476+453372624
3108+452452380+451941837+451679053+451155131+450193856+449157709+448432210
3098+448101780+448060249+448093445+447945741+447424109+446535416+445653412
3088+445239597+445153458+444791620+444081825+443537799+443325525+443094436
3078+442609434+441951473+441317765+440902770+440678263+440331450+439728328
3068+439136080+438730279+438239875+437345172+436112922+434776466+433433893
3058+432277838+431768189+432090212+432717623+433011994+432899025+432528530
3048+431793659+430651590+429476396+428709258+428423150+428344344+428135469
3038+427653043+427000448+426378259+425905563+425522011+425060190+424467048
3028+423817172+423063842+422076524+420987828+420114016+419493437+418966546
3018+418665021+418830110+419157857+418946585+417947034+416521719+415063423
3008+413847162+413216925+413287790+413642723+413759234+413454990+412686957
2998+411455136+410109487+409133473+408488641+407703544+406598107+405442337
2988+404490935+403794340+403361029+403179163+403162063+403235361+403370795
2978+403485124+403448028+403238902+402984454+402718486+402177357+401068021
2968+399531919+398048332+396901362+396102530+395747990+395976539+396569180
2958+396981457+396825275+396143632+395321583+394839229+394846812+394852965
2948+394176295+392867420+391738980+391269289+391031832+390504548+389804447
2938+389207370+388563432+387661574+386745766+386299577+386480943+386895402
2928+386932355+386360605+385458569+384529417+383591573+382606438+381664730
2918+380860782+380217559+379732057+379320424+378800187+378078729+377283152
2908+376619467+376183187+375957142+375903269+375970700+376080700+376157789
2898+376097119+375747838+375113916+374496663+374157362+373890858+373272175
2888+372300097+371421349+370932698+370707261+370475527+370073088+369492038
2878+368960317+368829426+369114067+369291927+368811003+367682170+366388820
2868+365367662+364765649+364521145+364437152+364283008+363995220+363688758
2858+363421717+363093756+362588936+361913876+361239173+360826503+360768874
2848+360796240+360534601+359920067+359169706+358457657+357801985+357147315
2838+356427647+355648417+354947815+354479019+354212729+353930628+353431997
2828+352705460+351919828+351294133+350947928+350837284+350839037+350860787
2818+350841756+350711294+350401756+349906344+349330874+348826591+348377970
2808+347765654+346870307+345830154+344807744+343875731+343168440+342832716
2798+342812326+342875357+342801201+342451204+341781724+340898719+340069694
2788+339574569+339409014+339201928+338651356+337925355+337358828+336978747
2778+336645742+336380740+336208353+335910691+335260707+334373445+333590388
2768+333070473+332658268+332178131+331723858+331506362+331461002+331256205
2758+330760257+330203103+329740924+329206127+328464387+327658543+326939303
2748+326278373+325655970+325178015+324924031+324795716+324546096+323977316
2738+323144642+322287286+321550303+320927256+320460928+320276020+320346957
2728+320406983+320218141+319849327+319541613+319354989+319104797+318605594
2718+317851476+317025135+316404520+316156260+316151216+316051804+315607869
2708+314838835+313953719+313158178+312574802+312268876+312180161+312036964
2698+311536151+310672248+309785666+309271438+309280417+309635243+309962274
2688+309954440+309583874+309058807+308565757+308114131+307652524+307205584
2678+306810442+306448784+306106371+305745606+305252770+304646321+304230360
2668+304219772+304338572+304149157+303676032+303333368+303300279+303297524
2658+302978435+302304877+301508083+300825868+300326665+299950912+299691813
2648+299620822+299653948+299490915+298985666+298384386+297974811+297723885
2638+297473049+297232516+297056105+296848106+296490275+295992109+295443057
2628+294985153+294786652+294829776+294818042+294503567+293979126+293472554
2618+293022913+292535765+292008641+291560861+291303210+291222114+291179599
2608+291055236+290854965+290616560+290307934+289939746+289656519+289568787
2598+289568715+289415252+288972694+288360772+287883247+287737743+287797160
2588+287777164+287570489+287292699+287074237+286906715+286639567+286162292
2578+285646812+285433108+285574069+285724366+285573675+285154369+284683086
2568+284324021+284102590+283897257+283574858+283204096+282995167+282964546
2558+282841006+282421468+281872290+281509791+281389507+281309913+281147614
2548+280976854+280882290+280838487+280794326+280754046+280728093+280678835
2538+280572072+280435958+280317659+280234166+280193332+280187537+280141105
2528+279933893+279526231+279081062+278916277+279170421+279505179+279405553
2518+278841262+278319433+278203566+278322527+278370694+278371231+278511906
2508+278722551+278727399+278465813+278165611+277999073+277931642+277886140
2498+277828886+277742478+277659522+277635840+277633336+277548180+277346567
2488+277072461+276780648+276527666+276348232+276221884+276117715+276033024
2478+275946616+275815528+275657378+275546376+275489910+275407186+275282448
2468+275245066+275404718+275652960+275729728+275493737+275047853+274573225
2458+274152292+273827210+273685766+273731984+273784426+273675607+273467197
2448+273348540+273414987+273613202+273806391+273866917+273780438+273651568
2438+273586856+273620500+273728765+273832469+273819913+273662317+273471257
2428+273361704+273308708+273222138+273113086+273087616+273209886+273447451
2418+273705119+273849783+273773730+273515204+273266442+273199870+273311587
2408+273460007+273537508+273575051+273664088+273810862+273934831+274005589
2398+274102228+274303966+274558916+274688394+274548792+274222978+273989974
2388+273990797+273952574+273367321+271916214+269606071+266569301+262915958
2378+258766632+254291544+249693275+245162847+240770859+236399762+231940772
2368+227640003+224126155+221934096+221020291+220955811+221681865+223841103
2358+228136971+234501287+242304904+251273412+261179585+270540141+276973068
2348+278985586+277055237+273467966+270626656+268980770+267490511+265566261
2338+263466280+261453226+259374905+257110264+255060668+253815486+253393354
2328+253238334+252955590+252648162+252601067+253000538+253941029+255404011
2318+257115809+258617729+259655110+260417348+261268945+262361004+263646072
2308+265071744+266506681+267630667+268181007+268268130+268261137+268398485
2298+268653399+268937628+269275534+269722188+270205741+270557866+270697432
2288+270700884+270665773+270579795+270380560+270095741+269845459+269701547
2278+269608557+269467149+269250046+269013877+268826698+268699653+268574217
2268+268368579+268053049+267709241+267510865+267577169+267822103+268030942
2258+268103184+268102809+268076444+267993828+267869662+267781215+267772773
2248+267852760+268015792+268178217+268202864+268069952+267916828+267855514
2238+267856712+267859878+267895919+268012430+268130335+268100555+267930636
2228+267823552+267906257+268050330+268084261+268052405+268115347+268293189
2218+268443129+268430448+268245361+267988337+267781036+267693984+267741114
2208+267880430+268009943+268045626+268008548+267963851+267918724+267859807
2198+267829347+267886618+268018296+268117314+268076301+267918348+267768820
2188+267677690+267595234+267542381+267625462+267842779+268029887+268037971
2178+267880930+267701657+267623119+267613049+267530057+267353163+267277576
2168+267476595+267860218+268200306+268409199+268568869+268759983+268966282
2158+269096923+269082292+268986654+268946625+268969054+268943620+268863472
2148+268828630+268861022+268928184+269073724+269318604+269524206+269538497
2138+269416549+269363588+269493978+269744116+270003681+270223412+270380900
2128+270458008+270496785+270568437+270662804+270713279+270731720+270807146
2118+270973577+271168554+271316437+271396925+271450780+271561943+271794302
2108+272097616+272338489+272483600+272656810+272925210+273147553+273178442
2098+273132851+273264994+273612540+273951036+274133493+274274705+274493631
2088+274675641+274667002+274549383+274534609+274680882+274863732+274969100
2078+275006071+275056492+275192123+275440401+275769256+276098881+276383450
2068+276664120+276959063+277159531+277171390+277091045+277078990+277143309
2058+277201725+277259730+277378512+277554601+277747182+277946112+278133416
2048+278270693+278388652+278598153+278935737+279266756+279423457+279392085
2038+279292566+279241269+279311168+279534405+279849327+280123236+280291223
2028+280383498+280416856+280390349+280386843+280568567+281056126+281795290
2018+282482996+282737141+282494515+282117009+281989624+282168843+282469492
2008+282742024+283005452+283361172+283804660+284203522+284483834+284677542
1998+284811366+285031885+285714332+286994178+288301533+288850335+288504112
1988+287745022+287084217+286816962+286972124+287301964+287553533+287723917
1978+287903494+288073538+288187401+288265188+288414037+288865878+289761529
1968+290740278+291096070+290591787+289760080+289223011+289113011+289248338
1958+289489802+289749402+289898304+289873353+289794922+289874641+290231005
1948+290888143+291960957+293551682+295165696+295646137+294433614+292477546
1938+291116961+290716132+290832249+291073856+291361072+291652599+291831532
1928+291983869+292602069+294020336+295676812+296746620+297446810+298408121
1918+299038037+298212321+296380937+295156574+295297374+296239421+296978031
1908+296941096+296293545+295583356+295140977+294948468+294964530+295314741
1898+296119316+297157233+297914391+298358845+299244247+300866613+302111420
1888+301821521+300497156+299393775+298962647+298974165+299194666+299455894
1878+299613507+299684265+299922741+300951572+303649703+308153802+312588860
1868+313864074+311239097+307350390+304824611+304139964+304388403+304680305
1858+304698442+304559573+304531027+304794097+305462218+306690390+308629825
1848+311506639+315447859+319304586+320354791+317654263+313952825+311980122
1838+311903176+312393650+312796841+314071267+317369372+321809045+324604620
1828+324630304+323623706+322673627+321054606+318709047+316942000+316504289
1818+316857005+317278045+317914579+319448248+321828004+323761823+324031582
1808+323043406+322314652+323036288+325483118+328882816+331608098+332429968
1798+331951513+332177058+334710421+339136250+342278352+340948979+336615765
1788+333353575+332923412+334293315+335993934+337666650+339199317+340103928
1778+340716172+342686014+347462412+354284023+359295410+358962298+354707747
1768+349985365+346579371+345481481+347170509+350168770+351916859+352213912
1758+352619857+353238433+353789685+355856255+360995635+367605009+371515537
1748+370916314+368085289+365839071+365441568+366800274+368712522+369693686
1738+370429739+373829079+380715117+386050780+384232721+378104629+372444939
1728+368574798+366771048+367072717+368715455+371523836+377086833+386679587
1718+397589050+402739771+399076931+391518015+385169743+382123153+383014422
1708+387592283+393964165+399331057+403614226+409694778+418138308+424346496
1698+425106730+422139054+416255108+409011203+404508822+404691618+408269535
1688+414106190+423299331+435210635+442025522+437998125+429968982+425174161
1678+425474041+429653291+434469253+437520851+440332487+444467844+446845884
1668+443957337+439216962+438093208+441057164+443991356+443703425+442311486
1658+444086690+451772598+465908657+481290918+485290341+479354453+476873210
1648+480389383+483082971+478743854+471194275+466740651+467268830+472634649
1638+482125273+492210577+495301560+489281070+482077660+479612980+481855335
1628+486028038+490131344+494157810+497438494+498108367+497218458+498643701
1618+503752030+508598578+508396214+505126941+503410798+504447946+506714877
1608+508505177+509491600+510320302+511443769+512730466+513926336+515171500
1598+516818925+518786763+520447889+521340982+521688510+522005632+522552628
1588+523327028+524306905+525539513+527010151+528671992+531030715+535372228
1578+542210546+548585396+549608844+546776280+546170332+549560479+553343980
1568+553858923+552476750+552175690+554437076+561143751+574820386+592559617
1558+599829707+592160755+582302928+576573983+574993810+576203274+578562927
1548+581803832+587771307+598003205+611677873+626573415+638620261+640359370
1538+632446737+625865623+626145935+631040096+635346803+637794134+641884919
1528+649604310+659227792+668679996+678500012+688801381+696435419+699756812
1518+701283720+702301587+702161645+702026354+704705633+712111228+724469938
1508+738834117+745491427+737743776+726059232+720415855+721858197+727802706
1498+734075892+736230247+733752438+731428593+733790285+740838228+747710387
1488+749088052+745427537+741092141+739121441+739919379+742334300+745502087
1478+749779532+755827351+763344628+770047154+771746628+767293397+761819509
1468+760361141+763208908+766728766+767542230+767301625+770331902+778330389
1458+787620115+789585664+781870279+772236709+766083504+764122177+764952883
1448+765767920+764169038+760632582+757544354+756503878+757926188+761831529
1438+767145299+770351147+768688662+765026359+763497877+764149721+764236434
1428+762742079+761661610+762435223+764416369+767148447+771167974+775094420
1418+774984671+770024116+763964492+759735554+757693453+756900522+756488997
1408+756474760+757106428+757746897+757776588+758168581+760214546+763549032
1398+766846386+769357963+770405951+769148838+766586678+765421644+766929878
1388+769418705+770104962+768949371+768915102+772023434+777455611+783229057
1378+788475075+793622289+798746466+802747033+804913122+806267463+808072036
1368+810432941+813219895+816818452+820880404+823556535+823413303+821339578
1358+819298049+818202127+817537476+816525762+815275661+814416838+814036006
1348+813731940+813492337+813809638+815004650+816891785+818957210+820567181
1338+821206720+820883123+820281503+820233998+820927695+821800899+822438076
1328+823381894+825588906+829139529+833025910+836297794+838830692+840909568
1318+842821386+844889315+847220600+849576569+852015958+855155126+859129079
1308+862792813+864801575+865368853+866037367+867624372+869415280+870712672
1298+871956191+873438384+874198332+873417850+871854312+870693140+869821940
1288+868272281+865847201+863246621+860855811+858468220+856097156+854179041
1278+852941174+852189668+851606364+850969330+850299671+849877056+849965271
1268+850517740+851197200+851549343+851340790+850923184+850863444+851132452
1258+851328198+851648576+852735841+854581051+856449442+857977137+859578737
1248+861514952+863427486+865182693+867136365+869201647+870739573+871615137
1238+872388608+873388231+874376693+875096290+875702846+876679002+878365598
1228+880623121+883053710+885197762+886538082+887325145+889138876+893103814
1218+897832420+900716960+901191087+901179497+902464369+904875713+907078718
1208+908528572+910209087+913451494+918416270+923813175+927860032+929581970
1198+929532318+929238913+929875661+931454797+933151480+934373393+935478258
1188+937378057+940744308+945705578+951547206+956430134+958623266+958594076
1178+958587780+960040496+962652094+965384673+967367607+968249754+968280446
1168+967895679+967470345+967912277+970345442+974253716+977241067+977861360
1158+977672195+979470687+984144848+989593051+992555933+991935354+989951562
1148+989084439+989052745+988367633+987592445+988899639+993245911+999341665
1138+1004666239+1007282702+1007414344+1007011261+1007462279+1008454533
1130+1009251183+1010024367+1011137246+1011845467+1011024277+1009271860
1121+1008858403+1011242488+1015666028+1020249469+1023672170+1025382518
1113+1025137978+1023696781+1023166134+1025098485+1028626643+1031557115
1104+1032878189+1032997668+1032198299+1030489811+1028917400+1029422864
1095+1032914748+1038037780+1042244325+1043745762+1041875869+1037212941
1087+1032713636+1032735314+1038983959+1048271396+1055652738+1058950664
1078+1058806931+1056373981+1052908211+1050238233+1049981387+1051907228
1070+1054306481+1056047880+1057421539+1059251081+1062304324+1066014705
1061+1067474576+1064421333+1059307243+1057241389+1059877669+1064349215
1053+1067269242+1067792592+1067203421+1066802914+1066321131+1064682900
1044+1062478392+1061798860+1063382288+1065994816+1068417178+1069562323
1035+1067708813+1062769365+1057922137+1056953493+1060810613+1066857359
1027+1070864651+1070055480+1065129268+1059957299+1058448063+1061043920
1018+1064892812+1067551343+1069079825+1070145484+1070938629+1072023104
1010+1073424379+1073741823+1072124268+1069488059+1066826810+1063753963
1001+1059290216+1053746214+1049244262+1047699468+1048476944+1049081855
993+1048221816+1046754075+1046086849+1047190069+1049910128+1052246851
984+1051941856+1048955579+1044899922+1040949293+1037413195+1034499178
975+1032449564+1030869856+1028811085+1025949009+1022833165+1020107024
967+1018128812+1017051921+1016371244+1014488043+1010444120+1005560262
958+1001694271+999087252+996887394+994510392+992082450+990245253+989403314
948+988743815+986583736+982273381+977095044+973097983+971190457+970270821
938+968722021+966763412+966170521+967506905+968767380+967419334+963359957
928+959128444+957406147+958927403+962366344+965295099+965806716+964121551
918+962135827+961315209+961593875+962051118+961787976+960317374+957544157
908+953885574+950667492+949405872+950088480+950959466+950759570+950466952
898+951952578+955318687+958308970+958707904+956639760+953719233+951129885
888+949461391+948925377+948712818+947480317+945160264+943021363+941606351
878+939915677+937261511+934878427+934519702+935979644+937386428+937813908
868+938181648+939604243+941953343+943871171+943827386+941724901+939306045
858+938291826+938641323+939142851+939112015+939020367+939606533+940786878
848+941861050+942589233+942933363+942003567+939095274+935775670+934846947
838+937211859+941155047+944265669+945197539+944044596+941932523+939786468
828+937193543+933585041+930050231+928420012+929086308+931134491+934021393
818+937764899+942122832+946349910+949716877+952173509+954020293+954981568
808+954317847+952340780+950689599+950009495+949124272+947346958+945686762
798+945901825+948528018+951761482+953106452+951882822+949657638+948186177
788+947542919+946867035+946510957+947925826+951160507+954147356+955244495
778+954870459+953852377+952097170+949550678+947316336+947086249+949543739
768+953502452+957214908+960058096+961713784+961305121+959293068+957841211
758+957776105+957931643+957701556+957033471+954923474+951451837+949494087
748+951352962+955661243+959780073+963427996+967503614+970889182+971087146
738+967581454+962703892+959466564+959356815+961622923+964162331+965534202
728+966338293+968013728+970646646+972600818+972204818+969861800+968369877
718+969628206+971784708+971847882+969517670+965992947+961537856+957009575
708+954482615+953954400+952413684+947949006+942575281+939830897+941039216
698+943995087+944998788+942944738+940205577+938701134+937366825+933933894
688+928029807+921912446+918369765+917940640+918255723+916375814+912005217
678+908079057+906957092+907777353+908433633+907607720+903894262+896604569
668+889754804+890020450+896222949+902586639+906858146+908080559+904972012
658+899187835+895304601+895656029+897628016+896671964+891559520+885414901
648+881587687+880712122+881117137+880576473+878547822+876928407+877256726
638+879007640+881468350+884290718+885813834+883277287+876748043+869996652
628+865680215+863143454+861010276+860553463+864663922+872219047+877658020
618+878157260+875669005+871367092+866832730+867606557+876755841+888229757
608+892139176+887212391+880159368+873962234+865977126+855424421+848718747
##END=
