##TITLE=<SNM>
##JCAMP-DX=4.24
##DATA TYPE=INFRARED SPECTRUM
##DATE=3/5/2025
##SAMPLING PROCEDURE=Instrument type and / or accessory
##ORIGIN=Admin
##XUNITS=1/CM
##YUNITS=ABSORBANCE
##RESOLUTION=4
##FIRSTX=4497.3318
##LASTX=599.83466
##DELTAX=-1.4281778
##MAXY=1.7161022
##MINY=0.17992994
##XFACTOR=1
##YFACTOR=1.5982448e-09
##NPOINTS=2730
##FIRSTY=0.19726281
##XYDATA=(X++(Y..Y))
4497+123424655+124210408+124787334+124656004+124141927+123865161+124013748
4487+124501020+125298213+126231173+126843622+126761436+125977790+124783511
4477+123715072+123449064+124283401+125777075+127195983+128128795+128430753
4467+127930662+126737185+125608637+125360176+125879110+126245606+125966229
4457+125595062+125826629+126404506+126384880+125309513+123796876+123025873
4447+123634573+124974055+125601598+124716895+122903530+121392823+120921392
4437+121264085+121612773+121450554+121011233+120700286+120446548+120076239
4427+119846426+120048605+120502443+120869003+121095899+121207603+120962546
4417+120147098+119122982+118651690+119064542+119911382+120453028+120227485
4407+119231646+117914830+116923905+116578285+116645106+116638337+116218427
4397+115480961+114990808+115196288+115734587+115847158+115521965+115489781
4387+116048368+116693672+116943056+116774935+116235471+115269300+114012293
4377+112932898+112579716+113136429+114193140+115127248+115704183+116045142
4367+116129239+115756674+114982827+114162373+113511437+112998013+112690032
4357+112801624+113390204+114420176+115933577+117619053+118601642+118357824
4347+117424239+116601920+116060702+115665630+115513733+115761121+116284885
4337+116626916+116239638+115061144+113801163+113247807+113407322+113714614
4327+113934983+114339565+114965215+115292823+114997195+114505466+114374593
4317+114623390+114989009+115264498+115236108+114919875+114866769+115624561
4307+116905351+117758597+117620031+116904829+116452577+116537495+116683444
4297+116405269+115824437+115518348+115964969+117097918+118298965+118930573
4287+118885616+118506133+118045134+117433600+116628557+115993881+116059817
4277+116874248+117865341+118449325+118549048+118478628+118559472+118837106
4267+119038940+118937706+118748934+118851678+119194530+119430954+119524179
4257+119752212+120297019+121184602+122283921+123130705+123255099+122821614
4247+122428491+122287520+122127847+121784166+121426164+121285435+121421605
4237+121707434+121954682+122095047+122229034+122495573+122905777+123296458
4227+123502012+123541637+123492036+123321342+123112767+123165948+123550541
4217+123904282+123982384+123982021+124072272+124075162+123828911+123436235
4207+123092078+123045098+123540490+124354754+124762907+124500582+124231899
4197+124472211+124693755+124230715+123477743+123401598+124270861+125457047
4187+126257083+126507092+126452065+126271413+125926837+125508093+125436871
4177+126023186+126975884+127713332+128059689+128272674+128449829+128312877
4167+127746561+127215618+127261424+127774783+128234765+128529694+128957678
4157+129517756+129835033+129739748+129436045+129198745+129184573+129356796
4147+129463792+129282842+128939199+128840817+129248886+129951204+130440032
4137+130471760+130310231+130321270+130520354+130664662+130641633+130608684
4127+130734122+130880379+130752564+130375644+130120489+130208055+130509352
4117+130861135+131292839+131874986+132466019+132702303+132408269+131931524
4107+131747106+131907012+132251411+132794987+133432982+133723575+133459106
4097+133015152+132798185+132798735+132871281+132970548+133023925+133001726
4087+133069750+133356381+133786555+134324183+134990223+135561555+135703579
4077+135434830+135075942+134822904+134660014+134523668+134375704+134257548
4067+134295858+134563180+134975846+135356961+135557368+135567344+135555821
4057+135743632+136215977+136847408+137375479+137602822+137569370+137482913
4047+137528179+137765572+138072333+138201071+138035020+137693651+137335901
4037+137029281+136833628+136846438+137133517+137618980+138012196+138030359
4027+137822669+137897182+138447219+139071192+139360489+139441323+139713895
4017+140275586+140751334+140634045+139800500+138729944+138119500+138231643
4007+138731538+139152753+139302609+139220003+139077401+139127692+139451467
3997+139831501+140063459+140222582+140455939+140743101+141048062+141496986
3987+142188423+142895989+143157326+142786094+142210566+142084718+142574712
3977+143258830+143711829+143873031+143830955+143628123+143350359+143099949
3967+142918925+142961244+143490798+144470068+145434757+145942689+145913814
3957+145556773+145215413+145139362+145340841+145840597+146688761+147452995
3947+147431150+146760440+146341239+146458658+146449745+145838844+144962113
3937+144512518+145125964+146982674+149231854+150325756+149676975+148436909
3927+148038378+148714580+149595599+149882240+149730901+149782022+150130486
3917+150084531+149026776+147344666+146100004+145966725+146801994+148254309
3907+150510286+153864539+157574443+160013496+160471035+159566138+157790505
3897+155382397+153341334+152975501+154308745+155461422+154813228+153719000
3887+154271964+155891635+156573011+156577524+157420551+158289608+157497283
3878+156131480+156481511+158789718+161710682+164144663+165060039+163612909
3868+161123826+159901279+160169422+160244867+159242857+158099690+158034593
3858+159961117+164798852+171979683+176227206+172443786+164858504+159205750
3848+157151643+158167807+161032662+164529386+167965004+171114989+173375087
3838+173655648+172084255+170283486+169138603+168218863+167250473+166780254
3828+167103591+167983669+169857217+173454542+177364201+178440128+176870469
3818+175629946+174859362+172682317+169713711+168310233+169533097+172764587
3808+176050788+177643588+178480927+180332677+182252339+182038869+180517710
3798+179643394+178909881+177390214+176088380+176280648+177702643+179443126
3788+181274663+183358138+185496565+187619404+190271311+193578937+196564083
3778+198652798+200837320+204299305+209296005+215438278+221827715+227410021
3768+232065651+236423247+240912937+246214924+253281580+261860220+270177394
3758+277260646+284725674+294927863+308648426+323953024+336597343+345074302
3748+352955343+363276816+374905476+383731616+389143769+394903948+403901044
3738+417131435+433630890+449622478+460521186+465406041+467471783+470022867
3728+473775557+477480436+480244169+482646152+485258248+487786582+490191586
3718+493040311+497119098+503825831+514431148+526963996+535894075+539349831
3708+541619608+546786666+555133805+563926642+570476182+575113668+579757941
3698+584632989+588831937+592427993+596537025+601692411+606123513+606961281
3688+605068657+604080371+604612031+605295776+606177216+608532991+613108942
3678+618922974+622382982+620573822+617185828+616941516+618349842+617548771
3668+615051838+614160404+615626946+618026542+620554615+624055647+629089902
3658+633575005+634669653+633810031+635321400+640552156+647201568+652262712
3648+654801526+655321327+654389578+653149559+653209975+655504813+659328175
3638+662938887+665451819+667589873+670716811+675758487+682152288+686567726
3628+685466291+681155350+679187355+682098436+688433312+694424937+697639141
3618+699971049+703884811+707896581+708875470+706768593+704656495+704582802
3608+705832891+705877867+703220459+699556043+698358688+701317132+706532299
3598+710897839+712824586+712052306+709865919+709460087+713044396+718804575
3588+721685224+719104492+714328571+711733220+713204386+717786006+722424163
3578+724593321+724065091+722299900+721137303+721511509+722932329+724109620
3568+723429828+720110828+715909754+713207221+712551223+714142923+719111503
3558+726773219+732653633+732364233+726624267+720355103+718351903+722536343
3548+730328438+735138669+732135771+724110142+717600283+715437540+715725821
3538+715384807+713529141+711564503+710828920+711603885+713742835+716701353
3528+719611688+722196000+724051591+723851472+721600940+719473178+718610871
3518+717926828+716861343+716478783+717547475+719559551+721510241+722405517
3508+721476528+718975381+716389353+715366533+716424633+718552021+719875429
3498+719166772+716993587+714751185+713058717+712366544+714127558+719244194
3488+725514254+728883154+727787611+724242013+720986561+719495033+719768620
3478+720931590+722391121+724641504+728348510+732751492+736189609+738014992
3468+738570073+737426272+733708451+728210523+723592579+722043244+723727209
3458+727270420+730409441+731453817+730867110+729898441+728642534+727080520
3448+726024135+725126995+722679551+718920559+716596557+717597076+721402984
3438+726151531+729797598+731446134+731787671+731570695+730728377+729349699
3428+728051203+727293766+727508877+729120417+731197459+731443896+729055824
3418+726355155+726116624+727974751+728641639+726104615+722360167+720750044
3408+721639874+722317951+721240234+720234121+721435281+724453171+727645745
3398+729934019+730519457+729172256+727201799+726094173+725816558+725880480
3388+726463680+727711457+729259374+730511327+730755154+729743224+728168604
3378+726731524+725749951+726165181+729000704+733091090+735428666+734536747
3368+731644910+728633807+726266471+724568931+723774274+723743917+723431022
3358+722350545+722358675+725873319+732176049+737323788+738494814+736780940
3348+734821150+733636996+732429796+730291294+727603305+725737271+725673723
3338+727036588+728452336+729310466+730323068+731921929+733412040+734138747
3328+734362361+734408083+734062892+733393170+733151058+733680034+733856433
3318+731900895+727648729+723404394+721886163+723716170+727110355+729606952
3308+730178443+729816171+729991302+731077671+732607836+734098769+735023730
3298+735203933+735486098+736580299+737535767+736907440+734734926+732064689
3288+729560559+727610316+726779932+727328226+728793276+730243185+730700481
3278+729863235+728712945+728485826+729323743+730548845+731436661+731388030
3268+730438381+729706452+730242737+732050592+734359229+735971440+735845984
3258+734060356+731728821+729787156+728721150+729023006+730708313+732725685
3248+733946013+734339910+734199462+732987935+730148757+726550426+723997813
3238+723476147+724764499+727335461+730420927+732425544+731907757+729301963
3228+726223657+723792996+722989463+724998630+729636041+734382649+736348033
3218+734941310+731874789+729109304+727179349+725592497+724691553+725721384
3208+728753670+731951465+733394363+732604704+730158752+727223654+725460850
3198+725914119+727597934+728013015+725665593+721659640+718315802+716857017
3188+716817784+717016262+716707096+716235404+716499295+717368838+717486761
3178+716295820+715189835+715806898+717947712+719817549+720043625+718909967
3168+717391885+715554344+712656839+708814606+705703034+705227239+707639180
3158+710931627+712590381+712095119+710910220+710219837+709812961+709035535
3148+707624187+705659848+703429006+701296024+699703279+699262168+700264402
3138+701998042+703240672+703432661+702586166+700649722+698256727+696944283
3128+697214216+697517638+696481765+694963534+694423743+694683606+694753197
3118+694687709+695261735+696516299+697508240+697193406+695315662+692488791
3108+689457923+686636571+684516119+683781953+684348521+685038232+684905616
3098+684105514+683214416+682638003+682572664+682688275+682259619+681250673
3088+680534631+680479959+680245604+679173332+677915561+677403816+677407918
3078+676810322+675125611+673217734+672298367+672439636+672491698+671467684
3068+669517889+667604567+666769037+667525654+669313668+670551301+669799756
3058+667122955+664072694+662180555+661780019+662255739+662833793+663008403
3048+662611000+661625697+660051376+658229648+657048553+657160434+658037212
3038+658399260+657624817+656387334+655896547+656596030+657545083+657233083
3028+655105843+652098396+649612539+648146967+646943495+644982437+642402227
3018+640576919+640582289+641848638+642589368+641672910+639741090+638263733
3008+638043252+638823587+639686790+639556635+637855738+634996645+632173876
2998+630730158+631250855+632754467+633402782+632506239+631076842+630305233
2988+630382505+630696967+630534067+629662511+628539892+627707196+626964975
2978+625666591+623898118+622687150+622712212+623387715+623692219+623434929
2968+623058671+622608199+621705391+620318956+618957806+618124289+617722859
2958+617132386+615955095+614396362+612798360+611304034+610094819+609393061
2948+609060326+608571553+607525424+606052393+604659022+603623522+602707324
2938+601680477+600808211+600412487+600180370+599276778+597267313+594938314
2928+593835685+594604497+596101359+596586999+595479485+593401175+591081015
2918+588904063+587126714+585948565+585258443+584581784+583538863+582233206
2908+580971445+579831000+578795500+577939719+577156698+576146968+574915004
2898+573815843+573048075+572527528+572164175+571879548+571484085+570873734
2888+570252344+569855650+569485248+568645354+567237736+565831349+565065409
2878+565017449+565263812+565209214+564331243+562564336+560494082+558888695
2868+558012701+557496256+556778760+555724651+554805433+554336836+553759005
2858+552404755+550680513+549575012+549304595+549230418+548858673+548337044
2848+547949114+547403543+546043698+543899117+541932764+540888686+540460889
2838+539901258+538916626+537736762+536660910+535664009+534440474+532906094
2828+531368209+530028168+528829395+527879559+527385864+527175676+526828806
2818+526174747+525334816+524486866+523724245+522960952+522087606+521261063
2808+520649482+519940340+518606638+516645133+514629887+513070819+512005894
2798+511158691+510319244+509533314+508926656+508446013+507857256+507038470
2788+506278347+505968436+505902724+505404926+504303864+503110797+502093869
2778+500960883+499512876+497859791+496073156+494269179+492804241+491901358
2768+491357017+490893381+490447048+489909644+489017986+487778788+486583707
2758+485610040+484527214+483092559+481619341+480537970+479838487+479169548
2748+478279046+477239444+476243922+475203350+473819750+472166291+470735738
2738+469744767+468889843+467914722+466939973+466153857+465555067+465013822
2728+464308783+463158791+461498843+459704600+458319769+457552561+457190997
2718+456933632+456548275+455783156+454473397+452815873+451300961+450201465
2708+449280308+448172308+446860498+445538694+444289798+443252247+442704998
2698+442537996+442092969+440986760+439668423+438795151+438405207+437967229
2688+437078554+435931359+435000916+434390230+433769773+432932974+432033447
2678+431245615+430543708+429849148+429109687+428204305+427005719+425615331
2668+424386425+423591470+423128915+422670686+422031544+421249381+420368464
2658+419344487+418215455+417210274+416534995+416119169+415731351+415292440
2648+414876912+414472834+413954300+413233970+412284955+411115122+409841986
2638+408665478+407678385+406833308+406130804+405666123+405414986+405137297
2628+404601720+403806131+402932263+402194927+401744604+401561230+401414889
2618+401047508+400395202+399580556+398761248+398020854+397312346+396514221
2608+395635728+394882728+394414915+394166500+393999946+393855619+393645991
2598+393183212+392364389+391359358+390527519+390123105+390059146+389998432
2588+389707801+389238570+388760650+388362949+388022792+387657350+387208407
2578+386694274+386138447+385555097+385076394+384854608+384736536+384350172
2568+383614402+382839064+382293455+381999766+381910373+381973884+382063539
2558+382049516+381927565+381807554+381786408+381826350+381773281+381522480
2548+381117283+380676283+380293649+379993657+379746660+379555977+379458901
2538+379366375+379078765+378625608+378367610+378546583+378939883+379152831
2528+379056091+378769078+378447195+378250470+378281125+378390769+378260576
2518+377803541+377299254+377045320+377053972+377154628+377226009+377225039
2508+377075528+376678685+376084072+375525112+375170374+374937250+374659486
2498+374319366+373998714+373717518+373444453+373184291+372973208+372851220
2488+372879116+373088931+373372103+373516878+373403393+373091989+372699957
2478+372251909+371679225+370980264+370352684+370039565+370032106+370103002
2468+370137573+370199593+370266535+370171063+369864732+369546504+369441820
2458+369541171+369630788+369544266+369300514+369008279+368729732+368449618
2448+368119791+367730220+367350047+367079816+366965287+366968755+366993630
2438+366928366+366704155+366350535+366011684+365838902+365778747+365570983
2428+365114805+364680295+364544545+364617082+364660715+364655420+364683800
2418+364678169+364522318+364262194+364085831+364171793+364523176+364875602
2408+364920019+364701254+364568227+364671046+364773529+364621930+364272860
2398+363990844+363938036+364032426+364122939+364194580+364250446+364132187
2388+363695365+362991220+362008715+360430403+357905575+354430500+350299240
2378+345822602+341229011+336710455+332364868+328093048+323717216+319273508
2368+315162574+312024001+310288794+309646166+309328516+309274719+310455498
2358+313709607+318913399+325651235+334033207+343939787+353707373+360746282
2348+363429982+362165535+359156297+356566615+354476147+351628727+347594693
2338+343113430+338934323+335058973+331232292+327797905+325516120+324587094
2328+324402564+324290086+324108838+324163175+324814288+326197776+328170619
2318+330364241+332316200+333781958+334949068+336191698+337673083+339296147
2308+340887139+342308033+343506955+344519594+345381566+346068033+346532826
2298+346759945+346798358+346821032+347089138+347712168+348460618+348967515
2288+349144400+349261540+349571973+349990037+350228419+350161216+349921454
2278+349663269+349392478+349071602+348719549+348337474+347903597+347488517
2268+347203630+347044422+346955626+346994038+347246443+347640266+347980236
2258+348133215+348111436+348019954+347967668+347997279+348061537+348066161
2248+347979639+347904231+347982175+348228538+348538114+348863950+349266313
2238+349738304+350101844+350178520+350016963+349861299+349902397+350109974
2228+350318894+350439651+350539785+350729499+351037247+351414624+351779021
2218+352030568+352123728+352152221+352280399+352574983+352968657+353376092
2208+353778417+354200285+354663735+355165524+355656870+356076761+356468495
2198+356990720+357689681+358344038+358705378+358834526+359043223+359558511
2188+360349177+361206301+361916935+362394184+362693690+362937070+363224829
2178+363585572+363995245+364452056+364986887+365591755+366217061+366858515
2168+367599095+368575373+369882073+371442335+373058947+374694467+376580005
2158+378952414+381822770+385069346+388581864+392198469+395639606+398685467
2148+401379535+403922935+406439373+408992843+411694146+414568157+417445636
2138+420178862+422845631+425633120+428656082+431931784+435380082+438808465
2128+442023640+445021055+447987182+451053554+454066521+456592431+458135053
2118+458446605+457710500+456312840+454434201+452055825+449292689+446412674
2108+443558802+440704632+437842257+435058833+432486679+430220296+428181257
2098+426045739+423418949+420154957+416478831+412721628+408956444+405028846
2088+400955168+397087203+393768352+390979856+388465097+386100967+383968469
2078+382112319+380470310+379065526+378046435+377453650+377080787+376628413
2068+375943139+375087656+374205694+373371022+372612876+372018860+371685863
2058+371573199+371500923+371315909+371021959+370733901+370533932+370404672
2048+370307223+370300212+370536058+371093637+371865246+372722669+373742393
2038+375112233+376900844+379070188+381576034+384309745+387066989+389621727
2028+391704064+392998682+393358306+392946396+392054962+390846269+389308011
2018+387394540+385172015+382812473+380492425+378372271+376612488+375271216
2008+374194394+373109405+371857266+370518045+369303050+368317262+367427506
1998+366421804+365332638+364485584+364094446+363908835+363460824+362604558
1988+361579016+360647640+359924401+359449800+359225179+359157826+359061012
1978+358787387+358377565+357981430+357628855+357266508+357027044+357145564
1968+357503659+357595365+357155708+356504856+356062999+355884175+355839945
1958+355898422+355979349+355840691+355381045+354860647+354613836+354674215
1948+354866390+355175183+355716391+356266027+356233768+355429415+354418603
1938+353777485+353503711+353331712+353195590+353197417+353333428+353443743
1928+353494462+353762605+354432551+355163920+355577769+355928928+356524920
1918+356842701+356166415+354827604+353846441+353738662+354215240+354639047
1908+354601790+354213077+353868482+353794491+353890523+353921551+353791619
1898+353640803+353620665+353700846+353933112+354582248+355534061+356002136
1888+355463352+354421475+353644756+353331675+353282708+353273608+353157997
1878+352953217+352824442+352941619+353561181+355077473+357465321+359602406
1868+359893895+358180878+355956078+354489312+353934007+353882057+353967199
1858+353985883+353891828+353792365+353856250+354246343+355043759+356223176
1848+357871451+360099010+362199174+362574947+360838957+358670583+357525513
1838+357378650+357501757+357634822+358396138+360428688+363131594+364847184
1828+364968986+364499196+364006433+363080502+361776449+360900566+360855627
1818+361252545+361635889+362132493+363162436+364649229+365861837+366239885
1808+366070235+366063858+366715269+368162344+370114302+371836829+372718380
1798+373031238+373803294+375912297+379153838+381767388+381941103+380421641
1788+379443387+379976017+381496523+383368114+385494607+387646945+389306632
1778+390617584+392651514+396345802+401268175+405230419+406311120+405311011
1768+404082441+403547126+404230386+406401967+409245136+411386286+412748778
1758+414143753+415620886+417172757+419787165+424158075+429065866+432207684
1748+433012932+432942819+433305688+434496853+436425353+438605736+440437907
1738+442436482+446188538+451909708+456465409+456836482+455024376+453839476
1728+453810536+454839100+456918976+459746817+463372111+468792879+476631890
1718+485005731+489740069+489368772+486882393+485244934+485677654+488436539
1708+493117957+498498820+503296707+508010794+514459529+522628180+529330885
1698+532635378+533907955+533728385+532743157+533297381+536678401+542049382
1688+548619918+557246910+567883814+575964564+577750975+576964896+577926666
1678+581785681+587928047+594681845+600705915+606771940+613871265+620273942
1668+623471327+624971695+628236768+633945631+639603550+643111407+645882785
1658+650715168+659201525+671455079+684221125+690007559+689672138+691466940
1648+697329304+703145722+704553116+703209719+702934639+705110659+709921337
1638+717153801+724530891+727099092+723630618+719257993+717565451+718133883
1628+718977245+719095840+718864469+718087713+716032824+713682195+712804448
1618+712948998+711281070+706509028+701166838+697416721+694904535+692130546
1608+688256838+683986845+680575878+678482800+677325573+676629447+676275678
1598+676341688+676661669+676709181+676036475+674671447+672956901+671187533
1588+669463962+667848842+666631124+666144291+666329566+667036881+668623733
1578+671314929+673706134+673639452+672227658+672734182+676129411+680300053
1568+682729820+683980804+686273926+691059468+699557983+713139495+729662595
1558+739444315+739701269+739472956+743307730+750583754+759701047+769422202
1548+779002685+788434515+797940783+807300859+816207741+823199586+824447138
1538+820404712+817088770+817307909+819381072+820460728+820696350+822796514
1528+827718030+833477015+838066317+842046090+846239406+849600772+851660137
1518+853455536+854870388+855070731+854918199+856543389+861382560+869207697
1508+877374297+880701129+877564943+873476571+871951851+872755533+875017402
1498+877605892+878949140+878806380+879108534+881473484+885235162+887803811
1488+887433632+885394183+883824710+883269853+882879685+882138880+882115609
1478+884368454+889010266+894584721+899090709+900679724+899115472+896482305
1468+894770967+894493874+895431216+897426286+900708366+905685076+911929702
1458+916574274+915496482+909984457+905196900+902847315+902205638+902328335
1448+902218392+901171853+899716574+899231605+900474235+902997087+905858194
1438+908164071+908754134+907125289+904967320+904230618+904811059+905229122
1428+904970154+904894000+905306619+905783830+906826789+909552594+913133845
1418+914408771+912243119+909105591+906915623+905366662+903707982+902329677
1408+902070933+902680612+902927124+902295665+901726636+902100917+902885355
1398+902626536+900380628+896521613+892576748+890277435+890245661+891494929
1388+891745543+889030628+884361666+881243829+881926231+885594749+889953128
1378+893828254+897596346+901296862+903813374+904680157+905258062+906977978
1368+909725787+912485753+914625299+916033364+916803780+917432106+918740149
1358+921154849+924142531+926300575+926400523+924731774+922984484+922739836
1348+924331313+926812992+928927701+930453988+932313308+934968553+937346556
1338+938174106+937891866+937983310+938932736+939818390+939671974+938825778
1328+938613128+939691964+941189012+942000749+942426421+943503616+945087260
1318+945876024+945533145+945382403+946414100+947904659+948638825+948542159
1308+948232844+947797849+946967167+945887660+944987238+944503164+944549558
1298+945071522+945524418+945191384+943974711+942436863+941083769+939909760
1288+938499531+936330598+933109978+929184655+925482349+922654210+920464839
1278+918325890+916239972+914771267+913926860+912584880+909748014+906180114
1268+903734311+903009693+902706196+901392558+898981662+896222367+893606952
1258+891107446+888467566+885598105+882797564+880458943+878623789+877180444
1248+876429421+876856062+878169774+879185508+879148662+878692559+878788329
1238+879445521+880261286+881443574+883345932+885568942+887286396+888155864
1228+888484498+888762187+889322266+890375518+892109083+894384752+896478725
1218+897711584+898281210+899063634+900802123+903629516+907103882+910564450
1208+913437118+915345144+916376989+917278754+918762973+920687483+922481167
1198+923960836+925234420+926517476+928438331+931523798+935138314+937891269
1188+939046333+939065875+939224225+940880070+944437975+948746529+951991539
1178+953377004+953704593+954305695+955697201+957613656+960014483+963022080
1168+965657261+966152000+964453938+963037668+964330347+968306464+972829383
1158+975693474+976439350+976305391+976431593+976770221+976954229+977406155
1148+979053348+982173423+985742665+988426254+990452576+993245360+996735987
1138+999011581+999310677+998972050+998673177+997482012+995435328+994675578
1128+996827431+1000680628+1003481021+1004183786+1004341762+1005674867
1120+1008073158+1010249699+1011495984+1012499188+1014430783+1017087446
1111+1018970038+1019403839+1019175303+1019383924+1020541301+1022296720
1103+1023609686+1023998139+1024755576+1027616385+1032229630+1036236253
1094+1038097812+1038473659+1038324409+1037282121+1034851758+1032126251
1085+1030907266+1031854678+1034238573+1036908661+1039188656+1041251526
1077+1043824202+1047178557+1050391792+1052225678+1052780163+1053656791
1068+1055703028+1056898668+1054492769+1049720205+1047315202+1049453405
1060+1053253869+1055691915+1058222002+1063432694+1069840293+1073566020
1051+1073741823+1072872355+1072619950+1072283187+1070956124+1068966574
1043+1067163567+1065745358+1064696730+1064419637+1065351013+1067095170
1034+1067878713+1065878422+1061482451+1057141898+1054961851+1055342323
1025+1057658865+1060907306+1063516456+1064194830+1063078402+1061392498
1017+1060604704+1061298294+1062411962+1062104139+1059792519+1056946628
1008+1055098496+1054233279+1053836175+1053938956+1054264308+1053681181
1000+1051669255+1049199807+1047260082+1045697993+1043898939+1041545028
991+1038572338+1035311367+1032510601+1030908235+1031179287+1033208294
983+1034956181+1034011901+1030865720+1028441622+1028110006+1028075994
974+1025837321+1020954665+1014962817+1009465485+1005008352+1001397341+998408316
964+995683630+992587423+988665904+983621095+977097138+969743022+963954649
954+961564264+961315440+960461263+958347300+956565327+955983320+955704735
944+954791484+953501715+952643285+952586897+952975573+952859440+951544461
934+949650158+948591536+948930462+949856617+950142437+949358297+948530673
924+949356805+952235813+955213575+955694964+953271985+949630020+946189069
914+943436039+942020515+942742822+945120526+947092996+946992900+945309382
904+943614378+942311034+940567996+938205134+936317396+935700854+935773950
894+935697423+935635739+936153378+937026053+937383850+936779093+935453596
884+933727117+931802084+930025705+928669255+927514191+926263207+925343094
874+925687465+927437216+929444071+930628970+930946191+930466593+929121330
864+927801577+927723260+928583404+929335844+930125802+931341133+932040616
854+931536329+931005563+931422806+931641870+930183757+927547830+925602062
844+925267984+925519195+924768620+922670843+920292094+919320367+921060571
834+925025276+928607944+929163622+926733482+923984779+923071751+923967101
824+925894446+928677459+932116620+935113253+936228338+935334182+934161664
814+934508422+936292931+937949671+938400255+937893731+937060587+936286964
804+936103926+936857634+937833539+937972495+937357520+936701597+936100719
794+935723156+936483204+938656688+940948243+942274859+943322815+944807258
784+945734457+945080249+943776010+943408293+944144771+945248146+946496593
774+947438337+946415666+942547029+937592770+934011594+932708026+933505218
764+935734866+937797736+938336334+938116972+938689581+939785348+939951753
754+938713225+936628948+934741061+934603969+936838465+939630877+940490499
744+939147996+937243849+936087367+936012258+937087662+939511238+943271648
734+947530826+950558785+950816560+948439452+945217639+942935855+942152311
724+942536363+943648017+944869539+945082710+943645183+941372423+939244289
714+937213715+935071484+933153836+931655967+930592348+930709077+933139814
704+937537873+941458497+942510854+940004635+934938494+929177271+924072717
694+920287992+918164930+917583817+917546971+916508264+913887180+910507465
684+907110446+903600501+899798695+895535639+890395358+884597662+879186254
674+874756793+870329122+863851933+855231691+850144591+855071700+864779803
664+870378425+870907699+869898826+869344193+868927695+868679841+868652392
654+867789488+865859235+864409624+864555592+865173476+863560892+857565687
644+848514105+840949651+837764387+837251000+836184322+834441209+834658185
634+837865528+841209216+840948309+837177680+833479178+831874052+831295998
624+830819905+830663122+829997651+828002208+825942993+824299828+821071526
614+816155231+813947587+817971291+824606905+827291761+825454817+822883781
604+821569473+821113519+820395613+818905426
##END=
