##TITLE=<SNM>
##JCAMP-DX=4.24
##DATA TYPE=INFRARED SPECTRUM
##DATE=2/5/2025
##SAMPLING PROCEDURE=Instrument type and / or accessory
##ORIGIN=Admin
##XUNITS=1/CM
##YUNITS=ABSORBANCE
##RESOLUTION=4
##FIRSTX=4497.3318
##LASTX=599.83466
##DELTAX=-1.4281778
##MAXY=1.7442939
##MINY=0.18778634
##XFACTOR=1
##YFACTOR=1.6245003e-09
##NPOINTS=2730
##FIRSTY=0.21222383
##XYDATA=(X++(Y..Y))
4497+130639450+130470011+129741134+129289632+129464740+129633024+129057570
4487+127836069+126668560+126085915+126167919+126753490+127581397+128260842
4477+128466706+128330518+128344864+128735597+129231871+129461043+129241310
4467+128574275+127722190+127279805+127818485+129220066+130482477+130601035
4457+129722623+128907660+128710041+128691678+128443105+128260787+128511203
4447+128972419+129195758+129109038+128915970+128673992+128279710+127780776
4437+127456877+127455391+127549842+127508684+127425588+127327311+126921150
4427+126253795+126004332+126487223+127019024+126827588+125964559+124955555
4417+124174797+123774176+123825378+124376010+125261999+125825326+125282243
4407+123633026+121788025+120682064+120643025+121473931+122669014+123572073
4397+123684292+123002389+122073022+121606973+121830623+122237820+122172914
4387+121571822+120888130+120374171+119859377+119343299+119264496+119817237
4377+120456423+120492408+119855534+118945696+118089538+117504737+117490767
4367+118190576+119224227+119922348+119948454+119471690+118872433+118530968
4357+118653085+119040552+119295821+119370496+119506996+119599458+119178308
4347+118179697+117213796+116863579+117032239+117182718+117074259+117027919
4337+117372989+117815382+117697512+116903481+116050524+115636869+115596371
4327+115847365+116484139+117199596+117407717+117197496+117285472+117902285
4317+118595076+119105550+119506547+119610841+119218925+118773643+118883202
4307+119347262+119364690+118610643+117605684+117136515+117589897+118647196
4297+119466709+119410792+118748702+118422995+118988671+120041337+120838552
4287+121128631+121093334+120845881+120397241+119852984+119363341+119111320
4277+119366158+120139798+120863318+120928857+120463780+120063040+119985319
4267+120140623+120550738+121183585+121583674+121266232+120385444+119615978
4257+119426331+119759045+120310283+120812510+121079649+121080749+121054011
4247+121339458+121992054+122704265+123096162+122971036+122439355+121931404
4237+121867773+122203340+122544062+122693698+122793974+123048408+123565294
4227+124276614+124830319+124793188+124146370+123468044+123417273+123964529
4217+124383248+124252417+124052184+124357188+124894886+124895959+124086876
4207+123035255+122671362+123443314+124774943+125544107+125210374+124294098
4197+123783853+124186235+125098127+125727333+125802091+125691247+125678525
4187+125624653+125406240+125211576+125269713+125577111+125972191+126331433
4177+126662185+127104174+127809285+128700915+129444872+129838906+130072793
4167+130349719+130486210+130248828+129851831+129705571+129835806+129966307
4157+130050293+130240866+130391575+130141103+129532710+129042536+128945598
4147+129087317+129279294+129532939+129792813+129697444+128927840+127801213
4137+127127427+127313846+127940034+128330390+128229691+127872109+127655623
4127+127748965+127912295+127806432+127502860+127439834+127814835+128328711
4117+128682009+129039747+129726301+130659529+131399597+131663168+131540381
4107+131282764+131090512+131134936+131594858+132395640+132975268+132748829
4097+131863583+131050207+130718694+130650522+130483256+130140039+129931203
4087+130309634+131254796+132060981+132143435+131773571+131609690+131881250
4077+132385000+132846399+132988449+132709633+132373176+132448879+132808268
4067+132841602+132285191+131491307+130926952+130797176+131070139+131525833
4057+131836368+131843880+131755152+131915694+132356867+132662238+132415536
4047+131810299+131573531+132078868+132769174+132822247+132177613+131443938
4037+130990822+130665822+130348160+130275236+130658750+131270417+131715819
4027+132047066+132701993+133745009+134608992+134777193+134346348+133780380
4017+133400499+133217364+133100127+132958546+132746416+132432139+132106212
4007+131977848+132141821+132544771+133170106+133907147+134365070+134294495
3997+134053600+134179257+134616633+134853135+134761260+134741374+134979379
3987+135197297+135269230+135397575+135523178+135272504+134702545+134498653
3977+135207680+136616663+137926378+138384805+137855381+136855953+136036651
3967+135744168+136066215+136944736+138048046+138799772+138856203+138501997
3957+138329053+138565298+138996042+139608085+140839860+142693382+144078855
3947+144078259+143439256+143414811+143747159+143230713+141783655+140489808
3937+140168963+141126518+143415086+146265661+147862905+147066104+145175643
3927+144566030+145880496+147453332+147729597+147436573+148165441+149852487
3917+150684329+149235160+146150597+143343676+142143218+142720689+144990600
3907+149379191+156048617+163492592+168869612+170309994+167742922+162029242
3897+155366420+151101158+151434734+155409019+158905090+158746401+157232491
3887+158178350+161202079+163188276+163847468+164740107+164192272+160392876
3878+156760369+157429907+161892036+167128640+171506342+173850406+172682530
3868+169948201+169343734+170637003+170106211+166279297+162043038+160797927
3858+164393945+173725033+187190378+195562747+189507052+176044367+165062933
3848+159833631+160241617+164643719+170802168+177197218+183168946+187201055
3838+186833631+182380179+177406779+173980384+171473357+169307649+168261972
3828+168719253+170176677+173477386+180370757+188694455+191755315+188384434
3818+184279878+181100946+176313991+170402492+166794806+167601845+172557707
3808+178768623+182804402+185740934+190801861+196111535+196322215+192214247
3798+188502927+185554966+181696515+177984737+176704586+178282246+181741131
3788+186304766+191283927+195653722+199521052+204622743+211453536+217600262
3778+221355794+224985036+231709884+242618761+256761313+271462579+283568887
3768+292488943+299663495+305681582+311355085+318752590+328513551+338425018
3758+346637542+354978631+367178630+385707691+409284671+430936398+444895404
3748+455669514+469470931+484936178+494429000+496908656+500111455+508841727
3738+522546206+537056275+546936224+549967420+549105877+548613336+550298300
3728+553405226+555798070+555472620+552147933+546897552+541165013+536973610
3718+535983061+538131616+542544120+548257103+552371969+550703296+543871603
3708+537205020+534794417+537762137+544459944+550770000+553300620+552729156
3698+551702467+552525778+557278481+566976223+579884726+590934644+594451519
3688+590607213+585259380+582098335+581157136+581815594+584296386+589759576
3678+598314831+604928872+602558556+594919550+590894394+590565605+587085641
3668+578236270+568692301+561907279+557741999+555247044+555272654+559484311
3658+566864976+573015022+575727555+578732553+586201056+596857205+602558923
3648+596353584+583067346+571647839+565889250+564916497+566277185+568645263
3638+572082812+576108225+579389434+582273571+587747474+597542521+606649647
3628+607019052+600915127+596184071+596494441+602118374+611126837+618936860
3618+621742993+621079251+620302135+620655690+622395873+625654774+629007823
3608+630124626+629208670+628861059+630665159+634167247+637803772+640522947
3598+643067325+646525091+650290328+653120016+655789291+660277269+665853797
3588+668083073+664656274+659771813+657784845+658359794+659180353+659300333
3578+658910307+657949147+656600531+656158110+658562989+665267841+675514407
3568+684730322+687077009+681878325+673573450+665876912+659967376+656149818
3558+654818446+655490332+656318376+656136022+656132720+658074411+661807873
3548+665536713+667321953+666027272+662332482+658868552+658056799+659912560
3538+662054804+661540175+657766573+653619088+652283974+653442971+654131222
3528+653156414+652286322+652886881+654186699+654861888+654594924+654087780
3518+654153384+654500554+653727180+651234316+648252360+646276179+645548302
3508+645523792+645754946+645559236+644010506+641213106+638887333+639019934
3498+641736394+644809857+646061096+645715686+644975554+643527578+640623040
3488+637317542+635286985+634774044+635195551+636234789+637620904+638908246
3478+639689032+639455897+637668089+634794738+632525983+632124803+633166389
3468+634394879+635160181+635273410+634509208+633185835+632108145+631188520
3458+629453987+626925826+624985382+624581854+625510798+627209081+628697564
3448+628506697+626565519+625084962+625781285+627712115+628882340+628467878
3438+626815826+624700366+622923418+621983833+622114526+623354684+625063754
3428+625885047+625078797+623146719+620727384+618351564+616981593+616896250
3418+616685496+615109505+613158678+612905987+614975619+618047395+620428719
3408+621408664+621085709+619566699+617160059+614956503+614086301+614500544
3398+615170045+615420389+615534461+615803443+615655945+614304577+611768710
3388+608836728+606487582+605533798+606135862+607397117+607979000+607289539
3378+605805459+604476215+604062963+604808159+606386939+607977973+608692238
3368+608408286+607991072+608253560+609026017+609708654+610147993+610472672
3358+610621161+610391878+609618357+608302285+606971867+606484794+607065797
3348+607916626+608031102+607305353+606579163+606414714+606415631+606261418
3338+606468246+607425919+608555160+608975456+608244020+606279030+603669855
3328+601952163+602395061+604559944+606831341+608143413+608478036+607965938
3318+606492646+604267332+602135215+601073302+601508972+603002298+604438533
3308+604915554+604536425+603981399+603689668+604038417+605407801+607171467
3298+607828090+607034683+605996986+605414442+604979983+604892548+605792653
3288+607350226+608683762+609818654+611246487+612556614+612770707+611713490
3278+610232382+609308024+609351687+609991249+610403986+610175254+609682383
3268+609469392+609663671+610187472+610874146+611077634+610116475+608496638
3258+607686059+608288269+609199492+608912311+607159542+604949383+603542390
3248+603741329+605528478+607858837+609192337+608969769+608152696+607715339
3238+607479819+606960970+606480537+606616845+606951064+606251035+604125925
3228+601755609+600408497+599946850+599452181+598590675+597556464+596530948
3218+595990782+596350832+596721632+595446544+592338701+588989357+586798827
3208+586061997+586470552+587341525+587900403+588023758+588301950+589200074
3198+590571476+591866120+592409037+591784959+590316656+588715678+587025504
3188+584729634+582055553+580184639+579900430+580634288+581009528+580150296
3178+578553795+577632152+578025333+578623654+577872698+575804020+573863980
3168+572958738+572729418+572613255+572670970+573077396+573351185+572698084
3158+571091713+569456172+568561057+568227902+567906231+567395969+566569833
3148+565176600+563543774+562658932+562759282+562638422+561218294+559016500
3138+557185506+556115705+555694381+555818397+556035975+555669872+554694953
3128+553708110+553017144+552446708+551894104+551459609+551103449+550638206
3118+549952487+548908002+547370500+545701056+544683797+544503790+544364107
3108+543603502+542634087+542374204+543179096+544451946+545155937+544805244
3098+543725169+542251656+540470452+538903560+538301533+538585412+538910017
3088+538681432+537877384+536768984+535752311+535013757+534357941+533625734
3078+532876649+532044275+531015054+530024689+529534240+529770860+530491987
3068+531078567+530879261+529681628+527877271+526093865+524644348+523444000
3058+522458001+521904663+521914900+522241671+522436684+522158712+521369084
3048+520435149+519817639+519589604+519457296+519063344+518155167+516803248
3038+515558797+515015366+515159892+515402273+515171193+514354486+513232804
3028+512057442+510784813+509325536+507933256+507126530+507201490+507808140
3018+507997906+506985049+505014115+503141440+502015722+501215600+500050145
3008+498659260+497820135+497810155+497957140+497410883+496116496+494822292
2998+494138407+493837394+493318105+492514754+491850169+491448072+490974243
2988+490254181+489584569+489295297+489199093+488712496+487606701+486369405
2978+485571961+485214773+485028640+485042949+485377865+485669633+485203693
2968+483742178+481915586+480538424+479744870+479083183+478246150+477349897
2958+476695402+476533044+476759538+476730552+475863982+474504468+473568076
2948+473286142+472977570+472149673+471106619+470215687+469315031+468229196
2938+467190288+466349586+465503563+464654716+464281091+464679922+465379804
2928+465492079+464573555+463029118+461629904+460719672+460029330+459192517
2918+458186962+457249138+456568079+456134574+455799841+455453771+455171800
2908+455087704+455070276+454728242+453892016+452853108+451902883+450973278
2898+449988674+449173398+448690324+448246215+447365116+446046439+444967355
2888+444781441+445246317+445457474+444990177+444232947+443510573+442631675
2878+441505480+440533680+440071189+439864325+439353879+438438547+437570950
2868+437025647+436517256+435771657+435037249+434695655+434682960+434583233
2858+434092124+433221995+432228841+431449193+431045151+430849257+430548941
2848+429987127+429194307+428256300+427280831+426312921+425214317+423911784
2838+422791276+422431703+422842827+423332799+423244117+422542547+421576031
2828+420562147+419537916+418592534+417858859+417354100+417010525+416734902
2818+416322568+415529160+414338058+413018648+411884123+411048594+410396594
2808+409777579+409217747+408846030+408647971+408420707+407921892+407054185
2798+406024854+405183234+404575887+403918053+403059959+402152222+401376536
2788+400804523+400373109+399841602+399049736+398205695+397559051+396931341
2778+395984858+394805754+393830395+393284029+392973696+392577359+391953134
2768+391214176+390611708+390267473+389994675+389520810+388785447+387818491
2758+386579177+385198309+384066133+383408372+383053863+382698400+382116737
2748+381213586+380128007+379140651+378368928+377729843+377127706+376469211
2738+375647148+374689108+373783279+373094551+372642076+372289475+371801558
2728+371026862+370074693+369273030+368940168+369115882+369409227+369232669
2718+368369475+367190445+366165590+365335198+364403942+363219848+362021885
2708+361211269+360910219+360852724+360776737+360682331+360517881+359978119
2698+358937010+357749174+356833475+356219890+355656132+354948875+354146772
2688+353478884+353059285+352726094+352360027+352131808+352112839+351930411
2678+351201213+350067422+348957848+348037673+347194659+346393876+345776072
2668+345451540+345337027+345226477+345011100+344746007+344418540+343820145
2658+342864857+341851596+341139423+340745654+340459684+340111779+339595683
2648+338893709+338155999+337559292+337129786+336831855+336670965+336579090
2638+336355899+335851617+335149827+334490672+334006570+333596951+333115784
2628+332585488+332110339+331679292+331205500+330691972+330219795+329811020
2618+329421251+329047626+328725625+328429455+328070726+327589156+327007639
2608+326474188+326222194+326305262+326417243+326227991+325806741+325407652
2598+325007719+324459555+323926140+323697628+323660423+323364730+322615866
2588+321673419+320871059+320354852+320172681+320291780+320473291+320391507
2578+319962625+319394830+318882036+318401897+317872115+317362989+317002500
2568+316729298+316333145+315759517+315209554+314903661+314846496+314835269
2558+314675186+314382574+314112565+313899463+313648533+313378854+313206809
2548+313107670+312973050+312851933+312853254+312874608+312680733+312216077
2538+311659474+311156476+310637371+310024740+309512092+309384114+309598170
2528+309811418+309832956+309816995+309972529+310244666+310357198+310127622
2518+309664617+309215812+308904525+308709072+308615987+308657631+308819108
2508+308992914+309031586+308818888+308328219+307663230+307016825+306519331
2498+306145100+305834235+305635865+305622913+305723850+305743627+305544376
2488+305182840+304859482+304697840+304601874+304389690+304028851+303680580
2478+303527285+303554124+303505637+303145808+302539745+301956760+301558185
2468+301329710+301226186+301222095+301261703+301237395+301018166+300564976
2458+300051889+299743280+299701306+299736529+299642600+299353071+298916612
2448+298460964+298148833+298079267+298238213+298515047+298715325+298652932
2438+298342837+298027202+297914414+297954022+297929201+297713952+297392722
2428+297148672+297049019+296960281+296711589+296330204+296052599+296073385
2418+296327544+296583097+296719625+296812435+296932433+296996257+296889688
2408+296659176+296494653+296514613+296609515+296572952+296395092+296314445
2398+296515182+296873323+297110201+297134252+297101083+297162816+297296867
2388+297385402+297328054+297063310+296580877+295909688+295037743+293917014
2378+292609492+291347466+290387004+289853552+289728858+289895967+290155043
2368+290277664+290197513+290153355+290434244+290988976+291619934+292549227
2358+294299427+296943165+300011125+303289251+307079402+311358350+315348650
2348+318195069+319736314+320622330+321428359+321672208+320517687+318057001
2338+315101279+312156124+309145402+305973514+302956280+300512894+298610957
2328+296845255+294983917+293145548+291568970+290448810+289886134+289800057
2318+289894646+289829758+289498163+289103495+288899878+288909565+288978966
2308+289016464+289043102+289065373+289037360+288950439+288856876+288799088
2298+288802739+288921581+289178162+289465654+289606567+289499208+289186435
2288+288847795+288707544+288841411+289075940+289153083+288990340+288739080
2278+288601965+288642197+288771808+288848823+288757866+288491947+288197942
2268+288047967+288059359+288136539+288240173+288394349+288574098+288684795
2258+288642619+288462686+288268975+288176422+288184843+288241274+288333093
2248+288444084+288521135+288572190+288698995+288955795+289253066+289454207
2238+289521223+289568793+289801213+290326023+291001873+291588636+292054576
2228+292564435+293170736+293745502+294243565+294809855+295579431+296552515
2218+297686819+298921767+300114704+301192999+302369205+303931785+305821026
2208+307683850+309325078+310856013+312448919+314151494+315918866+317720947
2198+319594797+321568372+323574493+325525063+327417735+329285751+331092272
2188+332738820+334186319+335527378+336833176+337974378+338783820+339333929
2178+339845549+340418150+340968626+341296901+341218932+340797572+340331926
2168+339992313+339622981+338960083+337872817+336371859+334552863+332584791
2158+330617379+328633861+326527867+324311176+322009986+319498116+316758541
2148+314004620+311331272+308930062+307771890+309036429+312677100+317448003
2138+322328795+327106889+331812958+336460211+341150723+345914618+350627658
2128+355230185+359831098+364598515+369627759+374867059+380206306+385616110
2118+391092582+396623246+402345401+408487081+415087180+422150026+430108721
2108+439808885+452165811+468075277+488189355+512268269+538938893+566118202
2098+591283246+612102452+628108012+640924274+651932473+660949229+667215549
2088+670149293+669355959+664707935+656004301+642881669+625472639+604451375
2078+580773054+555828267+530876436+506464036+483220614+462253689+444131165
2068+428541940+415035959+403239672+392796992+383726374+376234719+370103679
2058+364899638+360445637+356618722+353244282+350374233+348191335+346791094
2048+346259110+346569296+347496443+349047851+351754184+356423599+363986728
2038+375428176+391424819+412123826+437231888+465873703+496382286+526653074
2028+554801871+579651775+600884490+618516968+632449665+643032982+651270053
2018+657850008+662749880+665756786+666563769+664696928+659971852+652730871
2008+643349847+631784383+617909730+602142333+585230027+567464287+548697212
1998+529242766+510234924+492735671+476658307+460985316+445192491+429943025
1988+416151257+404108076+393676660+384667609+376854541+369966161+363770654
1978+358139750+353057964+348490147+344299881+340539597+337636380+335826960
1968+334507183+332670428+330062390+327343693+325063453+323138493+321410711
1958+320040226+319097339+318291640+317343543+316285813+315323150+314649538
1948+314466340+315039565+316426890+317868886+317946157+316134866+313596798
1938+311699320+310727080+310310196+310169229+310195097+310311774+310441807
1928+310646764+311336592+312802987+314422384+315287449+315641188+316189903
1918+316325146+314927290+312620926+311227216+311538577+312804382+313734977
1908+313608283+312710122+311855147+311507793+311510765+311599594+311895874
1898+312701793+313852755+314689789+315088841+315861628+317300688+318190520
1888+317466018+315935340+314954111+314692247+314589218+314388995+314196514
1878+314181948+314462744+315104948+316500603+319532385+324418828+329084757
1868+330069398+326656396+321894886+318696306+317594180+317671011+318000313
1858+318163405+318133795+318065293+318136107+318575813+319658419+321605247
1848+324750185+329253242+333579082+334360969+330693623+326061193+323576584
1838+323304043+323774679+324324458+325963852+329849105+334882495+337893327
1828+337699342+336349588+335021041+332855277+329913461+327792241+327300397
1818+327742341+328307200+329180667+331030888+333668828+335667941+335820943
1808+334675851+333904202+334797335+337644195+341539429+344550077+345190410
1798+344256035+344339250+347421703+352764693+356266158+354231418+348796371
1788+344838506+344258090+345824138+347909951+350029851+351811826+352560654
1778+352834736+354803175+360184506+367968626+373713676+373564637+369138300
1768+364085794+360385060+359409701+361766405+365508123+367529397+367729877
1758+368006638+368498995+369040775+371578476+377798492+385659589+390278260
1748+389687901+386667969+384427210+384240195+385895329+388122880+389455316
1738+390766728+395208328+403419201+409438957+407112671+400108163+393906383
1728+389930686+388468143+389472378+392000869+395971979+403364678+415515915
1718+428780211+434590682+430045980+421685444+415440551+413385265+415964316
1708+422710372+431358603+438676488+444624220+452587649+463312336+471612589
1698+473761291+471652179+466241678+459416773+455923490+457940031+463832762
1688+472107038+484029946+499003862+507952593+504219240+496070742+491990329
1678+493943944+500354020+507535415+512889045+518085674+524709695+529340658
1668+528326223+525528273+526793601+532516820+538119215+539895026+539970279
1658+543131288+552761004+569732933+587751364+591576517+583754239+580549899
1648+584516826+587291625+581572882+572016584+566037666+565979070+571924600
1638+582960318+594387383+596989953+589127352+580732473+578332327+581427622
1628+586590495+591403189+595779295+599026344+599445063+598764884+601378939
1618+608139928+613502437+611927363+606976674+604655451+606144117+609212591
1608+611429612+612350631+613134645+614563689+616136671+617129458+617844274
1598+619074011+620784255+622173893+622878654+623340522+623942035+624480293
1588+624618985+624442721+624412341+624910459+626133519+628716937+633970363
1578+642246033+650020209+651625369+648729710+648284354+652285515+656557749
1568+656939189+655223735+655112194+658536058+667795635+685982735+709672320
1558+720486791+712828118+703477401+700258274+702559390+708457552+716006959
1548+724186718+734116420+747476371+764104394+781729974+794001887+790993147
1538+776955733+766937458+765412063+767370632+766523509+763428471+763197391
1528+767406736+773430382+779259344+786084396+793921974+798868737+798929130
1518+796540689+792868353+788079729+784897587+786851533+795375307+809573648
1508+824773362+829088744+816345204+800071250+791187683+790558724+795527281
1498+801437038+803093713+800130909+797785176+800037714+805817144+810040652
1488+808789046+803868701+799292005+796917212+796443751+797124223+799197782
1478+803554406+810312973+818361231+825106810+826336327+820835236+813969825
1468+811239936+813332574+816765684+817782393+817565622+820635784+829015069
1458+838436747+839239767+830056581+820329780+815212111+814363520+815776052
1448+816881554+816055932+814121872+812872395+813208632+815810542+821519965
1438+829040386+833136576+830308135+825156123+823077280+823862469+824166932
1428+822521411+820572822+819799888+820167899+821808797+825172487+828449072
1418+827679514+822465273+816624130+812552229+810037276+808354918+807557181
1408+808115985+809670953+810657575+810289637+810222419+812413610+816538419
1398+820643929+823102744+822787861+819420062+815180997+813186030+814073147
1388+815371350+814154014+810952498+809443835+812033123+817802426+824371301
1378+830707554+837300718+843702208+847653322+848204568+847646130+848178224
1368+849482151+850898426+853265514+856748083+859030267+858013117+854777773
1358+851631294+849361144+847565337+846126827+845386401+845223713+845022866
1348+844666082+844590939+844946255+845766227+847573556+850587139+853614226
1338+854870674+853965506+852104535+850529021+849608442+849301851+849862931
1328+851545583+853824539+855805930+857459009+859495510+862098374+864718042
1318+867066564+869395272+871711873+873600215+874954849+876200731+877667640
1308+879274782+880765539+881814757+882086565+881653316+881249935+881682963
1298+882982193+884390103+885075492+884608561+882963261+880523599+877922936
1288+875440639+872892298+870244230+867688991+865151437+862362109+859361294
1278+856526689+854409394+853698542+854683623+856625461+858348987+859469019
1268+860353347+861222191+862130809+863284082+864380925+864306295+862623423
1258+860674981+859959872+860201152+860193887+859826536+860033914+861191444
1248+862612195+863503568+863739345+863654809+863574382+863676163+864012546
1238+864582579+865571623+867516763+870919346+875392940+879439965+881637539
1228+882129787+882437478+883621939+885235098+886392995+887239678+888652504
1218+890893007+893311095+895211325+896568601+897954642+899788315+901748719
1208+903366281+904929834+907026141+909554522+912106312+914862031+918212806
1198+921924988+925339018+928003376+929811659+930935139+931711008+932414669
1188+933168597+934178556+935928132+938827387+942582864+946231717+949012606
1178+950939767+952375269+953586074+954863877+956424715+958237547+960285862
1168+962509634+964407810+965482124+965993671+966632315+967820959+969688241
1158+972097596+974722181+977368194+979986982+982579059+985116613+987244695
1148+988493805+989217426+990647130+993386265+996382898+997842028+997066525
1138+995198877+993831328+993088774+991924126+990239933+989336599+990383909
1128+993816358+999656768+1006843960+1012792536+1015444639+1015609235+1015712924
1118+1016462743+1016337846+1014784934+1013872427+1015113979+1017075924
1110+1018112593+1019033539+1021222161+1024264951+1027067561+1029420119
1101+1031095286+1031338034+1030015394+1027975298+1026260724+1025868497
1093+1027838734+1032336471+1037574414+1041054708+1042603291+1044498678
1084+1047816431+1050437274+1049532178+1045144294+1039960801+1036753855
1075+1037362927+1042176941+1049563733+1056504948+1060351933+1059800173
1067+1055599486+1051258199+1050819228+1055014337+1061187829+1066854103
1058+1071232228+1073741823+1073382911+1069666253+1063605256+1058135939
1050+1056619938+1059786377+1064739450+1067591227+1066741608+1063499733
1041+1060380699+1059084550+1059767371+1061479303+1062699721+1062231176
1033+1060574794+1059680120+1060376663+1061501757+1061618655+1060254041
1024+1058047661+1056613921+1057238036+1059404276+1061671564+1063042856
1015+1062984370+1061698422+1060110065+1058484725+1056602620+1055322982
1007+1055643442+1056677176+1056800898+1056202761+1056220152+1057037409
998+1057885193+1058608740+1059444343+1059277985+1055814936+1049201152
990+1043421575+1041965234+1043463623+1043514330+1040707170+1038240430
981+1038701710+1040477558+1040266437+1037055309+1032519633+1028377065
973+1024843128+1021597143+1018804073+1016389654+1013224463+1008293771
964+1002244368+996911616+993242069+990512254+987911665+985633150+983980878
954+982503695+980634139+978085137+974332449+969100817+963463015+959301661
944+957596114+957750436+958453951+958827099+958817045+958589414+958037727
934+957464906+957775459+959163776+960492286+960671192+959884975+958890427
924+958126079+957979095+958724217+959701594+959591961+958116686+956772546
914+957183853+959137065+960888770+961222952+960342660+958821302+956724114
904+954218334+952258298+951841707+952726842+953426541+952584481+950029976
894+946683824+944143995+944022254+946374812+948630799+947651514+943487959
884+939392503+937953552+939141536+941789897+944908857+947376772+948011600
874+946897880+945328310+943867785+942029416+940038045+939475204+941340211
864+944392027+946369382+946200309+944363188+942015767+940486630+940751613
854+942659328+944904014+946112177+945906781+944572547+942140737+938822617
844+935834644+934437888+934588101+935409688+936314049+937193387+938023119
834+938642831+938882497+938731256+938263445+937481485+936763515+937365762
824+939967011+943137339+945125335+946615946+949612652+954241450+958417847
814+960323140+959875656+957738768+954074358+949145281+944980405+944375076
804+947626124+951832901+953921724+953275741+951248413+949569356+949232973
794+950115319+951707271+953601778+955088426+955667411+956045696+957017569
784+957667221+956598997+954138861+951460634+948803614+946142631+944598671
774+945253973+947373469+949083126+949013633+947183043+945466341+946584978
764+950946959+954932342+954522797+950214825+945978549+945017756+947582975
754+951283122+953294160+952758984+951148613+950449942+951508479+954185386
744+958044405+961833931+963192748+960635968+955642901+951772214+951360614
734+953264807+954883543+955849252+957486334+959288672+958859093+955398539
724+950709201+947047726+946057288+948742707+954568220+960742592+964123747
714+964051466+961944078+958994777+954872462+948969898+943018167+940499692
704+942533038+946407467+948670499+947817651+944185823+939111889+934322165
694+930883992+929064482+929142634+930455000+930725193+928034637+922878222
684+917632207+914254061+912588286+911146034+909850032+909998998+911087548
674+910409497+906004955+898707470+892095153+891853506+898578244+902731379
664+899444740+892978380+888356774+887228010+889240074+892960035+894646062
654+891056429+883887949+878195330+876896760+878374530+879837696+880291197
644+879383020+876891477+874376084+873800034+874023116+873053298+872781270
634+875861559+879740464+879449064+874415784+867772133+863304849+863842960
624+867199899+866826458+860502973+853927200+852379571+854024652+854550802
614+852710671+849005975+844529078+841552846+841564880+844095463+849346321
604+857563138+866093737+871271140+872967001
##END=
