##TITLE=<SNM>
##JCAMP-DX=4.24
##DATA TYPE=INFRARED SPECTRUM
##DATE=2/5/2025
##SAMPLING PROCEDURE=Instrument type and / or accessory
##ORIGIN=Admin
##XUNITS=1/CM
##YUNITS=ABSORBANCE
##RESOLUTION=4
##FIRSTX=4497.3318
##LASTX=599.83466
##DELTAX=-1.4281778
##MAXY=1.7107842
##MINY=0.2824764
##XFACTOR=1
##YFACTOR=1.5932919e-09
##NPOINTS=2730
##FIRSTY=0.29118147
##XYDATA=(X++(Y..Y))
4497+182754627+183580410+184511632+184764054+184454694+184107663+183846992
4487+183573152+183472894+183976448+185118624+186125114+186147784+185384663
4477+184831747+185017748+185679321+186576706+187823647+189289717+190265456
4467+189984397+188441656+186712634+186213513+187329371+188967001+189805878
4457+189652853+189062041+188211474+187002279+185764989+184965786+184558656
4447+184315231+184425926+185160784+186269965+187203263+187651432+187580390
4437+187118885+186682575+186713289+187003214+186796002+185865509+184942985
4427+184687495+184847459+184868427+184721014+184618717+184441339+183927516
4417+183087387+182248080+182020648+182951103+184668940+185816615+185524987
4407+184490645+183893118+183860048+183629454+182702160+181245780+179764560
4397+178938160+179437131+181220771+183092530+183601247+182505908+180914741
4387+180078483+180462307+181667668+182769254+182925421+181965300+180373721
4377+178892613+178242787+178736633+179839117+180553681+180494667+180168042
4367+180168529+180583739+180983294+180646831+179286725+177751298+177291046
4357+178059966+179135459+179799968+179918089+179523566+178973605+178922148
4347+179386702+179514494+178848301+178079120+178078933+178847609+179699710
4337+179955312+179328942+178173673+177381858+177503776+178087930+178460942
4327+178774791+179443528+180061088+179929237+179219425+178694229+178665592
4317+178926506+179354568+179991375+180742394+181373179+181674252+181448353
4307+180581719+179412964+178715871+178919885+179654051+180379071+180973306
4297+181333767+181084824+180192284+179354062+179337658+180146251+181062154
4287+181451982+181390350+181387825+181688487+182050894+182037089+181416462
4277+180526577+180133513+180608860+181443977+181862030+181645970+181134224
4267+180679621+180380025+180252420+180390948+180777765+181142211+181288689
4257+181385505+181639199+181954788+182243348+182727916+183574387+184415058
4247+184624572+184093035+183398580+183090192+183160766+183362255+183603959
4237+183826584+183870859+183667088+183235380+182518272+181623319+181073601
4227+181395755+182524464+183821272+184645802+184867249+184856288+184996724
4217+185293907+185551754+185716768+185876171+186051155+186054372+185526053
4207+184425122+183520517+183698456+184724605+185548387+185776942+185876283
4197+186090473+186101471+185595560+184600873+183544253+183103866+183545432
4187+184323928+184758068+184794543+184745873+184733977+184786163+185090585
4177+185775782+186598403+187099956+187083439+186808571+186653826+186686634
4167+186682575+186513558+186341417+186352042+186488999+186632652+186858551
4157+187255580+187659811+187864873+187972856+188253710+188721238+189066736
4147+188990588+188455573+187654630+186876489+186369007+186194397+186246677
4137+186505291+187096552+187932940+188558543+188678666+188596458+188704030
4127+188768730+188261940+187281187+186567746+186622028+187281954+188139255
4117+188940553+189599862+190134092+190495601+190364199+189515297+188450878
4107+188045338+188451065+189017093+189374225+189822525+190486791+190846542
4097+190420071+189471210+188693704+188386795+188230273+187818840+187231750
4087+187021807+187677600+189092866+190540530+191218395+190915413+190166451
4077+189729524+189908249+190332551+190363114+189766448+188974221+188623037
4067+188898729+189436943+189827818+190041709+190222828+190262856+189910363
4057+189305541+188978524+189161326+189483574+189502653+189222716+189010827
4047+189254477+190057982+191106259+191923774+192298377+192286985+191949044
4037+191415806+191131735+191646792+193079342+194888384+196191272+196392462
4027+195659305+194822954+194738670+195628704+196950484+197852059+197869548
4017+197306513+196774939+196433781+196032168+195547843+195258853+195256084
4007+195397157+195656818+196105660+196633549+196971172+196960304+196723201
3997+196559758+196653301+196971003+197513014+198327911+199130256+199411952
3987+199140282+198792577+198577004+198214316+197616209+197236987+197550162
3977+198513931+199700699+200703280+201291081+201424502+201302491+201230645
3967+201325329+201468870+201561778+201658295+201843211+202085607+202304062
3957+202576049+203099187+203901084+204918030+206299479+207930188+208790313
3947+208029343+206575843+206151691+206913204+207355425+206605715+205603134
3937+205687474+207149802+209262368+210988491+211459367+210451081+208861597
3927+208153487+208927045+210277182+210987537+211144620+211758664+213084933
3917+214044025+213469917+211599916+209780474+209013219+209347026+210617592
3907+213227651+217495560+222263713+225234047+225486899+224070379+221700341
3897+218395639+215233749+214113794+215622324+217914344+218691831+218503977
3887+219415485+221331163+222350017+222390251+222938117+223354001+221758420
3878+219211284+218604236+220842723+224646845+228425809+230515405+229589158
3868+227188930+226285298+227107358+227232644+225440436+223224564+222399997
3858+224021241+229031192+237102662+242979153+240554871+233076027+226429700
3848+222908077+222581340+224571240+227696356+231288645+235277890+238937461
3838+240450909+239260999+237049484+234974759+232683898+230137866+228396143
3828+228218297+229549186+232697702+238159095+244081562+246252113+244204996
3818+241768387+240216219+237719418+234144487+231828000+232642729+236695626
3808+241932073+245428444+247136442+249331047+251960204+252560687+251205313
3798+250141324+249600042+248429697+246674132+245473672+245668409+247631841
3788+251344795+255903977+259798331+262790550+266625797+272465252+278594222
3778+282515324+284662999+287514874+292783682+300709478+310102990+318865886
3768+325879765+331610152+336878080+342906810+351472444+363237884+376236236
3758+387646770+397681859+409280189+424672204+442819970+458781100+469248945
3748+477459112+487452938+498973232+507479946+511528204+515301949+521719890
3738+530441673+539751986+548264311+554670169+557785390+558434524+559008090
3728+560812737+563124734+564880485+566323865+567701666+568038728+567091626
3718+566506537+567902220+571690630+577511399+583678994+587135654+587378032
3708+587732003+590723436+595988783+601549367+605589769+607721713+608698407
3698+609377843+610569904+613157873+617880030+624570987+631207813+634525758
3688+633578842+630866786+628631329+627969850+629721748+633899818+639602335
3678+645417979+648217650+645777113+642881972+644618308+648449291+647956978
3668+642903371+638695822+638121807+640023045+641799933+642233587+642440313
3658+643982043+646612622+649244323+652474130+657714263+664953123+671465486
3648+673640190+671956078+670050949+669715683+670353145+670833636+670920127
3638+671546142+673867267+678167891+683874673+690193104+695761170+698047804
3628+696019223+692862514+691473639+691966176+693438100+694915486+695779950
3618+696639925+698512507+701154758+703733037+706291564+709491594+712961946
3608+715388567+716180232+715519576+713535288+711189996+710795773+713589532
3598+717638464+719872499+719761242+719756828+722397881+727412882+731212216
3588+730447336+726705987+724116335+724107132+725756229+727801569+729257033
3578+729495482+728078775+724944587+721306789+719427024+720650023+724176266
3568+727595217+728421299+726132197+722466042+719451564+718462451+719877811
3558+722829664+726031190+728427584+728850089+726377380+722169981+719163210
3548+719008558+721020903+723947168+727184084+730217640+732297547+732988879
3538+732485494+731104401+728760830+725825512+723818254+723855963+724701498
3528+724183299+722652193+722309669+723488525+724577373+724883385+725074099
3518+725749121+727318011+729630606+730440078+726952443+720514450+716354861
3508+717665474+722886677+728622189+732477413+733331029+731552794+728742499
3498+726200432+724570789+724667306+726854055+729886713+732105411+733662629
3488+735734006+737649235+737102829+733212290+727574492+722664089+720401922
3478+721538729+725301625+729642877+732616054+733525933+732654960+730703443
3468+728669475+727256359+726083788+724312287+722395861+722109377+724169981
3458+726785520+727126024+724178286+719678866+716185843+714890793+715080834
3448+715062354+714156664+713868759+715893075+719690164+723368065+725989965
3438+727501393+727483362+726106608+724976086+725053674+725476928+725661657
3428+726215022+726875678+725960636+722850838+719293246+717486431+718098005
3418+720141625+721538579+720758287+719101334+719213040+721472663+723812643
3408+724934337+725483811+725516283+723946944+721298633+720202977+721985476
3398+724516395+724168559+719857610+714282061+710795773+710569593+712505248
3388+714772279+716306078+717134854+717619310+718014731+718673367+719945149
3378+721864792+724414865+727193586+728174395+725023297+718846050+714068003
3368+713455082+715332228+716218689+714987609+713592375+714215771+716458560
3358+717590430+716129130+714294257+715006763+717811147+719476853+717797006
3348+713464659+708950874+706567050+706726864+707799252+708627579+709983757
3338+712621742+715557210+716726115+714848221+710722973+706920871+705913876
3328+708320370+712872762+717414230+719823193+719063401+716044734+712990827
3318+711537234+711666971+712862062+715171366+718234476+720369375+720371620
3308+719188349+718393018+718427585+718758811+718890568+718961646+719362380
3298+719520174+717875716+714365784+711592151+711841599+714020118+714943915
3288+713362829+711212592+710722375+711865168+713203987+714040320+714667831
3278+715196131+715441090+715606666+715940810+716004107+715185058+713779873
3268+712981474+713413632+714047876+713536111+712305031+712100250+713697048
3258+716057827+717414454+716693643+714276076+711693232+710242632+709888511
3248+709974404+710588223+712346481+715084052+717506407+718238142+717107545
3238+715479622+714997560+715531098+715150117+712626531+708762254+705154608
3228+702849644+702102795+702790985+704278696+704919899+703375026+700828694
3218+699980615+701701913+704343864+706198414+706911070+706765396+706117834
3208+705135603+703512694+701214987+699463688+699714034+701529454+702688258
3198+701787506+699684854+698152775+698129731+699304771+700535776+700849270
3188+700338851+699290331+696998909+693431516+691145257+692909201+697927120
3178+702173575+702389429+698924912+694877103+693291154+694787544+697268633
3168+697945675+695743737+691885296+688425568+686396539+685421940+685038640
3158+685825815+688374541+691449323+692490361+690500313+687260629+685007515
3148+684111776+683600085+682688559+681295346+679930339+679053829+678203430
3138+676531290+674562041+673991318+675193667+676566305+677068269+677653956
3128+679164861+680390404+679659418+677259433+674801912+673241327+672522611
3118+672060750+671122813+669662337+668330176+667240729+666092175+665474765
3108+666243610+667767234+668508096+668119110+667547339+667230030+666484828
3098+664800492+662649730+660695745+659042309+657898394+658093972+659910065
3088+662153677+663375031+663361339+662680332+661783396+661316522+661974185
3078+663232874+663386478+661652162+659136881+657314727+656651153+656612546
3068+656079831+654179117+651528412+649939321+650273539+651431521+651869065
3058+651220455+649950020+648470016+647182223+646483932+646242041+645944110
3048+645682915+646019079+646533837+645805843+643457933+641130074+640697543
3038+642269500+644231192+644739366+643249935+640864241+638998991+637880888
3028+636772213+635312111+633950171+633203323+633077028+633166213+632916316
3018+631914707+630335941+628957018+628325691+628055219+627325991+626028808
3008+625032100+625184470+626186565+626738957+626015976+624591450+623356779
2998+622149455+620400437+618446189+617187912+616903149+616993644+616571587
2988+615155404+613110662+611314657+610186230+609483039+609119341+609287573
2978+609585766+609074001+607623363+606279493+605909398+606180095+606224089
2968+605841574+605490858+605320494+604916693+604071794+603118669+602341032
2958+601599347+600590032+599188887+597632081+596458724+596099254+596469386
2948+597048601+597275603+596823245+595621756+593733798+591446566+589554606
2938+588946511+589455807+589686400+588621008+586871355+585701215+585513493
2928+585898103+586335049+586321431+585504739+583924252+581847488+579683072
2918+578063754+577251214+576688310+575960653+575553261+575739187+575652247
2908+574474551+572655801+571167193+570395355+570212122+570304412+570169774
2898+569391427+568145196+567058780+566298726+565268836+563647460+562119721
2888+561438976+561407065+561381028+561146544+560805105+560366289+559803721
2878+559231165+558845882+558592057+557919504+556330077+554240967+552682739
2868+552050102+551720111+550941539+549726359+548772635+548605750+548948199
2858+549074195+548618843+547761524+546780865+545795455+544894441+544180177
2848+543562393+542696918+541319604+539580125+537875101+536441186+535267268
2838+534260235+533389673+532760291+532419676+531995561+530892049+529067388
2828+527243214+526239399+526408453+527472499+528452410+528176139+526449529
2818+524333148+522859017+521987332+521114152+520087404+519350245+519247705
2808+519426037+519095297+517938363+516420239+515042513+513802754+512600105
2798+511567409+510729730+509846486+508801969+507797891+507052988+506537407
2788+506031403+505319495+504333075+503205246+502161926+501244003+500243928
2778+499059349+497906006+497005404+496271874+495438721+494330009+492990590
2768+491680501+490700179+490154371+489950675+489972522+490049287+489849593
2758+489111873+487988982+486917829+486156803+485626894+485096349+484324922
2748+483179436+481817534+480562549+479494015+478426528+477320920+476411078
2738+475891269+475676163+475448188+474876642+473864484+472594311+471338803
2728+470310820+469636510+469339888+469325223+469335810+468972674+468026282
2718+466828011+465924191+465379692+464763554+463787721+462601832+461500451
2708+460671003+460200089+460029762+459865908+459342583+458366974+457199079
2698+456114384+455108660+454066649+453101665+452493569+452292754+452221301
2688+452004624+451522113+450621660+449240567+447787348+446871408+446500603
2678+446061300+445258113+444504718+444133838+443829734+443217486+442486500
2668+441983488+441586571+440938896+440080118+439427580+439168630+438998640
2658+438547441+437812414+437010723+436256057+435594390+435119960+434817914
2648+434442806+433732283+432707555+431702355+431064856+430822665+430717394
2638+430521367+430161859+429608457+428876610+428132007+427615453+427422269
2628+427349470+427008368+426235258+425322423+424623459+424094897+423503524
2618+422869915+422395185+422136310+421995499+421836433+421459904+420716572
2608+419780842+419016823+418474419+417904706+417331477+417052961+417021462
2598+416851435+416470454+416112443+415724915+415050717+414178247+413423804
2588+412830374+412227591+411612425+411155839+410935832+410837033+410682007
2578+410389238+409982894+409507304+409014542+408576699+408210457+407854578
2568+407486130+407122881+406674226+406016039+405284866+404842982+404827906
2558+404932428+404739843+404146450+403412096+402929099+402907663+403127333
2548+403127371+402796182+402474047+402325044+402073651+401536783+400916605
2538+400423095+400051429+399778787+399611865+399448646+399162462+398789412
2528+398472813+398257670+398057677+397827383+397605543+397346593+396926631
2518+396379027+395916007+395694616+395710926+395854617+395950237+395846350
2508+395528292+395094489+394646657+394220447+393793041+393400014+393151127
2498+393003209+392750880+392397246+392205147+392270090+392382694+392313224
2488+391957494+391360023+390794126+390561176+390597912+390540189+390217492
2478+389847323+389696075+389733223+389703370+389419505+388881179+388222543
2468+387692447+387533605+387691362+387790535+387578759+387234290+387055733
2458+387010542+386824129+386440941+386109715+385974853+385877438+385663342
2448+385421301+385308773+385356769+385472216+385458861+385129056+384562037
2438+384089365+383886641+383784438+383592414+383365935+383225237+383140616
2428+383010879+382814740+382640298+382615870+382763788+382924799+382925884
2418+382777891+382589458+382356620+381990042+381550515+381312888+381466792
2408+381839393+382125690+382309409+382569444+382867525+382981363+382871116
2398+382690240+382504987+382268184+381998833+381775722+381580967+381266612
2388+380651559+379590095+377970253+375639401+372286366+367523582+361290333
2378+354109420+346744938+339638508+332770490+325986046+319365269+313212320
2368+307666513+302653139+298444823+295737948+294843705+295433956+297356031
2358+301024225+306834314+314955783+325622909+338291083+350342371+358087422
2348+359298413+354774715+348162243+343263250+340773631+339007181+336816990
2338+334310687+331932736+329827054+327931614+326435150+325797014+326134226
2328+326929295+327566757+327988140+328749504+330431184+333056001+336218509
2318+339519994+342580896+345041522+346935578+348736969+350875722+353481610
2308+356428038+359275668+361458489+362809617+363671201+364458863+365380976
2298+366459387+367557662+368495562+369244243+369881705+370408509+370781970
2288+371062469+371388158+371850916+372414756+372887615+373041145+372847026
2278+372492194+372107435+371670190+371224602+370937819+370856416+370872577
2268+370978633+371297963+371821961+372306230+372483403+372332642+372143610
2258+372270803+372772655+373340722+373602478+373455084+373141627+373048215
2248+373361933+373901270+374321456+374454373+374393582+374319024+374332679
2238+374443412+374628590+374879048+375213865+375646023+376090451+376366796
2228+376399530+376348054+376443786+376790836+377334025+377879646+378171592
2218+378101935+377833445+377637643+377645050+377781296+377926820+378089515
2208+378336120+378604572+378780735+378944814+379305145+379862513+380342255
2198+380530089+380553358+380715978+381111549+381563459+381916831+382157900
2188+382272299+382260178+382254641+382371434+382526311+382597502+382628514
2178+382740257+383003734+383432899+383919337+384236161+384329722+384479324
2168+384913053+385440680+385733972+385776058+385800075+385971037+386280865
2158+386595032+386760757+386762927+386692335+386572773+386408657+386329460
2148+386476256+386854095+387400875+388017126+388514863+388748823+388775833
2138+388756941+388774486+388808754+388838906+388954465+389318723+389919075
2128+390456279+390673480+390697198+390849044+391206756+391545875+391674452
2118+391665586+391734757+391973169+392277460+392536784+392781856+393063514
2108+393303347+393429231+393537794+393734869+393939762+394019333+394003321
2098+394041180+394229014+394557060+394987048+395494661+395975900+396232755
2088+396227218+396194335+396289057+396334135+396112296+395655448+395139044
2078+394781706+394829291+395308472+395892401+396283108+396539028+396805760
2068+397006351+397008222+396840140+396596004+396342253+396173573+396160479
2058+396238853+396286662+396247345+396115064+395927379+395792293+395798166
2048+395929960+396141400+396390624+396556536+396497354+396259204+396071743
2038+396063139+396101409+396006127+395827607+395781855+395940286+396136163
2028+396195607+396117421+395978556+395818666+395726638+395878597+396260476
2018+396458298+396064112+395268556+394674228+394579656+394807481+395109789
2008+395378503+395521932+395444569+395178174+394893374+394746840+394736253
1998+394753985+394826747+395162612+395785596+396270501+396138445+395457887
1988+394748112+394373715+394273158+394178960+393936171+393633601+393481642
1978+393571837+393797006+393991986+394071594+394096247+394284830+394795211
1968+395398592+395631618+395384564+394996101+394721289+394525412+394404915
1958+394490508+394778189+395063326+395161153+395027226+394731651+394447637
1948+394421562+394868496+395775870+396678529+396841898+396046118+394936844
1938+394236234+394003284+393866701+393636294+393481605+393635434+394078702
1928+394638688+395344498+396311091+397258755+397778713+398081320+398580179
1918+398844479+398068152+396538804+395469671+395561736+396426949+397120488
1908+397038935+396386696+395794799+395630682+395807892+396100437+396454670
1898+396987010+397681597+398265526+398675499+399305591+400257333+400827457
1888+400441912+399544004+398842795+398473412+398283707+398229986+398293471
1878+398429305+398633899+398976199+399784698+401647441+404641979+407424292
1868+407922066+405797566+402958279+401212291+400882637+401329122+401856749
1858+402100511+402028235+401843468+401830113+402224936+403105149+404412171
1848+406301214+409071891+412015739+413011774+411138481+408323323+406630569
1838+406318946+406582759+406980088+408061754+410546434+413834152+416011212
1828+416255498+415695923+415051577+413890117+412333011+411349097+411317150
1818+411665846+411871263+412187712+413207314+414901452+416394363+416904332
1808+416628959+416366717+416814586+418355344+420777662+423048397+424094111
1798+424119213+424553129+426597347+429877732+432103425+431233948+428460988
1788+426556645+426638685+427950794+429463981+430933585+432321075+433271133
1778+433885027+435270946+438628620+443652412+447684172+448060402+445538088
1768+442493308+440329155+439941739+441712604+444392115+445907022+446096278
1758+446242476+446561169+446945966+448601609+452607856+457625026+460561804
1748+460298776+458615337+457455298+457636175+459104806+460978211+462111839
1738+463000395+465779677+471013151+475158113+474506323+471171506+468404570
1728+466867029+466465361+467270942+469109706+472102223+477258334+485250365
1718+494087556+498908400+497610095+493614922+490657307+490287849+492796471
1708+497773838+503776044+508948016+513533965+519792091+528004166+534485591
1698+536913147+537012956+535498011+532890552+531761563+533764893+538295662
1688+544701295+553908619+565578663+573886732+574102548+570908018+569810678
1678+572423449+578145831+584924739+590833234+596411101+602701251+607809028
1668+609128843+608618200+610197490+614662044+619458310+622176315+623738172
1658+626842395+633577047+644738618+657410421+663335451+662156595+662003066
1648+664826978+666544683+663741945+659071638+656293590+656485951+659695633
1638+665513596+671357372+672259695+667417453+662116118+659825519+660274212
1628+661823274+663550707+665595149+667396129+667603828+666912496+667844448
1618+670892519+672921324+671274996+668374843+667437879+668655865+670417191
1608+671473866+672052969+673144436+675162617+677651188+680061647+682316258
1598+684526800+686700231+688861541+691053229+693145107+694984993+696751631
1588+698862363+701506185+704469186+707425005+710303760+713554816+718082592
1578+724271960+730287896+732988430+733287484+735190966+739794235+744325528
1568+746022733+746003056+746916976+750498061+758332036+771725323+787379281
1558+793983148+789442279+783880123+781547027+781797897+783513882+786043379
1548+789586905+795212732+803500337+813608899+824131287+832565763+834094475
1538+829336105+825810985+827082617+830973455+833476242+834026464+835363863
1528+838965972+844097691+849777538+855868817+861525844+864762759+865470776
1518+865395508+864719514+862809597+860697816+860469841+863667926+870759167
1508+879702939+883878840+879274523+872874988+870798896+873172620+877774691
1498+881625501+882317881+880497148+879401716+880997765+884221064+885840307
1488+883603653+879077299+875563102+874765377+876037682+877755987+879478930
1478+882310249+887103934+893151069+898083394+898810640+894873115+889820405
1468+886975768+886869749+887984634+888809070+890017479+893528534+899659317
1458+905112162+904235053+897430894+891013252+887699123+886662424+886644617
1448+886766124+886422328+885615101+884978462+885052383+886053842+888182008
1438+891126379+893130868+892545031+890562764+889331011+889334377+890004685
1428+891196709+893140445+895425058+897251925+898788418+900947335+903109019
1418+902587677+898552812+893724261+890689508+889774241+889831179+890175423
1408+891310360+893412040+895275269+895885123+896094393+897339389+899833198
1398+902728188+904970753+905540653+904065736+901864996+900987513+901986727
1388+903183914+902205799+899026120+896341223+896360750+898878426+902385216
1378+906025483+909746630+913008760+914724820+914804952+914392996+914357007
1368+915059937+916975241+919893575+922019196+921458424+918579745+915419220
1358+913312677+912397560+912290867+912450682+912398383+911867015+910754748
1348+909210025+907654154+906386712+905436280+904989383+905364154+906235876
1338+906545030+905703759+904142501+902390004+900731780+899631559+899355176
1328+899429472+899375677+899473391+899974457+900306656+899998773+899671064
1318+899950814+900060350+898874461+896937085+895952685+896616558+898322966
1308+900544656+902932221+904258172+903215937+900505226+898352296+897819282
1298+897988299+897718500+896863912+895556740+893579710+890839746+887689396
1288+884624790+881911835+879396105+876793060+874260719+872186798+870393973
1278+868292593+865841582+863639719+862185677+861623483+861875999+862686070
1268+863730774+864664222+865119274+865139700+865508635+867021634+869472272
1258+871850858+873507512+874635116+875665306+876742033+877845321+878897657
1248+879602981+879792573+880031771+881066824+882642223+883834247+884645889
1238+886261765+889498157+893679893+897201497+899108945+900137713+901838360
1228+904632269+907466806+909550304+911324723+913351808+915467927+917482143
1218+919646371+922045009+924308149+926139955+927693955+929503240+932119902
1208+935517904+938986311+941951632+944548168+946946132+948786018+949905842
1198+950929746+952463247+954360519+956383563+958917026+962242678+965534286
1188+967611275+968612585+969873592+972042609+974175039+974928098+974216864
1178+973447345+974200478+976663162+979471960+981369607+982520405+983658859
1168+984908494+986143614+987660803+989774753+992054877+993506001+993906510
1158+994503944+996546216+999521787+1001735696+1002374655+1001790838+1000233321
1148+998036621+996287640+995993824+997275781+999855557+1003483554+1007619426
1138+1011278997+1013388233+1013561889+1012853423+1013036133+1014597690
1130+1016384380+1017542660+1018346820+1019256625+1020723386+1023092545
1121+1025489238+1026338738+1025985965+1026719121+1029628551+1033166541
1113+1035061569+1034673255+1033113568+1031536748+1030206682+1029107957
1104+1028492941+1028055546+1027090525+1026370537+1027305406+1029442251
1095+1031029397+1031292163+1030824092+1031189510+1034268108+1040208252
1087+1046524513+1050560501+1051816196+1050830375+1048348088+1046066692
1078+1045809912+1048066318+1051848518+1055172374+1056067215+1054139641
1070+1050954650+1048621105+1048659562+1051549240+1055654436+1058101632
1061+1057854578+1056654623+1056614295+1058306263+1061922888+1067638124
1053+1072898084+1073741823+1070381306+1067042561+1065811107+1065037997
1044+1063866174+1063853829+1065603707+1067198859+1066623572+1063856597
1035+1060340680+1057726487+1057223924+1058878782+1061246519+1062500868
1027+1062121683+1061124713+1060642951+1061241432+1062885740+1064559975
1018+1065128379+1064936542+1065931865+1069286846+1072779270+1072935119
1010+1069929097+1066743732+1064574041+1062448644+1060024193+1057998306
1001+1056634047+1055652491+1054528777+1052784136+1051156288+1051184046
993+1052929061+1054937216+1056153931+1055672542+1052035717+1045369599
984+1038579282+1034801346+1034496681+1035683917+1036490546+1036339934
975+1034948067+1031611343+1026428522+1021530688+1019342967+1019502631
967+1018690316+1014250004+1007252885+1000924428+996853051+994125507+991761734
957+989960605+988385206+985396167+980418427+975451235+972642736+971784257
947+971175227+969872919+968361191+967397666+966685459+965012645+961904942
937+958562531+956449180+955603944+955058884+954311138+953685273+953578880
927+953859154+953896489+953020278+951129889+948891439+947247655+946914334
917+948194271+950652989+952808763+952985187+951237404+949496130+949035167
907+949022373+948259214+947051254+946404140+946527517+947001050+947456775
897+947456701+946566498+945035392+943753435+943153084+942753922+942079199
887+941341629+940732673+939576487+937064648+933747002+931339535+930722574
877+931118668+931703607+932610718+933556885+933257009+931434556+929706001
867+929360036+929816510+930048974+930123943+930571663+931322701+931875617
857+931893050+931240399+929877936+928034309+926153946+924609522+923735406
847+923898662+924977858+926088778+926698033+927469721+928949052+930119828
837+929572598+927711089+926559767+927352030+929272273+930951746+932290940
827+934089825+936768138+940073214+943294567+945321427+945125849+942689502
817+939655422+938203849+938965661+940438632+940704017+939659836+938945909
807+939898885+942209310+944329994+944842582+943793239+942553106+942041790
797+942203774+943015191+944337252+945151362+944569042+943386446+943164232
787+943949088+944171676+943196703+942414540+942768437+943324645+943073176
777+942093789+940905805+940198986+940469832+941180094+941356593+941054023
767+940705663+939871276+938489884+937662231+937996599+939128768+940882536
757+942931319+944094687+943594444+941634846+939009879+937226781+938047850
747+941761965+946260786+948696011+947845762+944786992+942232430+942934012
737+946996860+950913062+951353075+949763236+950296100+953850550+957113502
727+957215107+954464818+950460179+946683067+944677905+945047438+946237218
717+946063188+944198611+941724031+939414803+937843818+937763013+938687333
707+938504698+936432722+934671621+935119266+936402271+936046504+934275302
697+933287835+933123980+931018485+925307139+917685726+910695192+904928330
687+900389032+898358132+899374854+900901695+899803345+896323041+893069366
677+891255293+890413274+890338081+889491049+883307219+869343134+855683639
667+855449678+865817265+874641326+877908992+877965332+877124211+875686629
657+873416381+871141495+870571520+871848240+871678923+867001284+859989276
647+855899418+857114262+861154440+863800506+863539386+862565086+863549636
637+865990697+866094546+860522514+850632650+841703767+838047189+839916853
627+843631566+845380471+845395435+845851834+845786292+842084748+835420202
617+829841511+827046030+826578034+829112919+834643650+839064584+838117669
607+834377143+833240411+833953440+830338013+820402134+811300643
##END=
