##TITLE=<SNM>
##JCAMP-DX=4.24
##DATA TYPE=INFRARED SPECTRUM
##DATE=2/5/2025
##SAMPLING PROCEDURE=Instrument type and / or accessory
##ORIGIN=Admin
##XUNITS=1/CM
##YUNITS=ABSORBANCE
##RESOLUTION=4
##FIRSTX=4497.3318
##LASTX=599.83466
##DELTAX=-1.4281778
##MAXY=1.8752763
##MINY=0.40161711
##XFACTOR=1
##YFACTOR=1.7464872e-09
##NPOINTS=2730
##FIRSTY=0.4310368
##XYDATA=(X++(Y..Y))
4497+246802155+245709623+244120405+242841685+242375339+242549086+242821345
4487+242876684+242767507+242649150+242619152+242738805+242999375+243211141
4477+243124148+242776961+242634288+243135069+244066533+244644684+244347051
4467+243516607+242953558+242986696+243240628+243325983+243315386+243427958
4457+243678460+243906164+243866644+243367944+242573761+242075983+242380339
4447+243194504+243415297+242167020+239838650+237727508+236756046+236925203
4437+237729538+238620680+239306471+239842558+240262695+240330030+240054649
4427+240074426+240946541+242270565+242931955+242231471+240628977+239326060
4417+239265670+240496525+242104241+242830696+242259849+241211956+240636246
4407+240570959+240458506+239948509+239118885+238368164+238191960+238744890
4397+239607943+240112274+239952110+239504244+239441807+239996630+240751736
4387+241180524+241034592+240171606+238639194+237028151+236148408+236221938
4377+236715296+237030471+237087278+237119717+237232613+237396873+237635890
4367+238010926+238527134+238980034+238880601+237880027+236392067+235373900
4357+235334824+235906456+236408551+236470972+236025888+235200614+234329728
4347+233678884+233189228+232690255+232277030+232320253+232958453+233646002
4337+233577591+232696091+231761693+231260194+230984966+230892718+231426092
4327+232624985+233729343+233983786+233364955+232424737+231769013+231720636
4317+232167376+232665205+232881425+232862774+232651435+231963254+230789207
4307+229957090+230277299+231448907+232626214+233640712+234726162+235504509
4297+235305866+234286470+233385005+233246393+233783317+234643060+235481678
4287+235887549+235667216+235158056+234771399+234377235+233607061+232685733
4277+232398134+233023518+233772703+233793214+233384425+233467937+234233350
4267+235061302+235429956+235240100+234533696+233449337+232371070+231843020
4257+232201914+233264532+234472930+235386050+235868010+235868983+235399736
4247+234748465+234418069+234691010+235204215+235191980+234427403+233584980
4237+233370484+233740725+234249629+234607840+234614631+234127347+233374818
4227+232867688+232886442+233315025+233854508+234192174+234168557+233969401
4217+233974248+234339011+234809538+234901258+234305958+233256171+232374995
4207+232113589+232511440+233395807+234408325+234936273+234621696+233983223
4197+233963395+234759113+235537477+235442618+234566118+233640985+233062561
4187+232676962+232340543+232122770+231940474+231591273+231327273+231834283
4177+233348556+235173619+236342428+236479828+235859512+235010332+234419451
4167+234223657+234053579+233474814+232572564+231850853+231651339+231870767
4157+232199217+232486390+232787095+233132217+233438911+233662451+233842273
4147+233920854+233680147+233005089+232257833+232164936+233003604+234108986
4137+234647480+234606321+234487367+234486479+234559480+234782440+235104679
4127+235158568+234694201+233914608+233175185+232598365+232119016+231705705
4117+231452610+231580488+232268310+233266819+233827223+233443723+232512686
4107+231799950+231527231+231439607+231431092+231580864+231861467+232242663
4097+232800251+233423587+233672417+233297313+232694129+232513027+232964442
4087+233666666+234083134+233982933+233444935+232568588+231482079+230629264
4077+230572543+231277497+232033320+232321499+232283207+232202647+232137804
4067+232224899+232763904+233727585+234502076+234373310+233287740+232066663
4057+231685655+232270921+232980909+232964391+232269402+231670758+231763757
4047+232394756+232895213+232775167+232165806+231567571+231279101+231210282
4037+231196596+231246219+231381316+231521651+231696286+232118623+232911083
4027+233941809+234894330+235366529+235174711+234666745+234357167+234328909
4017+234424536+234661216+234850987+234368361+233050121+231746215+231304766
4007+231604992+232098078+232721261+233752123+235106283+236198662+236445956
3997+235729790+234414110+233131074+232536422+232923284+233925222+234851191
3987+235381102+235646364+235713289+235409428+234755496+234320974+234808241
3977+236129143+237221914+237148572+236064333+234786484+233956381+233936502
3967+234867163+236446502+238008571+238984453+239247975+239149532+239148064
3957+239235416+238997354+238452529+238419084+239592073+241338265+242032315
3947+241194500+240416101+241066365+242222700+242101374+240722113+239578269
3937+239618591+240973144+243524831+246524266+248229674+247393616+245151933
3927+244002508+244925611+246363897+246605355+246414253+247646626+250188127
3917+251601653+249953529+246160577+242632359+240758152+240595173+242266709
3907+246512986+253339347+260719951+265722324+267060495+264952099+259807599
3897+253413576+249086687+248952256+251846063+253884461+252854588+251725897
3887+253857414+257795257+259788009+260061974+261080277+261441406+258769313
3878+255694643+256101180+259798248+264300436+268292851+270618063+269677777
3868+267204414+266689042+267766200+266730457+262459999+258247116+257474673
3858+261615460+271145601+283959739+290608376+283177006+269752945+259590423
3848+255162242+255943660+260263331+266025008+271950773+277853212+282640697
3838+283577996+280053072+275151616+271217339+268028169+265345001+264085087
3828+264394818+265431073+267972625+273902213+281382710+284453046+282180101
3818+279287403+276468132+271204183+264791526+261170342+262337035+267619004
3808+273848529+277898535+281266589+286851225+291986545+291168524+285925205
3798+281347302+277857205+274139404+271272900+270902232+272826540+276027450
3788+280087456+284669573+289090417+293664975+299968950+308288919+316199450
3778+321687281+326320130+332987675+343118662+356360102+370426287+382092092
3768+390203434+395477281+398203177+399521144+401756787+405216816+407584809
3758+408127278+409883248+415982214+426610212+438029884+444132161+444919808
3748+447713244+456206755+465861822+469205304+468648876+472529401+484082548
3738+501883291+521221378+534805876+538435694+535954123+534238288+537256595
3728+546012314+559206794+572497277+580636570+581899045+578853844+575619437
3718+574837284+577222853+583056813+591638580+598590106+598159543+591031710
3708+583018658+578633853+578929268+581190063+581119281+578033809+575400879
3698+575411391+577413835+580754723+586227333+594299973+602286611+604729310
3688+600065199+593070603+588013267+586162967+587384145+590898610+596394905
3678+604018076+610883325+611910929+609256702+608385407+606999866+599333693
3668+587870133+579432251+575931369+575222047+575197133+576032526+578752278
3658+582353497+584102368+584354371+587710139+596918092+607573426+608823819
3648+597271866+582513013+571632022+564954035+561037948+559328189+559909803
3638+562423557+565852838+569232086+572504546+576558102+581500426+584464196
3628+582161286+577014806+573574673+573590782+576951055+581945732+585119323
3618+584745959+583467513+584166324+586454081+588683820+590696161+592225041
3608+591277025+587367627+583683887+583231823+585540739+587985691+589512113
3598+591523909+594706578+597376367+597937504+597875323+600393104+606071508
3588+610678283+609728901+605013189+601405145+600908032+602225521+603059685
3578+602149005+600050524+598485468+598963811+602141087+608002624+615147862
3568+619759551+618609973+613565537+608572089+604708833+601364123+598901424
3558+597891431+597716148+597594242+597503324+597561752+597987468+599361405
3548+601414496+602327360+600609750+596871131+592840169+589904725+588881491
3538+589688762+590879362+590865369+590006360+589944383+590673636+590116731
3528+587389879+584750260+584497574+585786054+586154912+584711080+582448851
3518+580512548+579456687+579350138+579528288+578742518+576327599+573189911
3508+571198115+571440119+573089301+573886879+572342505+569672102+568421709
3498+569504430+571514245+572647271+572645087+572242270+571509877+569912945
3488+567628602+565822259+565177131+564948949+564038202+562315064+560412001
3478+558748656+557347723+556208862+555431180+555261392+556074464+557655492
3468+558540883+557199709+554050758+550974774+548884723+547262400+545924877
3458+545581376+546328274+546751021+545493666+543418665+542846266+544487325
3448+546339434+546425164+545421724+544970957+544941129+544053930+542193425
3438+540553287+539798062+539242897+537995098+536291242+535068152+534596533
3428+534510462+534680318+534951911+534714890+533521969+531422089+528574082
3418+525441035+523131710+522636133+523788850+525419774+526355947+526189401
3408+525424313+524944776+525193196+525714267+525570416+524288215+522264475
3398+520326602+519099928+518654349+518452856+517865269+516969571+516342396
3388+516059438+515654949+514941838+514155249+513451353+512832982+512288363
3378+511671562+510741804+509585947+508813624+509128935+510671364+512642171
3368+513717656+513153379+511547232+510322265+510395880+511448602+512447981
3358+512577805+511587640+509843923+508442615+508599366+510334722+512297680
3348+513227471+512844415+511266561+508802395+506434710+505263700+505231312
3338+505212507+504529873+503710043+503667724+504687000+506142401+506931379
3328+506309971+504507928+502579475+501565215+501641219+502126285+502391940
3318+502431562+502269590+501449282+499825184+498272790+497716328+497910245
3308+497947718+497492071+496826023+496227105+495815142+495545119+495163053
3298+494615669+494290733+494346977+494488405+494910162+496349353+498617998
3288+500260866+500402089+499915897+500027565+500683920+500951384+500549045
3278+500302059+500931009+501917249+502089699+501156120+500093501+499975826
3268+500723782+501147485+500295677+498544451+497032465+496423411+496525352
3258+496624051+496054825+494882621+493901773+493554791+493374491+492984234
3248+492748714+492872771+492840349+492282112+491605075+491306555+491134241
3238+490385056+489063642+488141769+488220571+488534415+487965633+486552345
3228+485152812+484048488+482853042+481622102+481042399+481234200+481199321
3218+480105816+478506632+477451214+477040514+476644148+475868719+474625937
3208+473025422+471783390+471751685+472629909+473182412+472934504+472415685
3198+471752265+470561802+469145477+468303122+468147736+468121764+467751234
3188+466858369+465614017+464547951+463996711+463715084+463345645+462813346
3178+462077232+461031985+459733949+458283496+456608547+454721150+452991391
3168+451840925+451204535+450580909+449688761+448837498+448565905+448997901
3158+449545797+449405769+448423727+447128080+445864172+444461635+442870062
3148+441476945+440627423+440200614+439670670+438604468+437283941+436491346
3138+436416058+436328724+435631073+434634732+433961380+433711766+433547028
3128+433201548+432607647+431769422+430862496+430283475+430228836+430333405
3118+429989119+428935510+427453591+426143200+425520871+425649603+426039348
3108+425861983+424536508+422488639+421002932+420849252+421433119+421686624
3098+421233366+420256034+418915542+417431609+416264626+415818740+416088592
3088+416723345+417380622+417856541+417888110+417216055+416024192+414876116
3078+414072941+413498049+412997967+412489865+411957429+411618638+411687304
3068+411860266+411527413+410514382+409153926+407741424+406443592+405563424
3058+405362271+405642362+405857098+405681337+405252685+404814887+404331050
3048+403572378+402519759+401538809+401049648+401056098+401114526+400769455
3038+399910480+398807760+397964177+397702447+397696474+397263454+396314005
3028+395480148+395140469+394946893+394441965+393579372+392508426+391299158
3018+390012214+388829258+387986289+387549071+387357168+387223180+386996364
3008+386503244+385791088+385266605+385115314+384846656+383969354+382845031
2998+382287409+382492144+382859331+382749369+382020320+380882995+379626732
2988+378559813+377900761+377598794+377430780+377251948+376973222+376415327
2978+375478505+374402576+373569777+373020823+372412145+371540645+370681499
2968+370227490+370181007+370201075+370014529+369589734+368989281+368230609
2958+367322250+366396417+365698425+365369633+365313082+365324003+365250116
2948+364965417+364325921+363307498+362169422+361345804+361114311+361374881
2938+361678862+361496275+360670131+359643620+358959621+358582332+358109690
2928+357478179+356907042+356362423+355651360+354806616+353963203+353166921
2918+352501420+352053451+351732475+351396174+351019671+350605080+350175576
2908+349884018+349842449+349874530+349669658+349134901+348445475+347823624
2898+347379717+347114779+346950690+346687868+346066903+345087523+344210494
2888+343942109+344228377+344570650+344645323+344465979+344084970+343539839
2878+343001055+342634620+342374767+342039593+341603638+341203688+340884862
2868+340452285+339686890+338710718+337967370+337758368+337940545+338126851
2858+338034807+337619193+337018261+336391529+335757596+335045884+334309464
2848+333766585+333591677+333713447+333830883+333668056+333245241+332822221
2838+332541959+332262141+331792092+331174779+330676506+330527604+330658077
2828+330715924+330426345+329858655+329239943+328643585+328003577+327295995
2818+326566298+325904448+325468424+325363207+325428153+325325973+324934009
2808+324462663+324084317+323644608+322925729+322043683+321354838+321061846
2798+321084029+321218461+321282759+321141502+320683056+319860086+318848728
2788+318038829+317622430+317320087+316801371+316199382+315852604+315714043
2778+315412622+314809984+314152912+313678256+313328918+312900745+312311076
2768+311683354+311236512+311060717+310947957+310553332+309787561+308907767
2758+308181142+307656112+307302304+307154699+307207393+307276400+307089343
2748+306521960+305687216+304781621+303952918+303322090+302926373+302585363
2738+302054804+301380053+300859290+300599129+300372961+299989700+299529753
2728+299113695+298701186+298246427+297805114+297360934+296795052+296156546
2718+295711513+295588480+295584726+295431319+295065157+294573777+294053116
2708+293585627+293211888+292869854+292476934+292101523+291918220+291938765
2698+291911155+291580213+290982661+290393811+290006455+289744930+289416445
2688+288986326+288625726+288465767+288388159+288145950+287647199+287030160
2678+286509942+286232445+286203487+286273911+286241011+285989383+285507201
2668+284853098+284184473+283713708+283550557+283635673+283809847+283911515
2658+283870988+283696899+283312393+282577884+281635703+280998835+281039823
2648+281507893+281739266+281328753+280510527+279865212+279718358+279902634
2638+280052662+279964730+279651467+279226740+278832012+278588950+278542331
2628+278624751+278673179+278524397+278154975+277717774+277396251+277214621
2618+277013434+276647272+276186335+275838363+275667892+275529092+275331131
2608+275204020+275267498+275380531+275296934+274994967+274658974+274391613
2598+274172134+274076523+274263085+274671072+274959422+274867225+274515857
2588+274259417+274276907+274369685+274196262+273684969+273118695+272811592
2578+272825362+272992915+273093952+273010201+272784767+272554145+272448040
2568+272545408+272819100+273096546+273183573+273053800+272845054+272710521
2558+272734120+272912134+273143967+273283603+273245482+273064943+272856470
2548+272707620+272600337+272440139+272167454+271823543+271480588+271130244
2538+270700927+270189309+269723936+269488706+269562731+269782961+269826884
2528+269557936+269202541+269040346+269060396+269077221+269020057+268938729
2518+268858340+268759009+268617274+268420081+268201421+268061375+268081272
2508+268220123+268331364+268273039+268001531+267617127+267327805+267270759
2498+267346831+267335176+267180285+267043908+267069982+267209192+267281168
2488+267170166+266958212+266830914+266847671+266876475+266747367+266405299
2478+265952690+265571733+265346895+265209700+265122485+265153388+265260466
2468+265222651+264921554+264492749+264113584+263839824+263673039+263604355
2458+263587121+263567258+263494582+263303463+263004329+262749714+262651869
2448+262611614+262472268+262232944+261994711+261827363+261761990+261774601
2438+261753322+261613549+261441133+261398916+261503349+261606894+261598993
2428+261513929+261421885+261320353+261176468+260993847+260810305+260675055
2418+260623880+260655329+260761655+260946204+261154421+261267130+261240749
2408+261164062+261133483+261172475+261268324+261376084+261420127+261403165
2398+261487599+261898538+262797750+264340145+266866714+271003747+277515871
2388+287032412+299936801+316492134+336885809+360977525+388100994+417329463
2378+447907092+479199880+510236262+539694414+566582842+590532072+611131302
2368+627598277+639635671+647900795+653014170+654900442+653238803+647375424
2358+636078546+618759933+595798820+567839958+538393239+514765361+503048090
2348+505075277+518868948+538478150+555630319+565814068+569981168+570441593
2338+569287066+568292772+568248781+569058748+570160341+570478690+568958820
2328+565648341+561380426+556332270+549929902+542056980+533280716+523937752
2318+513957749+503556977+493373774+483768841+474266395+463894667+452129719
2308+439351912+426366433+413811927+402109434+391537680+382035030+373110922
2298+364229713+355274720+346524052+338258893+330550845+323353118+316628375
2288+310414907+304857796+300117272+296182552+292829446+289787829+286925283
2278+284290681+282013845+280146634+278601765+277255421+276050282+274946488
2268+273848597+272685965+271532309+270535831+269734242+269038264+268382233
2258+267769118+267175166+266539475+265851773+265156886+264492272+263883610
2248+263356209+262915680+262566360+262341096+262240179+262155319+261932478
2238+261509919+260959002+260410612+259984964+259762293+259735981+259771764
2228+259684259+259399919+259016556+258702098+258565414+258601658+258709589
2218+258760645+258678976+258479342+258251724+258105808+258104528+258231451
2208+258405045+258519051+258505826+258383646+258214899+258033319+257861842
2198+257754167+257749406+257831195+257965472+258120091+258242304+258293036
2188+258307694+258355866+258437313+258459906+258340850+258117650+257925969
2178+257851620+257852712+257862541+257900663+257993679+258052551+257971718
2168+257819489+257763092+257812970+257810991+257682498+257537469+257495406
2158+257530746+257531224+257435238+257263300+257049520+256817123+256630595
2148+256574642+256644724+256741017+256792244+256823966+256916334+257147826
2138+257544568+258061714+258646690+259303285+260064227+260947791+261953143
2128+263034652+264100120+265123389+266229095+267560184+269093023+270687036
2118+272269310+273837386+275313589+276550757+277467580+278042727+278208932
2108+277882290+277073091+275893156+274500670+273063373+271704265+270454759
2098+269285233+268165774+267105510+266175804+265463700+264943516+264446761
2088+263850898+263242169+262777461+262461620+262211153+262053070+262057729
2078+262144005+262166564+262144483+262214088+262402340+262604055+262765704
2068+262967009+263265666+263534921+263587923+263449140+263328479+263328428
2058+263351908+263304112+263237766+263287747+263531918+263909275+264267537
2048+264514114+264712911+265025202+265528816+266067805+266357366+266300577
2038+266091626+265968543+266007039+266148228+266288205+266376819+266502770
2028+266805403+267283472+267771729+268106715+268320955+268685155+269409938
2018+270242788+270633557+270429300+270064383+269959165+270114398+270332051
2008+270470168+270436825+270226321+270009078+270006740+270246167+270510422
1998+270616237+270795001+271594201+273121716+274589693+275068991+274535907
1988+273652291+272890240+272377855+272159280+272194586+272360398+272603750
1978+272911315+273163762+273203777+273036821+272958616+273461173+274748799
1968+276232630+276881767+276370559+275466415+275039283+275203747+275625658
1958+276161728+276809466+277358488+277552781+277491913+277567388+278042795
1948+278939226+280329408+282315659+284352009+285111091+283932880+281905897
1938+280562931+280291765+280535236+280793212+280981105+281177872+281406907
1928+281775937+282713407+284495758+286459364+287645527+288287583+289162189
1918+289720835+288774457+286810373+285591174+285946279+287171417+287978585
1908+287679792+286678706+285843928+285551022+285572779+285676682+285994280
1898+286789896+287915994+288776505+289295016+290320162+292121591+293323828
1888+292677609+290988975+289773734+289391633+289415865+289589032+289865403
1878+290193068+290530461+290984470+292181622+295218734+300343133+305375932
1868+306741234+303679550+299257921+296392065+295584794+295872940+296303366
1858+296490116+296515507+296645673+297044257+297816820+299190620+301444761
1848+304881549+309535319+313890158+314759270+311290708+306883993+304642412
1838+304611048+305196485+305697420+307263807+311154877+316265011+319399661
1828+319312224+317957160+316568377+314473377+311720452+309674938+309077999
1818+309433173+310089596+311161123+313173737+315884890+317884979+318012721
1808+316864542+316147473+317200126+320308259+324393656+327333639+327778091
1798+326838710+327121258+330388156+335834043+339450176+337535749+332163032
1788+328263259+327820820+329595014+331853420+334025653+335783090+336599405
1778+337153136+339481062+345041177+352778268+358512131+358535406+354244386
1768+349142785+345325807+344300695+346701314+350572215+352773729+353147025
1758+353547418+354091252+354661263+357340847+363875189+372083728+376912610
1748+376487918+373779018+371988544+372257237+374232924+376547164+377757729
1738+378883861+383160172+391230219+397210419+395000099+388071098+381631974
1728+377059294+374840032+375157494+377157651+380663789+387424674+398603058
1718+410688846+415582982+410605232+401989132+395320325+392475663+393791479
1708+398786157+405362681+410736694+415260264+422147424+431549158+437890879
1698+437768631+433453619+426045593+417596074+412629996+412904285+416786311
1688+423143561+433340791+446627554+454080152+449193320+439852779+434268706
1678+434522654+439185127+444534909+447892827+450974988+455422691+457843821
1668+454725996+450099734+449727462+453719552+457385751+457464417+456589504
1658+459394987+468739282+485304273+503463568+508813931+502996795+501430818
1648+506825070+511019506+506896876+499385202+495865959+498330125+506556446
1638+519892183+534656633+542151311+539196516+534569060+535472368+542464711
1628+552717604+563798792+575606741+587664544+597358074+604410483+612925904
1618+625778214+639400526+647097073+649811366+653264740+659441963+666508638
1608+671983091+675257019+677559519+680031842+682648391+685054027+687506964
1598+690389987+693440784+696042180+698139569+700425892+703323795+706320601
1588+708839748+711081568+713360588+715475450+717534411+720873661+727368140
1578+737263574+746551387+749380282+748062315+750380856+759073130+770269807
1568+778447017+783649672+789537282+798531933+812825003+835510428+864022100
1558+880121445+876268837+868844225+865783325+865697117+865927210+865085538
1548+864287891+866434425+872846246+882066144+891633536+896517296+888940062
1538+873161796+861654688+857091461+854187756+848349359+842282439+840954780
1528+844374845+848857803+852553830+856885326+861238391+861705880+857888766
1518+853373523+849193625+844600365+840752331+840211192+845176383+856546841
1508+870713022+874934284+861679465+845115088+836425271+835540120+838908105
1498+841907710+840247505+834513608+830514249+832539491+839385902+844752100
1488+843002819+836069313+829658106+826481649+825547762+824974611+824814891
1478+826793445+831865866+838923258+844409861+843344785+835490838+827560376
1468+824911474+827194043+829923352+829470264+828297820+831447863+840231806
1458+849598592+850265459+841867712+833300142+828419727+826302543+825440599
1448+824307471+821684779+818113184+815407151+814655509+816060981+819756120
1438+824861442+827930668+826303772+822857428+821191079+820640180+818649886
1428+815524620+814130138+815504348+818200484+821484855+826077911+830481008
1418+830156311+824223584+817124146+812162778+809549096+808335561+808063764
1408+808948983+810622499+811373936+810250159+809235047+810823583+814640424
1398+818153523+819755097+819252864+816764706+813598078+811935415+812161685
1388+812052475+809501384+805841738+804345690+806300832+810525506+815506054
1378+820794167+826361858+831447249+834766294+835925633+835857991+835673698
1368+836180298+838334204+842720510+848065139+851249856+850460946+847554306
1358+845376989+844544326+843890633+842836546+842200804+842718803+843878278
1348+844594973+844507673+844378258+845420400+848152917+851737822+854487539
1338+855236383+854244205+852717031+851769015+851776660+852551168+854161751
1328+856985185+860541832+863343356+864791966+866275182+869383452+873893575
1318+878202956+881101473+882566533+883425815+884847737+887646326+891675446
1308+896080590+900026437+903030615+905190049+907144577+909230294+911063803
1298+912469480+913935290+915562391+916618184+916583715+915834326+914767748
1288+913094778+910600819+907964953+906080729+904958181+904074804+903503428
1278+903746080+904486596+904529871+903377290+902111608+902108263+903336268
1268+904750681+906030015+907658140+909449944+910460961+910422942+910095651
1258+910323082+911592997+914098765+917506749+920912412+923406509+924658472
1248+925051357+925360491+926117798+927133934+927756980+927668383+927193385
1238+926651087+925707917+923792636+921155952+918951537+917929872+917562242
1228+917027451+916699819+917584971+919504415+921146669+921606582+920803611
1218+919115216+917530093+917187513+918003862+918803625+919104090+919586596
1208+920718768+921991822+922937996+924091942+926461060+930207529+934208663
1198+937009095+938213892+938777897+939836898+941714091+944062665+946310628
1188+947827836+948484737+949180818+950912830+953504328+956086271+958228095
1178+959964611+961495470+963116906+964622579+965092048+964168467+962950633
1168+962742041+963653335+965158325+967124525+969639439+972297420+974603196
1158+977075519+980551487+984247787+986486194+987514821+988946435+990714895
1148+991323471+990745406+990713052+992195722+994346625+995753530+995829909
1138+995383306+995893183+997928254+1000385150+1001709397+1001581962+1000896802
1128+1000862059+1002385683+1005426788+1008858730+1011758885+1014546485
1120+1017908533+1021108880+1022748745+1022897271+1023306333+1024743749
1111+1025037526+1022571210+1019948654+1020561872+1023811773+1026671589
1103+1027854271+1027929422+1027431558+1027197711+1028912863+1033264426
1094+1038220948+1040222914+1037994814+1034689010+1034503761+1037851475
1085+1041724764+1043907201+1044512296+1043806523+1041804693+1039523352
1077+1038462099+1039787096+1044325887+1051888378+1059615299+1062849161
1068+1059786964+1053327296+1047371634+1043785773+1043121636+1044966885
1060+1047027484+1047408151+1048551449+1054832832+1065604475+1073741823
1051+1073043626+1066102612+1060686723+1060339092+1062009195+1060973469
1043+1055943162+1049626968+1046232431+1048187437+1054095933+1059906482
1034+1062838171+1063789805+1065228040+1067827524+1069684582+1068856220
1025+1065661265+1061832274+1058853897+1057337030+1056539383+1054742938
1017+1051389354+1047989834+1046544295+1048188392+1052729436+1057695650
1008+1059598986+1058001030+1055643584+1054486771+1054418855+1054754610
1000+1054475645+1052529854+1049579189+1047857211+1048795944+1051857458
991+1055400795+1057502143+1056763265+1053587831+1049653862+1046362869
983+1044246232+1043098087+1042304127+1041282939+1039780270+1037813115
974+1035555254+1033551718+1032712708+1033641066+1035827940+1037143654
965+1035266597+1030891076+1027391218+1026324231+1025808074+1023324967
957+1018453903+1013004568+1009146568+1007392851+1006121777+1003877227
948+1001777107+1001591995+1002297632+1001013111+996858400+991768300+987760954
938+985346513+984193591+983601124+982655155+981040409+979364368+978360381
928+978457237+979906052+982241452+983984043+984133320+983311306+982321449
918+980868607+978650745+976168252+973863226+971801536+970527321+971153166
908+973842340+976730413+977275442+975134915+972707506+972265271+973522421
898+974093183+971921258+967309022+962574676+959612475+958323313+957968788
888+959043830+962003504+964980107+965273815+962721564+959375898+956906101
878+956198621+957463621+959191469+959513435+959317948+960781438+963149260
868+963605350+961863510+960237296+959695339+959120755+957988924+957317074
858+957876369+958938714+959032021+957477613+955101533+953521461+953537706
848+954479442+955387460+956166745+956828288+956445369+954545378+952763744
838+952918004+954487292+955662875+955610113+954498486+952392087+949269142
828+946046543+944590630+946190837+950725192+956966645+962838487+966159854
818+965968872+963661662+961940708+962247180+963989840+966064977+968164892
808+970121877+971056446+970349581+968521055+966370562+964652065+964403611
798+965768471+966891155+966322100+965363641+965397632+965322209+964045196
788+963072403+964483267+968088922+972017295+974694046+975248016+973424609
778+969835814+965938088+963547332+963854692+966380732+968677294+968281611
768+965906963+964783186+966382166+968946771+970270335+970027137+969165465
758+968392118+967388132+965353743+962866404+962194009+964500809+968048446
748+970115188+969674728+967701156+965608887+964418218+965049114+968032269
738+972444513+976280671+978734564+980706770+982607376+983547269+982399807
728+978999127+974659849+971396091+970207061+970733934+972257558+974258978
718+976681678+980090618+983955444+985173756+981219173+973669173+966126681
708+960991532+959100210+959786735+961012691+961007367+959428251+956693413
698+953650875+951437177+951261484+954211535+959196929+962922170+963814693
688+963559618+963354371+961692049+957656514+953482623+952134759+953942604
678+956965621+959495415+960700622+959761070+955737616+948577907+939337533
668+931543789+930019892+932667224+933387331+930360765+925753785+922083696
658+919998183+918969420+919006074+920966881+924894776+928612031+929212279
648+925972889+920946131+917484088+918477290+924213848+930979375+933771889
638+931357107+926206190+921114111+917045130+912143418+905026301+897496232
628+892018298+890301099+892160409+894917430+896533814+896443647+895565185
618+895770364+896702067+895281374+888598779+876849018+864578596+858126231
608+859441467+864222775+868586419+872363877+874991073+875080421+873437212
##END=
