##TITLE=<SNM>
##JCAMP-DX=4.24
##DATA TYPE=INFRARED SPECTRUM
##DATE=2/5/2025
##SAMPLING PROCEDURE=Instrument type and / or accessory
##ORIGIN=Admin
##XUNITS=1/CM
##YUNITS=ABSORBANCE
##RESOLUTION=4
##FIRSTX=4497.3318
##LASTX=599.83466
##DELTAX=-1.4281778
##MAXY=1.7472895
##MINY=0.28030372
##XFACTOR=1
##YFACTOR=1.6272902e-09
##NPOINTS=2730
##FIRSTY=0.29419357
##XYDATA=(X++(Y..Y))
4497+180787402+180342333+180427695+180743924+180939042+180897872+180809195
4487+181146724+182209563+183675294+184948434+185761616+186130406+185978216
4477+185222321+184225797+183796222+184403059+185524522+186103594+185589793
4467+184332220+183174660+182886250+183620865+184648687+184960906+184347421
4457+183618044+183651101+184376815+184811628+184173877+182834623+181959594
4447+182256869+183293116+184022291+183733258+182450796+180879796+180154797
4437+181057058+183077577+184626198+184542850+183136018+181659390+181196905
4427+181945401+183087339+183538012+183090654+182444020+182049132+181549469
4417+180561900+179519005+179311433+180202487+181418230+181901667+181310543
4407+180181554+179307001+179055293+179193234+179301983+179286288+179388865
4397+179811371+180472711+181080757+181363929+181259484+180835916+180056780
4387+178864552+177604341+177001533+177383822+178184458+178604089+178532664
4377+178393733+178291357+177850611+176899799+175891737+175447144+175656090
4367+176133996+176680378+177323898+177732155+177394590+176558827+176194047
4357+176786105+177706552+177946998+177217951+176214816+175859687+176361218
4347+177094752+177324154+176868372+176138226+175727496+175887946+176224046
4337+175984296+174844831+173352178+172385561+172251832+172535151+172755268
4327+172875280+173132849+173592954+173990626+173988116+173519771+172861984
4317+172458799+172668038+173478509+174522540+175474835+176198663+176580090
4307+176645544+176651496+176670873+176487164+176209871+176341989+176914981
4297+177207622+176607158+175371287+174398114+174344124+175063299+175991805
4287+176758469+177080540+176604118+175512013+174764652+175026397+175805807
4277+176154361+175757055+175024620+174572812+174812763+175635413+176368947
4267+176409201+175961660+175752513+176022536+176334754+176390503+176416106
4257+176658328+177121216+177838377+178825762+179806628+180429508+180597485
4247+180365445+179833147+179255960+178947496+179063974+179564204+180197231
4237+180579116+180566351+180447346+180480055+180457950+180082420+179565889
4227+179425255+179673576+179628743+178795636+177691919+177402722+178351739
4217+179826004+180867398+181333418+181717812+182155665+182160262+181383031
4207+180219702+179468971+179494061+179866240+180022954+180074801+180392642
4197+180695117+180437493+179838091+179549956+179617755+179635263+179619348
4187+179964056+180733980+181496083+181750905+181353820+180611532+180124908
4177+180523075+181994739+183837703+184881130+184726229+184137432+183883012
4167+183804994+183418128+182801108+182340106+182047648+181717281+181435555
4157+181394770+181458686+181407462+181383195+181704260+182469751+183528360
4147+184541385+185085551+185001124+184503493+183800489+182963920+182253719
4137+182079021+182468341+182915260+182957510+182782391+183006409+183819664
4127+184663302+184895286+184417857+183555666+182767630+182459514+182678440
4117+183064190+183313005+183515211+183898121+184356431+184440566+183966964
4107+183430636+183394118+183694634+183787669+183564347+183303610+183174441
4097+183116788+182958609+182639431+182415157+182522404+182696480+182585039
4087+182481802+182956778+183924897+184725313+184949166+184682697+184202099
4077+183911692+184211988+184895433+185063135+184246730+183229932+183096185
4067+183891089+184801408+185235123+185222449+185072384+185083152+185416908
4057+185947375+186264282+186044843+185467766+185062274+185096247+185327810
4047+185473535+185696161+186343381+187287691+187872808+187597108+186614612
4037+185526829+184934936+185184081+186179140+187332909+187962162+187892294
4027+187558648+187477718+187756312+188164606+188505193+188742580+188892627
4017+188975370+189011504+188924311+188544587+187874218+187280054+187246668
4007+187875207+188761242+189480143+190022148+190579134+191103412+191322924
3997+191116891+190707498+190464580+190549282+190797603+190982923+191104712
3987+191304463+191565348+191666093+191506340+191294299+191297889+191607818
3977+192246119+193226233+194321653+195027807+194994751+194433241+193952991
3967+194027822+194715626+195772311+196771784+197258078+197142662+196789567
3957+196500205+196302211+196399660+197359574+199550231+202393071+204332202
3947+204276143+203126440+202618994+202881050+202546928+201142439+199720534
3937+199321397+200347480+202798893+205889320+207916286+207821053+206707429
3927+206607837+207957346+209045807+208488784+207488286+208108676+210257412
3917+211597160+210253529+206852769+203544807+201939120+202369006+204723098
3907+209378574+216449201+224183181+229551368+231051346+228930411+223574348
3897+216593332+211414349+210704293+213933285+217258518+217461768+216707081
3887+218894148+223373260+226106544+226336056+226179380+224641784+220120734
3878+215984499+216523464+221487202+227707177+233150817+236497917+236022959
3868+233164260+231763361+232453087+232013165+228440912+223931528+221844162
3858+224320940+232697013+246183354+256184472+252127171+239336800+228110782
3848+222566872+222747999+226782242+232375344+238398991+244847709+250569650
3838+252376389+248957589+243236381+238230374+234568840+232148030+231392995
3828+232141803+233442304+235903240+241596996+249326105+253256966+251776456
3818+249616384+247814022+243094593+235982137+231001092+231119584+236150517
3808+242812080+247206306+250162747+255174853+260926958+262027561+258597132
3798+255289371+252920610+249943583+247097813+246322541+247913962+251102828
3788+255661129+261380066+267033385+271898667+277375291+284738118+292335769
3778+297728240+301856380+307981396+318350755+332826497+348277207+360151580
3768+367391538+372847815+378571735+385193703+393700813+404085152+413601917
3758+419728380+424352612+431920283+445312783+462809359+476971014+483270142
3748+487375023+495586251+506783955+513447423+513901686+515067707+522244262
3738+536118130+553021842+566087839+570313996+567153975+562088154+559717213
3728+562077385+568715580+576788536+582219796+582014276+576603710+570038296
3718+566499137+567503151+572641899+580304437+586448774+586251092+580070895
3708+572759842+568177366+567772954+570388864+572545750+571972190+570259860
3698+569800726+571497086+575847339+583996006+596611769+610559992+617496047
3688+612532199+602306386+595234917+594024979+597639629+604270864+613313954
3678+624354597+632581428+630822910+623054810+619378148+620271436+617940859
3668+609245005+599622311+593591851+591520345+592149947+594835816+599212222
3658+603036605+603248682+601309953+602830865+610786025+622394917+629462980
3648+626141025+616480128+606624223+599678499+596878569+598116820+601906773
3638+606086705+609165778+611391964+614784464+621616568+631500751+638631374
3628+636768686+629394485+623688843+623038400+628252932+637940640+647416858
3618+651828866+651528808+649774979+648141949+647242947+647846946+649109372
3608+648682068+646461962+645093241+646070260+648226707+649922517+651037039
3598+652326277+654031171+655683834+657002740+659090692+663601303+669129298
3588+670060459+664130360+657663293+656596241+660279129+664734212+667293935
3578+667785924+667254010+666813007+667085227+668569693+672279027+678570646
3568+684803733+686438375+682849548+678128251+675409123+674823805+675894666
3558+678667125+681854947+682570221+679594110+675490657+673922606+675969754
3548+679573305+681361932+679784723+676716382+674601838+673424170+671848207
3538+669559093+667245878+665778628+666006601+667838962+669459245+668887772
3528+666489507+664370495+663604966+663738952+664199075+664970903+666200144
3518+667476709+667914635+667395907+666711913+665791301+663195756+658822061
3508+655460988+655987335+660070495+664423679+665782364+663770892+661311677
3498+661625507+664600739+666879450+665903896+662956501+661177618+661578403
3488+662363418+661982851+661231388+661212268+661123189+660068298+659308483
3478+660295392+662457992+664383974+665110017+664136880+661876044+659609566
3468+658274250+658170446+659050401+659466277+658193449+656829123+657733765
3458+659903471+660136353+657414514+653417942+650107196+648655769+649015164
3448+649593010+648732102+646685540+644956911+644338994+644456717+644818017
3438+645819431+647920861+649709048+648643022+644569238+640268140+637855956
3428+636903917+636303215+636059052+636644077+637747024+638388822+637841305
3418+635928656+632740394+628969012+626311053+626056634+627310196+627977268
3408+627645344+627788706+629245115+631082604+632003582+631800808+631080552
3398+630366376+629679379+628455046+626128425+623120447+620791043+620093057
3388+620721083+621792603+622699077+622885881+621978821+620819833+620879097
3378+621986073+622270235+620930084+619526712+619869698+621810991+623515152
3368+623425926+621864028+620462342+619901272+619152226+617650838+616714842
3358+617553627+619223651+619782670+618630787+616763630+615346487+614592020
3348+613856453+612815261+612344992+613429845+615247225+615732548+614483747
3338+613581046+614620590+616403795+616957833+616451192+616116777+615712109
3328+614076479+611368925+609039850+607923058+607598496+607497951+607773725
3318+608781475+610197593+611213658+611401048+610865471+609999508+609395693
3308+609326502+609375145+609191894+609195520+609980571+611485073+612865735
3298+612891448+611215233+609197132+608235826+608144512+608076420+608152350
3288+609087174+610775732+612265949+612883976+612848996+612950456+613824917
3278+615470290+617229028+617984300+616942303+614806002+613352486+613479440
3268+614423604+614961891+614729302+614133399+613588079+613222420+612854856
3258+612106360+610926494+609909659+609563743+609591324+609557919+609660917
3248+610153346+610615081+610389049+609343022+607898004+606657445+606080845
3238+606256477+606757220+606695135+605306635+602904670+600895762+600403187
3228+601152342+601967575+602071929+601530089+600568490+599196399+597846724
3218+597453375+598070339+598261282+596754216+594050069+591706416+590800492
3208+591399069+592574614+592752480+591142453+589055160+588573573+589767248
3198+590523986+589621725+588386696+588268827+588555589+587875111+586639020
3188+586276109+586822088+586734070+584778237+581273325+577786177+575934697
3178+575886641+576126995+575509517+574856730+575352236+576436356+576639130
3168+575562811+573826160+571998012+570394578+569130101+568165059+567744238
3158+568369590+569752413+570291616+568510865+564938521+561761248+560587352
3148+560990957+561229334+560077158+557844672+555865835+555050932+554933539
3138+554512205+553828687+553744735+554363934+554922294+555096461+555083898
3128+554577184+553091252+551168347+549945809+549652088+549579747+549387706
3118+549423711+549631100+549103948+547365648+545341100+544273682+544181196
3108+544029959+543191247+542009732+541019051+540284326+539663552+539264122
3098+539157754+538819823+537590948+535717564+534118159+533284319+533133191
3088+533462588+533959705+534288113+534497004+534810431+535026464+534683807
3078+533710414+532613034+532140238+532564136+533077882+532467438+530714084
3068+529144384+528605328+528411382+527560473+526102013+524751533+523889196
3058+523502109+523532035+523760484+523783304+523357575+522505091+521375405
3048+520158435+518991681+518000743+517383595+517197011+517209831+517192616
3038+517050609+516615832+515806350+514883833+514073985+513203809+512035151
3028+510624747+509283571+508369112+507887745+507347186+506458734+505716904
3018+505644600+505815140+505340696+504088635+502734932+501782600+501121278
3008+500550392+500217698+500206893+499990970+498829747+496765201+494799112
2998+493860002+493852017+493992303+493892638+493811250+493884250+493667997
2988+492684971+491237865+490292822+490324799+490589401+489962033+488252670
2978+486209955+484555534+483523059+483051472+482988691+483085499+482959352
2968+482330556+481400897+480695036+480377763+480136640+479778709+479371404
2958+478798723+477764893+476308228+474920167+474049369+473620893+473157693
2948+472364144+471405146+470578045+469955110+469486050+469220166+469135299
2938+468896300+468244428+467536882+467309824+467385791+467096502+466306616
2928+465462813+464721569+463767515+462492599+461317018+460722140+460714448
2918+460872279+460785763+460249161+459217931+457971915+457075990+456779338
2908+456710551+456430638+455918980+455291503+454484731+453476467+452489961
2898+451759156+451230538+450642913+449902438+449234743+448833299+448509396
2888+447893786+446885743+445755618+444856103+444373820+444289832+444334738
2878+444017648+443047515+441780034+440955351+440936707+441347675+441470929
2868+440946084+440011297+439066070+438220070+437373153+436487668+435627455
2858+434872695+434254082+433737918+433356326+433241753+433314607+433142491
2848+432368978+431088897+429684463+428549723+427957372+427907192+428082860
2838+428056085+427523951+426459940+425201543+424275803+423905272+423718578
2828+423171464+422229937+421370897+420888614+420490832+419723728+418577377
2818+417491974+416872849+416717728+416664764+416332290+415672031+415019391
2808+414679445+414468100+413905418+412913418+411931563+411270645+410809973
2798+410355674+409861157+409258807+408404308+407282278+406147757+405363841
2788+405017302+404771747+404270491+403568292+402941255+402409084+401719999
2778+400730196+399573772+398479469+397582592+396939108+396573816+396441075
2768+396423201+396370200+396065527+395298680+394177601+393172708+392608085
2758+392311287+391952661+391421699+390671005+389593587+388325850+387298394
2748+386706959+386247312+385613498+384939467+384485827+384199834+383852453
2738+383354420+382707090+381901308+381064537+380430687+380011551+379540037
2728+378837362+378054655+377487651+377222060+376988959+376461330+375696900
2718+375071914+374755703+374500441+373967538+373046963+371910208+370921101
2708+370377283+370232748+370167000+369923313+369505130+369085517+368773812
2698+368481006+368052091+367457725+366755380+365993112+365241868+364548570
2688+363840402+363099597+362572298+362530469+362865543+363137324+362987735
2678+362366228+361415874+360319190+359287778+358538292+358110915+357776134
2668+357309674+356819553+356588722+356641723+356680036+356434261+355930074
2658+355424313+355122643+354903241+354402570+353523678+352679435+352273302
2648+352140305+351831420+351282474+350810996+350549984+350282415+349824160
2638+349242542+348691654+348281675+348074799+348000371+347840269+347461644
2628+346974087+346553559+346198485+345745212+345096051+344382901+343870436
2618+343686087+343686416+343576861+343141353+342448458+341830101+341516967
2608+341389281+341276979+341268408+341418730+341435982+341021901+340306919
2598+339639517+339146832+338751065+338437235+338264936+338212741+338182486
2588+338103003+337946857+337730018+337524900+337354213+337098036+336660769
2578+336160721+335779312+335488814+335082132+334439527+333708393+333209297
2568+333074286+332993741+332543361+331784902+331238849+331218044+331515318
2558+331772082+331820211+331610515+331122957+330460427+329852620+329488902
2548+329401690+329474654+329507949+329335723+328962665+328564114+328307241
2538+328200470+328142744+328056631+327929202+327792103+327721264+327796718
2528+328012531+328249295+328343869+328205818+327884845+327476661+326966870
2518+326307197+325637634+325223077+325153483+325297395+325516432+325737153
2508+325868318+325846671+325730487+325604559+325434091+325120188+324674863
2498+324249866+323991455+323905488+323850583+323666636+323330829+322964804
2488+322697748+322576143+322555777+322533324+322459922+322404613+322391940
2478+322305314+322124591+322046390+322182207+322370585+322401756+322217480
2468+321887350+321564436+321377743+321275806+321122627+320938241+320842752
2458+320825536+320791289+320773195+320887072+321066147+321039921+320693236
2448+320289996+320136817+320147000+319994004+319619774+319315797+319318434
2438+319543111+319727497+319680540+319358396+318829741+318263763+317880596
2428+317820159+318069927+318522394+319023431+319388101+319526775+319558861
2418+319641934+319719403+319636440+319451101+319375977+319435681+319443373
2408+319320742+319211517+319253053+319417074+319589409+319688232+319707682
2398+319692078+319653728+319546811+319340228+319059327+318773041+318593709
2388+318589168+318617554+318375076+317641744+316345290+314446742+311980898
2378+309169980+306297343+303476755+300664628+297879496+295330946+293302039
2368+291892752+290912436+290048982+289155456+288487322+288693612+290404696
2358+293736888+298289695+303657479+309787164+316498945+322770602+327146458
2348+328816519+328161058+326520739+325102460+323974826+322649546+321004355
2338+319202909+317417689+315728105+314005703+312088329+310134180+308497926
2328+307305900+306475594+305987890+305824199+305799017+305768378+305885276
2318+306337140+306937567+307310844+307453914+307773605+308498549+309384365
2308+310107404+310633641+311068088+311416275+311636117+311739995+311752119
2298+311679595+311554327+311452134+311476821+311719153+312151109+312569036
2288+312742581+312647164+312476184+312394796+312351172+312170192+311779736
2278+311304852+310965016+310879233+310950218+310964870+310801655+310495883
2268+310169746+309985652+310071619+310380724+310696715+310836854+310788578
2258+310661369+310576977+310584120+310645435+310708509+310742940+310721585
2248+310674884+310734002+310969778+311218923+311232475+310994538+310766931
2238+310785355+310995491+311161636+311185298+311190023+311300347+311477261
2228+311588830+311541946+311366204+311231413+311289395+311459167+311518028
2218+311424846+311342652+311340711+311329063+311311482+311452574+311820467
2208+312239676+312484535+312517171+312462632+312413477+312351392+312246086
2198+312129792+312044155+311997381+312001923+312067304+312134150+312114298
2188+312029174+312024083+312205832+312494974+312655992+312511164+312170046
2178+311973682+312125799+312472924+312738918+312836825+312844444+312828803
2168+312808438+312799904+312864992+313118752+313593343+314088666+314327774
2158+314268363+314094819+313950358+313865820+313895818+314106357+314422788
2148+314665522+314775920+314862435+314995139+315114584+315187107+315284062
2138+315438340+315563535+315589541+315568553+315578736+315628770+315736237
2128+315966115+316280495+316502242+316565901+316629964+316816145+317042983
2118+317210007+317330917+317421096+317448017+317425601+317418641+317456405
2108+317532042+317665882+317892976+318186258+318448808+318620558+318763188
2098+318994165+319344111+319712077+319970818+320093266+320154875+320258569
2088+320496982+320885057+321260752+321391478+321249178+321032595+320899708
2078+320837257+320777517+320712832+320719461+320895350+321230571+321615496
2068+322007820+322408972+322671486+322602771+322284399+322024779+321991008
2058+322089611+322178837+322228432+322286048+322398460+322577058+322793970
2048+323022713+323297351+323687185+324164779+324543185+324639627+324493993
2038+324317812+324227230+324151593+324030427+323962958+324089838+324421213
2028+324851301+325263734+325552400+325620199+325506176+325495627+325884984
2018+326543485+326939838+326763987+326266540+325846415+325637891+325601299
2008+325684848+325793890+325844510+325903005+326111200+326442904+326634689
1998+326516747+326465907+327194075+328764580+330144107+330254357+329230051
1988+328068242+327462632+327450618+327732802+327961984+327952351+327808109
1978+327782836+327995242+328312772+328514776+328633378+329076689+330141872
1968+331385178+331885336+331326537+330333071+329580106+329201994+329167673
1958+329560803+330247215+330769386+330811435+330502660+330211649+330241244
1948+330779825+332050456+334147894+336357524+337155542+335859052+333695316
1938+332243523+331806439+331866692+332154883+332673281+333231824+333537412
1928+333705279+334386710+335993074+337906602+339261112+340338456+341764610
1918+342681449+341663919+339275983+337590318+337700239+339008158+340208353
1908+340470940+339958658+339383450+339208843+339430297+339903680+340621225
1898+341681684+342952131+343955340+344643730+345828614+347806938+349250014
1888+348870216+347402966+346348478+346089443+346241963+346590004+347060968
1878+347513253+347852210+348214975+349298473+352297843+357610867+363159154
1868+365162056+362408460+357780712+354382498+352967552+352756171+352907226
1858+352989859+352871550+352643613+352531641+352861807+353993727+356154605
1848+359595821+364458172+369267779+370474237+366776185+361698497+358800001
1838+358373392+358743300+359005411+360336076+364260050+369742041+373201534
1828+373048025+371425654+369835442+367558050+364595015+362462597+361935481
1818+362289162+362691596+363376653+365153924+367979494+370390029+370873997
1808+369676220+368514301+369012591+371728019+375738876+378888934+379479637
1798+378233876+377821883+380456730+385725507+389599631+387877119+382248872
1788+377850636+377014269+378557669+380623534+382698849+384646258+385805723
1778+386391517+388275340+393311822+400911249+406800691+406719340+401928267
1768+396223138+391821861+390239269+392219826+395885866+397977004+398171280
1758+398307646+398491776+398529283+400545700+406528654+414552528+419458540
1748+418852344+415407686+412553473+411826551+413088684+414906503+415641666
1738+416274784+420250954+428404016+434608057+432196715+424697319+417799248
1728+413021251+410720856+410987399+412877779+416083658+422452196+433597376
1718+446471588+452686288+448493023+439771895+432631089+429482752+430941798
1708+436565136+443982961+449828669+454171413+460720089+470438492+478014550
1698+479359463+476112084+469070833+460274361+454883978+455306923+459953132
1688+467304916+478548333+492933566+501033407+495880338+485934218+479964780
1678+480106897+484932218+490842428+495104078+499124970+504292142+506957280
1668+503422040+498004002+496958415+500633355+504232474+504180499+503023562
1658+505672144+515302640+532702151+551746999+556687259+549163065+545859645
1648+549875630+552818080+547206499+537926389+532534650+533077150+539346792
1638+550608559+562566408+565708884+557597065+548459878+545609658+548737959
1628+553996847+558672834+563154217+567270269+568789532+568465373+570724378
1618+577254959+583195607+582686622+578433324+576282372+577789987+581186040
1608+584257531+586296584+588013529+590121443+592518426+594801313+597059512
1598+599677583+602585822+605211841+607216354+608920772+610775036+612687685
1588+614251268+615518493+617069256+619204311+621749382+625218215+631341711
1578+640870820+649883398+651854066+648855832+649001978+654509535+660309750
1568+661251314+659391702+659164315+662599303+671705650+689347749+712011057
1558+721464419+712141380+700387330+693793309+691912893+693106238+695804195
1548+699732565+706736822+718558267+734507926+752055818+766103450+767710620
1538+758160047+750504102+750465130+754454083+756371055+756100885+758511531
1528+765466486+774611072+783874993+794030150+804477454+810761234+811303111
1518+809904941+808438569+806189234+804300979+805606993+811868137+823052765
1508+836123231+841626026+832994161+820410337+813773900+814274681+819547524
1498+825560183+827753037+825431471+823408571+826206377+833562996+840212545
1488+840659555+835564798+829564446+825852036+824871793+825743031+828253012
1478+833123898+840621609+849717919+857380970+858550873+852029962+844267356
1468+841424425+844086633+848210597+849435223+849093775+852434630+861921176
1458+873110493+875389717+866460138+855813870+848850784+845596445+844963437
1448+845306936+844802274+843138623+841394097+840417077+840907748+843983634
1438+849540859+853956310+853298175+849817181+848101738+848744562+849188422
1428+848173017+847294600+847772964+848932685+850638311+854290286+859397057
1418+861677892+858820603+853849942+849844433+847342949+845671899+844294094
1408+843464760+843836316+845201740+846625623+848220633+851026936+855025852
1398+858869245+861286630+861346188+858606035+854720740+852650516+853480657
1388+855019332+853887083+850218846+848074707+850238698+855601354+861440395
1378+866596688+871554749+876051295+878322314+877732381+876413035+876529292
1368+877978962+879800627+881948282+884255270+885326277+884282741+882199844
1358+880427481+879175530+878151920+877369616+876985459+876768547+876168212
1348+875013180+873948472+874014989+875734681+878480108+880726513+881184658
1338+879867290+877866586+876197661+875077059+874125899+873157231+872644656
1328+873130272+874381857+875592930+876262420+876568704+877040841+878014564
1318+879340650+880649081+881726901+882494335+882985225+883550398+884769749
1308+886928906+889582030+891723092+892672568+892772782+892842083+893085294
1298+893029912+892366136+891294616+890162220+889091872+887820362+885931008
1288+883439195+880811417+878188182+875157788+871585443+868083645+865365396
1278+863490473+862082560+861040489+860560440+860565056+860693840+860884014
1268+861354539+861991210+862438806+862816662+863529739+864464636+865317779
1258+866407906+868056613+869627595+870366824+870725707+871725875+873494576
1248+875350745+876874476+878210964+879688325+881606981+884136082+887136441
1238+890067207+892227975+893438829+894495258+896458454+899253915+901437320
1228+901764190+900839036+900701753+902660188+906013129+909174066+911615187
1218+914124728+917324711+920656848+923113352+924551520+925807939+927677660
1208+930254598+933143461+935904052+938399015+940826217+943135696+944751510
1198+945596009+946730676+949120957+952417198+955462830+957463753+958535639
1188+959462771+960702122+961709762+961948138+962134136+963418246+965860319
1178+968821925+972250760+976267697+979690745+980592897+979111361+977991126
1168+979242563+981677237+982813076+982310831+982003081+983171593+985350675
1158+987606530+989674043+991833200+994375487+997073225+999165132+1000100395
1148+1000239363+1000451733+1001324802+1003171740+1005878121+1008253824
1140+1008953641+1008695266+1009564160+1011305829+1010888927+1007331160
1131+1004353731+1005745747+1010164349+1012838864+1011833714+1010024942
1123+1011209423+1016411867+1023083760+1026944221+1025965004+1022857618
1114+1022302115+1026138988+1032006160+1035874679+1035739814+1032982886
1105+1030480011+1030242001+1032663196+1036524097+1039298680+1039211285
1097+1037122894+1035039264+1033752810+1033369680+1034691004+1037998234
1088+1041499300+1043034386+1042814324+1042709054+1043426454+1044463983
1080+1045800544+1047672390+1049763345+1051968800+1054782648+1057783373
1071+1058944340+1056740423+1052732790+1050464994+1051440329+1053578021
1063+1054007376+1052662464+1051928142+1053625784+1057601331+1061803827
1054+1063223241+1060769081+1056913967+1054894364+1055538727+1057492033
1045+1059266594+1060490194+1061626473+1063253936+1065831752+1069242420
1037+1072087622+1071769030+1066971914+1060626671+1058196612+1062202121
1028+1069393181+1073741823+1072362700+1067799490+1064389848+1063451068
1020+1062682097+1060130652+1057287868+1056998359+1059469661+1062465991
1011+1063847458+1062796230+1059821071+1056404616+1053920568+1052789490
1003+1052616898+1053030723+1054111840+1055388185+1055547444+1054014336
994+1051803460+1050375255+1050489388+1051707714+1052442915+1051395349
985+1048836066+1045913432+1043368068+1041513511+1040662639+1040465946
977+1039588921+1037401561+1034865427+1032695868+1030677510+1028426490
968+1025527005+1022391414+1020310569+1019611777+1018767351+1016267479
960+1012363870+1008035740+1003567544+998867418+994148832+989935935+986760347
950+984532549+982226879+979037592+975675420+973460662+972540269+971884406
940+970599563+968754163+967303029+967172413+967976181+968114123+966522556
930+963879321+961871659+961564055+962470163+963301256+963725996+964272488
920+964409844+962881204+959954321+957093295+954921612+953204630+951920227
910+951332712+951490799+952117726+952841279+953493773+954194396+954932600
900+955339246+955036551+953499194+950149695+945731460+942521661+942040441
890+943539924+945267601+946169020+946149021+945497992+944542730+943768777
880+943548715+943628711+943460881+943035921+942484520+941517683+940478323
870+940816694+943121044+945601503+945843616+943380811+939770593+936737928
860+934928937+934158427+934313217+935650365+937784029+939288127+939568772
850+940038638+941808438+943547176+943523002+942197356+940671793+938776212
840+936552663+935281813+935357779+935393309+934607415+933922468+933964078
830+934164947+934378196+935403638+937321415+938840971+938954372+938263125
820+938142985+939226812+941112283+943087347+944576061+944988348+943924447
810+942306288+942633670+946588120+952262408+955023951+952173255+946151951
800+942096555+942940761+947185818+950813837+951551894+950828562+951234988
790+953352974+955462903+955424736+952699162+949144912+947522064+948545455
780+949821141+948690796+945627729+943743430+945513669+950454295+955392870
770+957012787+955048931+952173108+950458837+949629575+948830715+948576296
760+949247177+949124327+946658372+943665559+943355758+946003827+948726618
750+949110847+947493641+945506490+944354901+944540093+946338242+950256576
740+956121331+961487503+962492945+958150457+952104540+948247448+946320368
730+943927157+941683756+942682752+947149043+951415198+952630740+951518123
720+949791985+947733555+945114642+942429212+940357596+938987410+938057641
710+937586090+937982480+939517493+941431168+941774960+939090335+934441929
700+930785486+929867804+930242803+929020522+925860244+923697498+924371969
690+925320052+922752858+916740931+909828758+903411724+898175802+895218298
680+895149877+896835431+898612922+900114604+901063566+899216994+891852024
670+879879524+870667834+871695987+878550068+883270559+883978434+881827043
660+878497690+876755142+879120149+884540750+888219169+886082795+878790568
650+870752152+865821563+864462292+864227505+861879640+856183888+849126448
640+844284791+843670830+846406367+850607544+854627484+856489953+855301736
630+853221403+852433531+851411532+847553415+841769755+836771989+832569054
620+827374376+822342545+821793709+827380529+835446050+840900715+840805922
610+835106580+826841216+820810536+818986454+818901403+819202120+822411846
600+827610554
##END=
