##TITLE=<SNM>
##JCAMP-DX=4.24
##DATA TYPE=INFRARED SPECTRUM
##DATE=2/5/2025
##SAMPLING PROCEDURE=Instrument type and / or accessory
##ORIGIN=Admin
##XUNITS=1/CM
##YUNITS=ABSORBANCE
##RESOLUTION=4
##FIRSTX=4497.3318
##LASTX=599.83466
##DELTAX=-1.4281778
##MAXY=1.7685094
##MINY=0.19318213
##XFACTOR=1
##YFACTOR=1.6470527e-09
##NPOINTS=2730
##FIRSTY=0.21018007
##XYDATA=(X++(Y..Y))
4497+127609804+127935438+129093856+130268513+130642894+130092753+129027395
4487+127960562+127408893+127802499+129080936+130434347+130854217+130169084
4477+129266648+129089576+129659756+130389944+131045574+131775373+132335682
4467+132038519+130666498+128957189+127908378+127828275+128205569+128416223
4457+128415372+128531683+128723718+128578945+128033365+127453206+127058822
4447+126893169+127096865+127546374+127613432+126945760+126135884+126156078
4437+127417099+129407150+130905026+130841461+129403794+127917588+127326374
4427+127312695+127155030+126769268+126424869+126002312+125237555+124435551
4417+124207436+124537702+124822824+124907306+125281425+126023555+126380909
4407+125865437+125062809+124752636+124812275+124607556+123986956+123254000
4397+122555160+121888583+121458454+121554209+122209025+123217657+124312699
4387+125157252+125346519+124605339+123016177+121089646+119588721+119047610
4377+119334188+119827774+120051882+119972077+119815172+119892995+120412846
4367+121117810+121402117+121093925+120688042+120507597+120223090+119538654
4357+118762525+118343912+118329636+118513646+118740386+118905588+118937171
4347+118908347+118968239+119090150+119096392+118990739+119001967+119208116
4337+119397509+119359719+119030285+118423744+117739290+117360928+117477655
4327+117900601+118346454+118582387+118377966+117782038+117289583+117310237
4317+117756000+118400620+119117771+119616224+119594357+119246720+119060421
4307+119200281+119523373+119943497+120439272+120953305+121408143+121613450
4297+121288838+120415225+119358579+118542715+118224734+118494258+119242006
4287+120199857+121071163+121544293+121401267+120826156+120366967+120460045
4277+121099399+121817635+121947878+121256322+120319189+119901065+120121617
4267+120587239+120972132+121071235+120698202+119983521+119520333+119796037
4257+120568538+121178471+121414892+121628957+122051848+122523414+122871024
4247+123088934+123165220+123102016+123060662+123247956+123678402+124116168
4237+124273968+124098707+123787584+123476669+123102595+122705796+122634025
4227+123202060+124245723+125183326+125541440+125380527+125191414+125387050
4217+125930876+126491158+126796599+126735567+126289704+125583899+124927129
4207+124633295+124819766+125351703+125852943+125932043+125630112+125468204
4197+125811942+126336388+126405707+125945930+125622639+125975478+126643856
4187+126903184+126734861+126679103+126824745+126742280+126329032+126031562
4177+126292717+127201179+128540866+129981365+131328461+132544129+133430054
4167+133627473+133159653+132521085+131972302+131274666+130386904+129841351
4157+130017463+130505603+130670804+130528700+130552395+130819286+130864024
4147+130349901+129554718+129135328+129476632+130252029+130730298+130601702
4137+130269445+130220943+130411358+130409015+129966446+129332529+128967720
4127+129015218+129227365+129342517+129291156+129128705+128987099+128961342
4117+129012196+129239045+130002182+131328741+132499734+132766363+132273935
4107+131821794+131874530+132201141+132416645+132499209+132663461+132971092
4097+133227524+133205621+132916085+132617049+132472249+132350329+132200544
4087+132327820+132914366+133589122+133872054+133764754+133613278+133667624
4077+133949751+134311457+134494245+134298275+133758828+133121030+132735920
4067+132962868+133878667+134947870+135294567+134595275+133505164+132934324
4057+133077866+133348865+133170871+132629154+132199712+132006184+131735113
4047+131280746+130956278+130915195+130886977+130689876+130536852+130617154
4037+130772802+130823104+130910681+131301410+132029680+132861919+133478574
4027+133652569+133376929+132855025+132339762+132011504+131982182+132296200
4017+132902161+133629219+134179115+134261371+133834671+133135252+132470249
4007+132091273+132176416+132745356+133590117+134337322+134608421+134259490
3997+133582155+133151239+133289009+133724929+133955523+133861224+133742154
3987+133867539+134291318+134937882+135510749+135582511+135245812+135324287
3977+136371705+137813570+138589536+138346131+137611782+137089308+137065288
3967+137361926+137732842+138182631+138737403+139151456+139205404+139083258
3957+139105053+139284241+139470377+139817915+140700059+141946334+142631304
3947+142295238+141855934+142281468+143016225+142841696+141767245+140848777
3937+140774789+141686020+143557001+145799296+147018709+146342198+144775953
3927+144110244+144889214+146093646+146671778+146889796+147675226+149086186
3917+149915712+148903008+146265144+143498230+141898094+141881674+143526014
3907+147102577+152516709+158342795+162376764+163622089+162400033+158980331
3897+154247685+150593426+150250131+152996752+155744322+155858895+155076605
3887+156376755+159025476+160129864+159949500+160622772+160953989+158569951
3878+155303598+154737191+157466378+161759186+166137834+169161506+169337872
3868+167835264+167228344+167448226+166163782+162707927+159300782+158443780
3858+161552223+169164582+179549174+185354234+180241065+170098811+162189072
3848+158685918+159471176+163427213+168741754+173853928+178099944+180826616
3838+180949332+178618492+175487702+172559007+169830526+167589796+166519498
3828+166657323+167789901+170946965+177283709+184438679+187006193+184577408
3818+181735440+179440391+175521448+170624596+167798912+168744341+172964483
3808+177850604+180819215+183067708+187076453+191217251+191594518+189085829
3798+187127968+185729113+183619458+181731007+181711465+183664115+186841571
3788+190918315+195640538+200229858+204441369+209394494+215876409+222681290
3778+228348707+233783865+241243507+252229953+266737284+282451309+295451382
3768+304181283+310275709+315157270+319718635+325439810+332904845+340572536
3758+346957050+353416148+363115290+378228402+397528434+415264645+427121066
3748+436650556+448872519+463018561+472924774+477475608+482645268+492194480
3738+505498086+519187065+529602888+535417538+537983170+539756994+543041297
3728+549254710+557571952+564256650+565642785+561443235+554159975+547128662
3718+542790075+541949267+544337539+548523337+551134530+549098628+543511206
3708+537742950+534421083+535101430+539318966+543988752+546396710+547523263
3698+549807239+553728751+558016240+562088478+566943767+572669756+576200756
3688+575223626+572676378+572061135+573688865+576312616+579541296+584560375
3678+591584668+596226444+593429783+587159698+583990367+582912922+578527543
3668+569903349+561210939+555450753+552980768+553068525+555333900+559579265
3658+563925451+565299390+564101437+564804076+570108647+577692236+581369186
3648+577721223+570575047+564357472+560321313+558308536+557759264+557979436
3638+558337921+558445727+558840509+561413379+567957557+577157874+582896999
3628+580656920+575382892+573508790+576523596+582999630+590496149+596523806
3618+600605852+604523311+608765057+611453079+611749537+611487169+611852964
3608+611555276+609848184+608593234+610019212+614344916+619658860+623858193
3598+626467396+627747968+627460920+626485925+627648232+632463496+638582783
3588+641861187+641378068+639774331+638690191+638201210+638960014+641435898
3578+643755881+643344271+640730725+639260235+641703766+648441517+656944986
3568+661693229+658407804+650033963+642669931+638115805+634942420+632910065
3558+633193856+635753843+638971305+641218042+641720124+640869473+639963091
3548+639774259+639556620+638202295+635956354+633977920+632824804+632041392
3538+630783039+628856282+627370303+627783361+630351236+633873914+636568594
3528+637270582+636167769+634257658+632374328+631106856+630766393+630617295
3518+629048517+625476984+621285468+618196041+617055013+617998668+620100000
3508+621591335+621568536+620653324+619907042+619922241+620464275+620375034
3498+618630233+615909786+613795355+612421488+610575794+608192625+606974985
3488+608189151+611130928+613933016+615036915+613819746+610894037+607927507
3478+606508911+607305279+609822780+612386096+613142077+611571561+608565947
3468+605273683+602307189+599658360+597061172+594904834+594621657+597001786
3458+600174483+600859028+598244939+595140965+594506288+596414806+598760591
3448+599757300+599330852+598425340+597496847+596292741+594852143+593527999
3438+592193651+590890207+590715742+592227849+593768401+593326139+591093226
3428+588571455+586568520+585121263+584203374+583829798+583749894+583388550
3418+582469900+581437148+580684569+579996079+579397157+579598402+580857370
3408+582335206+582980884+582231236+579914691+576407430+572966503+571371740
3398+572752628+576414921+579956887+581091691+579402187+576267959+573529019
3388+572152909+571780021+571661033+571763049+572158229+571903931+570181133
3378+568144326+567771077+569293425+571282680+572792725+573884464+574483315
3368+574295966+573543603+572525906+571031748+569426165+569110383+570539546
3358+572042968+571804195+569915870+567430396+564826405+562612454+561885279
3348+562950963+564486340+565061052+564557848+563402055+561746966+560169719
3338+559900005+561578037+564247422+565937976+565429706+563450584+561899284
3328+561950057+563058588+563667716+562797053+560917739+559229646+558336546
3318+558009364+557986457+558328114+559141925+560555165+562583539+564484711
3308+564887310+563384938+561429953+560701729+561071975+560981865+559631594
3298+558072224+557927542+559414100+561056450+561608544+561566095+561943651
3288+562635181+563168059+563815221+564715088+565322153+565609636+566144324
3278+566660989+566334242+565298341+564506280+564497920+565007167+565202803
3268+564346688+562773349+561634636+561318058+561104581+560510110+559751378
3258+558940643+558068460+557664486+558369080+559889402+561148405+561488398
3248+561245717+561060467+560940357+560391158+559404654+558666188+558473375
3238+558184517+557278172+556213682+555663977+555557980+555283236+554421366
3228+553179914+552244256+552077390+552349420+552255366+551310444+549722847
3218+548200751+547345830+547031351+546458484+545226658+544121456+544153085
3208+545066813+545652454+545474586+545217285+545184136+544655601+543020380
3198+540603302+538264682+536746676+536254799+536400676+536632356+536697097
3188+536530449+536065677+535484741+535149489+534938473+534189693+532597392
3178+530628113+528797654+527102975+525521892+524520008+524438801+524625462
3168+523846682+521753710+519425802+518175773+518190719+518582461+518472086
3158+517735936+516854525+516171753+515431695+514326819+513215826+512632103
3148+512384790+512044797+511879524+512196102+512337708+511364848+509343458
3138+507265613+505952652+505330207+504637556+503392051+502012358+501156604
3128+500765151+500291007+499625498+499182766+499204117+499484579+499696174
3118+499630492+499158483+498211389+496812046+495032902+492983791+490890639
3108+489141242+488136934+487976148+488210253+488141241+487604527+487117644
3098+487053265+487100600+486710594+485733102+484487235+483427052+482784449
3088+482507099+482528197+482827152+483046057+482497003+480962205+479144883
3078+477974505+477724260+477958944+478053541+477641497+476812487+475959918
3068+475305880+474703086+474050785+473589560+473515229+473666389+473849141
3058+474022304+473959445+473302114+472129745+470893902+469782657+468709337
3048+467741616+467018639+466462347+465948504+465508015+465089095+464435347
3038+463412402+462137765+460765526+459492373+458676174+458551142+458849771
3028+459016492+458768129+458237422+457656956+457125091+456646641+456212594
3018+455811298+455399362+454855157+453965567+452585114+450951992+449635810
3008+448936355+448540451+447987091+447154534+446074628+444739411+443326243
2998+442200559+441595774+441521225+441779612+441885355+441411211+440564143
2988+439908405+439564467+439168961+438496793+437642342+436717396+435795092
2978+435036758+434540250+434094695+433292103+431962024+430423463+429286524
2968+428964227+429241071+429371097+428797977+427648769+426366207+425231511
2958+424415131+423984269+423685929+423159746+422431738+421852539+421610039
2948+421567155+421438540+420982853+420162130+419195856+418423554+418095214
2938+418157567+418128833+417406508+415921252+414276260+413065604+412331590
2928+411815395+411351130+410811231+410070739+409240788+408552118+407941868
2918+407228987+406592754+406275163+406021480+405447492+404688869+404169018
2908+404014963+403997629+403762222+403050644+401939036+400777127+399810347
2898+399049842+398416431+397770138+397036304+396474511+396438286+396776361
2888+396886302+396407960+395531181+394669891+394091343+393739770+393287701
2878+392496038+391518401+390700501+390175005+389792274+389347225+388791440
2868+388292290+388064663+388088113+388102625+387923346+387543908+386902210
2858+385931703+384898408+384242343+383969408+383584868+382720465+381547952
2848+380518240+379887109+379572015+379336716+378979534+378408585+377685174
2838+376929156+376089507+375017562+373902227+373283908+373399133+373802600
2828+373839476+373295090+372447407+371609277+370792209+369909785+369141789
2818+368735209+368503493+367994174+367182281+366525421+366245972+365942783
2808+365066040+363616322+362201707+361386123+361103019+360797659+360072692
2798+359085646+358320400+358043159+358040915+357900973+357420605+356660462
2788+355775830+354937411+354254205+353670120+353079159+352519936+352066093
2778+351616666+351013510+350282390+349542368+348776543+347897086+346936060
2768+346014407+345241019+344706874+344393734+344065213+343467738+342631418
2758+341800997+341179746+340855423+340745590+340528495+339891248+338882851
2748+337805189+336834536+335952908+335125888+334376095+333763964+333333898
2738+332998537+332541655+331842780+331031177+330361686+329985143+329814260
2728+329585946+329140463+328614208+328202887+327812158+327185696+326298169
2718+325375286+324611813+324052409+323625455+323168139+322552497+321835636
2708+321167412+320587742+320018313+319380633+318694640+318128650+317853905
2698+317776570+317560813+316977199+316132664+315359348+314910174+314711462
2688+314468093+314062455+313665501+313388658+313076422+312530407+311744064
2678+310897249+310216938+309753759+309275454+308557543+307733057+307132252
2668+306849872+306698423+306537962+306431350+306430228+306351880+305894889
2658+304974032+303862099+302961924+302469686+302261692+302056991+301672178
2648+301141888+300607381+300151621+299810362+299633924+299576963+299425568
2638+299010737+298408069+297803284+297282855+296850364+296514443+296275055
2628+296074244+295801779+295390495+294924294+294542359+294204375+293734049
2618+293132793+292637732+292425431+292434876+292468332+292324681+291904205
2608+291331411+290883974+290659188+290420524+289931525+289300774+288828458
2598+288666550+288776962+289033539+289226751+289152980+288824115+288451336
2588+288167870+287887046+287484574+287024435+286706843+286621944+286648507
2578+286574411+286238363+285629543+284956578+284524920+284433163+284453628
2568+284281515+283857963+283399108+283124798+283015762+282906273+282774021
2558+282791899+283082059+283521987+283811333+283715289+283266097+282701264
2548+282211921+281835432+281556237+281362283+281225635+281135778+281070784
2538+280867620+280307293+279461075+278767538+278612596+278950453+279408367
2528+279625517+279462053+279057246+278736578+278716512+278877660+278923457
2518+278725722+278413576+278169574+278053825+278037630+278119254+278300215
2508+278447358+278335952+277920542+277428666+277098896+276962863+276914443
2498+276815340+276530481+276052085+275573110+275282153+275152543+275052264
2488+274940260+274844578+274747519+274569634+274229678+273727216+273193904
2478+272818048+272683426+272693378+272653462+272449412+272171682+272014262
2468+272017446+271996005+271771472+271380671+270982288+270640703+270309540
2458+269983842+269729762+269553432+269390475+269258802+269267017+269409546
2448+269503800+269431404+269323562+269351445+269403322+269188144+268667859
2438+268148281+267897023+267905672+268043370+268188703+268192141+267950618
2428+267562549+267248594+267107096+267057518+267014544+267010563+267101759
2418+267227641+267256031+267155843+267060739+267143104+267419387+267674842
2408+267637839+267284801+266907842+266804559+266960587+267141566+267246043
2398+267392933+267640915+267856148+267968531+268140663+268562514+269298863
2388+270439494+272168588+274589665+277671365+281447417+286139948+291996125
2378+299014627+306866555+315125931+323554779+332083724+340558821+348643224
2368+355890693+361723184+365527989+367163789+367161943+365996234+363468202
2358+359264635+353601289+346887025+339717687+333611429+330411699+330817844
2348+334446808+340675059+348532017+356063530+361118363+363117896+363081707
2338+362110005+360477172+357999189+354699905+350976923+347366018+344163465
2328+341151700+337795201+333820418+329529093+325440317+321693632+317983063
2318+314039258+309938285+305950837+302300251+299065870+296177472+293479607
2308+290841977+288220380+285647221+283204974+280977996+278977703+277120049
2298+275313528+273575133+272032700+270782472+269768031+268861215+268030342
2288+267322600+266704136+266065587+265400330+264843984+264491796+264247848
2278+263900744+263351672+262745493+262324221+262162566+262119031+262026768
2268+261832417+261563933+261283923+261095091+261086044+261223253+261357296
2258+261371771+261277229+261149754+261040790+260959926+260898170+260861783
2248+260874213+260909914+260884744+260785334+260724700+260793422+260946681
2238+261104916+261271294+261481568+261705232+261887478+262087475+262473300
2228+263118381+263883500+264577165+265163276+265738929+266382201+267098827
2218+267857667+268596423+269247909+269863750+270653115+271783396+273204290
2208+274750577+276306853+277820896+279297376+280798410+282338129+283829862
2198+285218892+286582915+288039708+289598426+291134147+292527157+293794557
2188+295023090+296249704+297477803+298668899+299673732+300350586+300753366
2178+301062960+301391716+301716962+301928955+301949293+301801064+301474045
2168+300830774+299830971+298723924+297804677+297029842+296041855+294612801
2158+292906342+291190511+289500065+287733461+285855649+283921148+282075381
2148+280426879+278898106+277639537+277477936+279223642+282641553+286792122
2138+291152910+295760416+300587242+305419696+310142824+314801210+319516051
2128+324420954+329588515+335032630+340750946+346674271+352664075+358661840
2118+364750149+371017954+377478934+384174634+391347916+399641309+410165155
2108+424115670+442226289+464712516+491385700+521169481+551744092+580471345
2098+605617801+626492728+643234257+656596779+667251591+675453463+681161212
2088+683805084+682474789+676416444+664857059+647542591+625700558+600997702
2078+574324157+546532743+518833828+492138967+467172260+444709410+425051798
2068+408000711+393376001+380917365+370136073+360760023+352808613+346202045
2058+340783371+336407039+332753576+329542339+326888696+325047018+324141831
2048+324353463+325917645+329017458+334042219+341682768+352650721+367651793
2038+387401469+412137257+441244635+473465144+507007950+539562806+569066812
2028+594660090+616623065+635601705+651927210+665493763+676217696+684131795
2018+689019220+690780088+690054288+687690661+683751670+677468304+668161881
2008+656002922+641623066+625335704+607289862+587974957+567946266+547333128
1998+526154578+505041060+485108522+466931243+450085961+433999193+418776574
1988+404864130+392459921+381513971+371848195+363171672+355230575+347946122
1978+341385297+335677186+330812995+326466302+322317995+318552817+315555237
1968+313115180+310499137+307431352+304436305+302037431+300156778+298458227
1958+296860859+295478035+294298104+293164928+292017060+291005894+290309081
1948+289949565+289957418+290431960+291041395+290859095+289401108+287369548
1938+285727306+284740097+284215905+283976155+283866503+283717225+283461715
1928+283297400+283714022+284969335+286467328+287381309+287877963+288552465
1918+288934147+288073092+286370650+285228825+285320980+286168084+286866652
1908+286866471+286295125+285683265+285415161+285507388+285802036+286250540
1898+286976684+287938072+288722642+289201237+289989915+291385169+292409580
1888+292053049+290840023+289921193+289595133+289521381+289495723+289541103
1878+289711389+290010977+290451230+291389675+293584481+297215562+300679143
1868+301367940+298774733+295237833+293016337+292508194+292868850+293206690
1858+293178517+292943743+292815309+292964968+293467520+294421978+295963163
1848+298407092+301962828+305459214+306251348+303615836+300257310+298583620
1838+298571606+298995845+299362039+300567917+303562982+307446732+309773736
1828+309726871+308874447+308026728+306539011+304535172+303163025+302886724
1818+303202434+303697151+304603424+306295426+308461788+309990614+310056767
1808+309146767+308529967+309196382+311418112+314540833+317087212+317912459
1798+317580681+317996380+320652628+325038623+328055201+326811288+322852320
1788+319955417+319663013+321065939+322942141+324932445+326700840+327613446
1778+328031389+329675983+334031217+340430785+345341551+345530420+342176961
1768+338274519+335485495+334906006+337037772+340369843+342386855+342898490
1758+343401296+344071727+344780265+347040139+352212802+358752457+362862404
1748+362919365+360961232+359531309+359784992+361573255+363704297+364909778
1738+366032169+369697249+376327990+381144774+379441337+374164052+369547862
1728+366612237+365528785+366348820+368476279+371832055+377751942+387080657
1718+397081106+401628284+398702069+392974814+388759956+387568154+389678460
1708+394733764+401087698+406447602+410971149+417259039+425672289+432057454
1698+433732591+432344213+428572521+423693167+421255715+422915436+427463266
1688+433985079+443690265+455989129+463402414+460579661+454179551+451060594
1678+452819038+458192259+464253209+468888182+473428774+479367805+484188787
1668+484684970+483507680+485480397+491282490+497379231+500677683+502621521
1658+506746849+515472371+529347360+543724575+547643808+543007315+541794307
1648+545875919+548579791+544277646+537076825+533100016+533989895+539286614
1638+547929083+556567065+558971910+554030275+548633640+547629260+550901114
1628+555976104+560966015+565894803+570505854+573285035+574688504+577649642
1618+583303362+588478956+589592156+588617342+589196759+591844684+594906353
1608+596968637+598134672+599303349+600830837+602326948+603542707+604881905
1598+606807540+609193748+611514600+613469150+615226689+617002394+618631681
1588+619884822+620989807+622376267+624111079+626157549+629121183+634076208
1578+641021827+646961618+647929954+646034392+646946563+652145862+658098319
1568+661017297+662166938+664938918+671136300+682407188+701496711+727245672
1558+745761822+749317648+749989454+754848652+762623497+770736418+777971836
1548+784482394+791627340+800534891+810680674+820385389+825737331+820874081
1538+809422828+801585304+799751551+799409858+795942477+790870056+788574536
1528+789931901+792841542+796195725+800932315+806337672+808893967+807512935
1518+804813550+802007191+798897644+796780534+797882913+803557876+813724648
1508+825088613+828286316+818122150+804980307+797672440+797000055+800715907
1498+804840547+805298406+802422709+800812097+803516765+809377158+813781609
1488+812775057+807765460+803042042+800845752+800529391+800759333+801764148
1478+804881368+810584702+817723640+823315875+823236260+817370801+811629686
1468+810744656+814186632+817428992+816820661+814881238+816929733+825014571
1458+835308366+838526986+831681899+822851358+817764823+816815594+818037107
1448+818704787+817511358+815696496+814982059+815869767+818428089+822893626
1438+828252444+831041070+829011682+825245672+823369362+823221929+822652682
1428+821194423+820363748+820445101+819968423+818745681+818467824+819196809
1418+818232019+814708545+811037205+808649332+806863059+804905831+803172683
1408+802529249+803086410+803972815+804482496+805118476+806653092+808809792
1398+810717007+811874538+811702063+809590816+806693551+805498240+806876883
1388+808793435+808324213+805529145+803581326+804863707+809150038+814851635
1378+820667154+825879263+829812103+832117394+833655991+835704197+838161987
1368+839973664+841301716+843602519+847024809+849304188+848484226+845686986
1358+843351008+842185733+841135103+839495322+837952382+837288537+837286076
1348+837486634+837942828+838726603+839818632+841759864+845116870+848912627
1338+850968361+850581866+849212125+848244874+847890514+848155994+849343489
1328+851364771+853687143+856242570+859485074+863307756+866684231+868762618
1318+869871801+871028463+872745978+874784775+876810182+878828424+881053521
1308+883587668+886265992+888789500+891031822+893124396+895125846+896725964
1298+897415720+896924568+895453571+893522543+891627271+889971928+888382233
1288+886438033+883823184+880678823+877542641+874960290+873200362+872071710
1278+870978378+869526851+868094214+867471407+868015105+869385932+870955145
1268+872267057+873332813+874512925+875890773+877087387+877969088+878924252
1258+880080045+880891106+880838560+880032204+878973613+878040886+877068135
1248+875439717+873101133+871194135+870989452+872424333+874161461+874923739
1238+874571334+873954896+873887585+874478474+875543796+877220851+879509133
1228+881646942+882771976+882875475+882588572+882444396+882701191+883610033
1218+885527526+888502596+891730408+893901945+894559928+894718000+895660932
1208+897594420+899839999+901781666+903177318+904150504+905413706+907891833
1198+911557239+915165900+917657635+919213603+920516033+921945341+923774461
1188+926147135+928623887+930436867+931501031+932680203+934736153+937562488
1178+940779082+944348732+947906223+950284977+950948532+951070777+951838773
1168+952751379+952907497+953138308+955194693+959172696+963347277+966624305
1158+969612548+972772977+975271153+976388008+976442798+975854008+974852161
1148+974272636+975239597+978023808+981879856+985597662+988108143+989104634
1138+989029217+988361536+987485915+987218046+988150556+989731204+991225217
1128+992785673+994680873+996872821+999960655+1004628197+1009685926+1012845269
1118+1013872665+1014838758+1016978015+1019064219+1019143617+1016829424
1110+1013409812+1010602295+1010005037+1012522321+1017174302+1021236408
1101+1022592542+1021826500+1021211076+1021926598+1023079279+1023471130
1093+1023439140+1024320116+1027090214+1031797202+1036998237+1040236906
1084+1040700411+1040899883+1043028790+1045817633+1047321996+1047265614
1075+1045977008+1043797654+1042211867+1043053543+1045921929+1048700567
1067+1050553789+1052798138+1056874574+1062747488+1069055897+1073494220
1058+1073741823+1069633468+1063932740+1059438758+1056733873+1055989906
1050+1058083420+1062163114+1064589274+1062591226+1057365582+1052133859
1041+1049207932+1049432736+1052141965+1054972353+1055651108+1054466435
1033+1053241304+1052222087+1050097522+1046867973+1044838947+1045884799
1024+1049015481+1052168093+1055318823+1059654226+1063731748+1063858336
1015+1059331640+1053766112+1051013313+1051892191+1054523613+1056785478
1007+1057768724+1057254049+1055068904+1052084931+1050367562+1050504934
998+1050505586+1048792848+1046383334+1044562538+1042689050+1039553013
990+1035607941+1032670000+1031772232+1032541313+1034151564+1035624081
981+1035423958+1032634680+1028713783+1026536890+1027474248+1029590128
973+1029309593+1025129585+1018586529+1011856305+1006085660+1001728327+998896057
963+997026406+995195114+993141190+991216822+989394505+987182074+984563462
953+982294795+980773640+979717293+979001626+978518724+977637530+975486403
943+971668354+966512989+960941599+956613072+955250713+956854668+959113347
933+959475958+958058592+957391635+958827022+960737567+961041335+960257126
923+960634284+962903459+965156782+965099604+962691393+959868822+958195241
913+957823149+958444508+959801656+960993276+960765866+959064637+957004778
903+955110591+953090250+951322289+950677479+950784163+950163383+948253417
893+946036644+944692452+944476551+944558771+943704140+941649709+939576894
883+938554203+938367976+938598280+939496338+941131342+942959739+944682898
873+946184945+946850021+945739101+942377680+937826666+934402711+933698986
863+935273121+937442559+938774592+938928972+939030518+940700914+943409781
853+944256162+942246605+940370512+941418536+943987352+944404029+941590504
843+938013399+936195787+936426381+937888983+940131884+942856673+945669836
833+948209484+949679178+948977987+946111048+942538792+939822688+938721467
823+939151243+940406411+941795766+943440541+946023906+949749312+954095788
813+958367716+961540449+961985063+959112913+954779392+951435704+949782967
803+949074466+948376097+947184332+945976064+946092737+947850131+949621349
793+949861424+948776922+947470801+946629487+946675229+947968540+950327390
783+952978716+954822674+955291100+955074547+955254911+955928599+956247856
773+955489124+953846810+952341723+951545211+950838374+949668901+948734509
763+948515496+948018987+946549510+945393499+946201882+948748768+951508298
753+953679836+955507653+957075853+957922233+958132996+958909098+960620895
743+961254341+958925238+954896788+951994674+951878653+954425974+957931498
733+959574246+957429850+952971334+949872136+949607814+950049533+948829686
723+946517519+945840574+948403528+952809281+956239388+957185432+956339486
713+955392645+955007887+953966739+951193819+948142463+947161171+948158820
703+949110220+948738128+946887512+943841078+940462142+937997621+936885905
693+936349299+935271673+932911448+929342522+925581361+922403562+919358864
683+916011268+912933711+910661931+908760072+906923497+905532260+904520642
673+903142722+900250162+894599084+887385669+884028012+886822067+892422770
663+897218420+898566592+895847738+891410428+888272726+887198646+886775962
653+885493581+882579018+878186220+873508907+869535464+866272187+863437166
643+861427320+861462423+863714010+865962918+866616703+867500430+870969114
633+875959676+879106643+879059091+877097810+874518788+871784734+869081296
623+867070871+866797139+867061244+863965231+856854592+850515134+847732442
613+844926228+838393160+831998478+831950492+837197487+841928648+844115602
603+846346054+850213175+855513440
##END=
