##TITLE=<SNM>
##JCAMP-DX=4.24
##DATA TYPE=INFRARED SPECTRUM
##DATE=2/5/2025
##SAMPLING PROCEDURE=Instrument type and / or accessory
##ORIGIN=Admin
##XUNITS=1/CM
##YUNITS=ABSORBANCE
##RESOLUTION=4
##FIRSTX=4497.3318
##LASTX=599.83466
##DELTAX=-1.4281778
##MAXY=1.8176725
##MINY=0.29714459
##XFACTOR=1
##YFACTOR=1.6928394e-09
##NPOINTS=2730
##FIRSTY=0.31538418
##XYDATA=(X++(Y..Y))
4497+186304841+186160181+186181166+185741483+185218933+185192332+185367818
4487+185001583+184200629+184176704+185799333+188291205+189888430+189632859
4477+188074242+186420030+185479433+185270639+185253949+184931797+184329884
4467+183914707+184063451+184671613+185393345+186130886+186926136+187550830
4457+187750857+187647622+187379164+186742499+185717188+184874317+184749304
4447+185142457+185386286+185139781+184697651+184501074+184549242+184560614
4437+184571371+184919016+185633300+186334434+186793501+187035709+186864079
4427+186003092+184789531+183925781+183482488+182930732+182116029+181424789
4417+181120347+181214515+181823576+183045851+184545228+185605379+185626452
4407+184549259+182960784+181814069+181779176+182661060+183542363+183683061
4397+183171180+182547226+182118828+181905967+181902815+182066981+182298874
4387+182657785+183295806+183999158+184177601+183519652+182296585+180864600
4377+179378656+178123072+177509487+177595153+178032442+178501683+178924924
4367+179394887+180026095+180617374+180553820+179478634+177896426+176727863
4357+176505900+177164342+178230075+179081731+179326263+178999780+178329771
4347+177500051+176686668+176051975+175658910+175530288+175695845+176095565
4337+176572394+176946112+177005687+176663218+176193835+175997769+176116567
4327+176347104+176662303+177056776+177211453+176887276+176468455+176509210
4317+176920708+177175134+177067304+176823740+176787157+177292366+178389417
4307+179434287+179472402+178291797+176712125+175752902+175775894+176316242
4297+176627392+176524826+176518611+176989614+177693089+178208544+178314085
4287+177894806+177125207+176625808+176784076+177127284+176988188+176489862
4277+176233270+176400641+176729043+177104627+177660995+178308170+178627682
4267+178344366+177667826+177082110+176847964+176801787+176721138+176744852
4257+177135189+177781483+178386917+178937934+179501151+179847598+179760154
4247+179371966+178830103+178067704+177204587+176729025+176947608+177569185
4237+178064148+178274140+178492687+178951542+179452631+179676725+179640547
4227+179600900+179689295+179833901+179884780+179794554+179736775+179877650
4217+180093363+180195454+180240892+180363880+180574471+180860146+181148145
4207+181202755+180903119+180485618+180265522+180258444+180152551+179625019
4197+178812287+178325212+178595535+179483211+180603906+181517743+181586349
4187+180438825+178704880+177650239+177988482+179302109+180512712+180832242
4177+180424846+180098380+180341293+180973486+181669955+182296532+182668964
4167+182553071+182069358+181662684+181570786+181647650+181699338+181662790
4157+181441126+180889616+180115756+179552223+179504848+179827705+180253797
4147+180727774+181173021+181370425+181316131+181253810+181255253+181193988
4137+181059750+180938963+180848298+180773248+180713866+180707000+180817753
4127+180915883+180648253+179953298+179311193+179200863+179598506+180119788
4117+180405886+180430374+180548486+181084679+181896847+182540413+182732835
4107+182519675+182142524+181826340+181638090+181559783+181623918+181818523
4097+181921265+181695553+181241803+180873226+180621194+180233709+179793093
4087+179813339+180438508+181143004+181538622+181787028+181943324+181641470
4077+180738936+179647976+178798855+178275953+178070979+178276059+178887496
4067+179649772+180222900+180430533+180349480+180227108+180249941+180341205
4057+180285855+180042344+179794554+179781492+180160667+180824285+181322751
4047+181303473+180973504+180779656+180808405+180812683+180575932+180042273
4037+179348164+178857444+178981013+179847827+181131825+182260495+182932035
4027+183324185+183663273+183898000+183941167+183766720+183234224+182384451
4017+181764177+181832308+182277026+182413640+181990823+181291607+180734711
4007+180601811+180953558+181685852+182667398+183730700+184573396+184859458
3997+184483065+183679752+182877319+182418147+182368395+182568387+182838887
3987+183098102+183304467+183448704+183667956+184181633+185041176+186121873
3977+187285189+188263020+188601210+188154890+187430993+186975923+186619652
3967+185906476+185132088+185225060+186504709+188127937+188988501+188801255
3957+188104522+187599085+187696616+188451005+189668650+190863690+191337334
3947+191036765+191070179+192228882+193439873+192998570+191024459+189212154
3937+188827927+190188066+192968554+195983803+197384099+196358894+194358903
3927+193519394+194305331+195322157+195450444+195430498+196512127+198418090
3917+199420620+198248466+195463824+192701364+191195473+191383406+193449239
3907+197696288+203985808+210757404+215370706+216218824+213589210+208645992
3897+203273107+199964754+200261485+203184062+205392460+204760231+203711417
3887+205279630+208392005+209963351+210233886+211168321+211280499+208399699
3878+205058846+205026999+208428765+213110215+217506131+219940453+218759655
3868+215943306+215111896+216086188+215422095+211891919+208332536+207804652
3858+211621648+220069057+231208983+237187459+231410471+220295210+211601578
3848+207581298+208018323+211806183+217326103+223170888+228438671+231772041
3838+231415876+227783204+223598564+220458179+218041603+216145569+215473466
3828+216152717+217571358+220485220+226503044+233680328+236294431+233788070
3818+231079886+228857087+224308677+218347084+214774937+215597546+220318290
3808+226163409+230030086+232724644+236889249+241029313+241199922+238448377
3798+236265612+234394701+231485046+228799695+228304750+230217262+233808967
3788+238619198+244035373+249021389+253652049+259658517+267802594+275944751
3778+281869040+287021158+294776553+307046064+323093100+339354986+351525311
3768+358746009+362833698+364628697+365138007+366557141+369512938+372094455
3758+373181419+374807058+380109065+390932436+405733395+418506055+425660347
3748+431818623+441297575+451072608+454930870+455194732+459587761+471419719
3738+489213657+508080123+521856827+528403714+531354477+534965495+541088067
3728+550242033+561397609+571084723+576262193+577132862+575527257+573463184
3718+572872680+574607751+578118210+581726622+582614932+578895890+572320202
3708+566098584+562220464+561539681+563493336+565889120+566877356+566612296
3698+566027530+566385051+569666399+577383063+588462375+597936293+599089134
3688+591347753+582116501+577154798+576834670+579020744+582229384+587575755
3678+596543391+605192271+605787318+599853611+594791489+590554228+583006290
3668+574068724+568717317+567561800+567963756+567811544+567464621+568607463
3658+571148101+572646879+573031758+576415989+585056877+594548963+595811307
3648+587051375+576757736+570063250+566130097+563336159+561429615+561048820
3638+562671643+565635363+568360606+570672345+574842144+581976683+587669238
3628+586359818+581044326+577809279+578584952+582438179+587035847+589868058
3618+591152479+593258874+596500364+599403277+601745648+604030698+604720952
3608+602178870+598750134+598269589+601429604+606187513+610814089+615214477
3598+619344101+621809707+621242335+618623778+617048559+618714901+622525453
3588+624789236+623501682+620710878+618650185+617422206+616562592+616155918
3578+616371332+616875960+617165878+617541919+619608879+624958736+632731877
3568+638501154+637636188+631253415+624703183+621282334+620744679+621187971
3558+621014034+619830561+618134994+616428161+614750763+613663835+614675484
3548+618147670+621602391+621821397+618460474+613837771+610134046+608223629
3538+607933359+608335456+608486295+608450240+609031695+610093836+610231929
3528+608925714+607418379+606303072+604346882+600981805+597774468+596265585
3518+596127421+595835954+594222709+591636474+589738521+589599548+590563453
3508+591623657+592640729+593476682+593397249+592239619+591102270+591111424
3498+592059344+592367360+590630528+587467415+584912693+583961745+583835693
3488+583499967+582931258+582673099+582724400+582291565+580690079+578230530
3478+576022977+575190440+576027413+577315707+577087265+574781160+571907824
3468+570203631+570021315+570640938+571215246+571150812+570155147+568321594
3458+566215551+564563187+563607768+563262148+563626535+564482979+564992853
3448+564662373+563722446+562083709+559207908+555482845+552445009+551040487
3438+550544803+549887294+549261861+549617551+551214987+553455250+555539075
3428+556519459+555528160+553058752+551136364+551054149+551706975+551002672
3418+548296618+544679086+541634172+540129338+540253840+541288447+542334637
3408+542875285+542629872+541384746+539486723+537782460+536706200+536070063
3398+535606701+535037252+533890185+532081349+530289026+529143438+528498710
3388+527950176+527563255+527635153+528086720+528383327+528212665+528060488
3378+528485859+529031119+528834964+528046475+527401888+526945990+526367387
3368+525848851+525568228+524999695+523634045+522106606+521869080+523652565
3358+526344148+527816026+527356995+526335346+526065075+526324783+526194753
3348+525229967+523553520+521664793+520342205+520164289+520892852+521549199
3338+521343538+520438081+519494034+518713678+517881070+517087581+516760692
3328+517133142+518081696+519216510+519834690+519040707+516550666+513522512
3318+511873563+512327489+513569341+513810035+512756944+511454179+510841175
3308+511156831+512131652+513116155+513437057+512923205+511875993+510896912
3298+510706251+511556992+512766802+513114570+511793531+509352784+507843478
3288+509085259+512349037+514713873+514210090+511637305+509186558+508496902
3278+509955119+512797013+515661441+517416511+517642488+516533800+514541556
3268+512108026+509760690+508188922+507703976+507750242+507603839+507485393
3258+508236490+509788154+510726461+509868960+507764889+506076717+505867923
3248+506787006+507571094+507288570+506214423+505314036+504986620+504699624
3238+503733289+501976634+500168291+499380928+499901154+500807808+501057692
3228+500595351+499916259+499072313+497740747+495971205+494331411+493349478
3218+493122903+493423982+493817347+493717879+492808655+491438111+490247454
3208+489502449+489074719+488769309+488381930+487660445+486411410+484708661
3198+483055875+482039612+481541604+480730756+479286976+478087693+477988190
3188+478514436+478534611+477696370+476431949+475070524+473732303+472646255
3178+471878785+471094521+470080794+469168295+468749544+468611064+468061578
3168+466732019+465039551+463699217+462907383+462206249+461081962+459516567
3158+457959059+456913537+456533376+456431162+455900162+454559089+452812222
3148+451433122+450725333+450359468+449883043+449064625+447953578+446910521
3138+446313009+446047175+445602122+444697581+443507910+442322359+441287893
3128+440479228+439967945+439722251+439550603+439251073+438810069+438348186
3118+437893908+437311361+436455832+435401895+434458764+433858400+433503907
3108+433115261+432529932+431877845+431518705+431637257+431926752+431945977
3098+431598948+430924750+429783985+428160423+426454294+425182655+424559546
3088+424398848+424336597+424250755+424303781+424408672+424075551+423095414
3078+421962959+421262142+420967260+420638681+420069831+419449855+418970790
3068+418495492+417657321+416315825+414924226+414232352+414431781+414836694
3058+414689552+413965285+413059582+412142224+411211874+410346521+409534054
3048+408604795+407559731+406650577+406041587+405694101+405564282+405596640
3038+405529284+405056626+404259616+403580101+403288951+403135224+402586760
3028+401429166+400098444+399272209+399093273+399012149+398467946+397453972
3018+396341164+395499296+395181809+395369055+395551196+395028646+393649617
3008+392008907+390789872+390100322+389553266+388907904+388414262+388345356
2998+388418100+388106246+387389761+386715281+386328254+386021752+385449662
2988+384467412+383227955+382019517+380994382+380117797+379347335+378754225
2978+378449167+378386106+378320651+378100624+377837783+377534062+376824760
2968+375484074+373917199+372800378+372404267+372421379+372350677+372008226
2958+371609334+371343816+371113896+370757114+370231290+369503713+368543048
2948+367507666+366733366+366394964+366237471+365806185+364968789+364053086
2938+363435047+363144073+362913659+362503007+361917291+361340236+360893458
2928+360492876+359903322+358964803+357858192+356983544+356457896+356005273
2918+355441246+354933450+354689551+354658637+354544451+354004015+352981872
2908+351841495+350970051+350379230+349890552+349506976+349381241+349525285
2898+349679152+349480885+348808166+347936862+347288121+347023871+346936233
2888+346711524+346228128+345587696+344974304+344525273+344211553+343824139
2878+343223635+342558345+342059139+341712322+341335365+340894784+340552932
2868+340375333+340105027+339414843+338443649+337782408+337713045+337792549
2858+337464005+336758365+336108989+335718617+335407433+335008434+334644576
2848+334502750+334505250+334385431+333987031+333342304+332580433+331874616
2838+331364108+331082675+331003277+331042924+330995073+330663784+330074371
2828+329364152+328584113+327788828+327137199+326739292+326515252+326225228
2818+325623985+324775779+324157529+324120594+324362732+324299073+323777791
2808+323054686+322299892+321509043+320734461+320101388+319632428+319199417
2798+318689578+318188331+317887427+317768735+317508322+316803667+315727584
2788+314663823+313932127+313530770+313216099+312795799+312315607+311948086
2778+311734222+311493527+311032172+310396951+309812643+309371393+308941481
2768+308415516+307882474+307487631+307238943+306998777+306593723+305948044
2758+305176244+304514122+304091146+303754575+303170584+302190236+301077112
2748+300217040+299673646+299253346+298875756+298577563+298295532+297911041
2738+297358528+296590706+295685918+294939997+294547231+294347961+294122389
2728+293845992+293509931+293062678+292613629+292336527+292132856+291682310
2718+290879138+290050949+289633325+289651828+289668412+289306718+288666797
2708+288099002+287721817+287340617+286794336+286207388+285812386+285636266
2698+285510109+285294783+284940396+284438990+283859400+283328700+282944666
2688+282770852+282787647+282767631+282444422+281871487+281336579+280949798
2678+280617012+280296462+279955982+279445580+278730556+278075881+277741282
2668+277655493+277549793+277257181+276812129+276393413+276165059+276084957
2658+275942973+275632563+275280271+275096334+275156279+275293105+275212738
2648+274790801+274191863+273627678+273128262+272638668+272203615+271911814
2638+271698143+271369670+270899002+270513771+270355097+270253165+270027276
2628+269779944+269680388+269639263+269402248+268908588+268413890+268197419
2618+268228475+268255991+268134992+267879738+267536108+267204941+267007942
2608+266879004+266613328+266210474+265925397+265928038+266113893+266269609
2598+266267884+266089616+265789699+265486119+265289719+265201307+265142418
2588+265066259+264939292+264703263+264397976+264191118+264151665+264161172
2578+264125857+264059222+263917995+263621370+263282017+263156230+263287369
2568+263434757+263431360+263378510+263398579+263434810+263422187+263447679
2558+263601423+263824020+263991496+264033431+263942712+263769198+263590719
2548+263405639+263104665+262629473+262092399+261644107+261278435+260883081
2538+260441690+260056811+259809215+259705681+259720944+259802966+259874794
2528+259880550+259807138+259673024+259520371+259369286+259166266+258853866
2518+258501855+258277357+258242869+258268044+258215863+258127328+258094425
2508+258054761+257909221+257744984+257720443+257815193+257886299+257869786
2498+257788662+257671801+257544147+257409716+257242381+257059413+256945245
2488+256933098+256921901+256774372+256465440+256087691+255735839+255452417
2478+255269907+255194575+255146884+255032487+254853497+254665195+254501100
2468+254405575+254410417+254428514+254311301+254047966+253788311+253645324
2458+253565186+253424135+253197578+252975245+252823508+252704199+252546213
2448+252344936+252170295+252079101+252023100+251896133+251695771+251545196
2438+251515197+251531623+251491272+251356313+251124879+250836369+250614776
2428+250585375+250708962+250773114+250609758+250300668+250110658+250199880
2418+250461032+250677414+250769611+250814838+250888022+250967244+250965941
2408+250819046+250574161+250391035+250404115+250620955+250985940+251438827
2398+251859744+252124451+252365850+253070241+254775472+257820069+262565443
2388+269685036+279962461+293895708+311670140+333326459+358653160+386957208
2378+417154278+448104839+478803580+508431694+536372551+561900934+583867946
2368+601279469+614158252+623214228+628856327+630905541+628839497+621806116
2358+608897335+590014672+565752858+537086642+507719081+484488071+472907441
2348+474798528+488908529+510352638+530767423+543743560+549087678+549890463
2338+548882651+547467989+546161527+545236282+544700282+543837535+541502487
2328+537310366+531977938+526021802+518879164+509895121+499391244+488191902
2318+476912493+466009407+455732563+445818135+435638857+424749221+413169965
2308+401240969+389362006+377860422+366967582+356814220+347445474+338848633
2298+330928562+323488577+316349566+309494628+303025273+297012379+291474625
2288+286475916+282133959+278482485+275394879+272725320+270465252+268644250
2278+267137990+265733099+264346323+263036815+261866369+260882095+260129731
2268+259530036+258852528+257966877+257033815+256316643+255868897+255513735
2258+255086023+254579459+254043318+253457919+252793157+252102533+251479143
2248+250989285+250671622+250499146+250337991+250061171+249707013+249436478
2238+249348101+249399842+249487391+249525418+249440245+249175766+248790429
2228+248481833+248396572+248467432+248544876+248605454+248697511+248772596
2218+248744199+248660364+248657037+248780412+248992957+249284600+249620590
2208+249861566+249907621+249860158+249911529+250137277+250477352+250835084
2198+251128945+251336455+251544404+251873916+252319303+252742543+253035102
2188+253195835+253281377+253385545+253593213+253858660+254033301+254059269
2178+254004957+253939819+253913482+253956949+253992880+253886599+253648000
2168+253433924+253345670+253353064+253380915+253365353+253260146+253066703
2158+252845461+252659008+252527358+252462044+252481955+252572233+252732015
2148+253067671+253718384+254742762+256200715+258216286+260833400+263961268
2138+267519313+271481127+275789458+280386669+285301772+290601544+296278535
2128+302255374+308522519+315200774+322378692+329936559+337608648+345143981
2118+352360876+359099797+365088784+369891374+373153181+374816072+374951489
2108+373584325+370795915+366828010+362051229+356831402+351310531+345405308
2098+339109714+332606699+326075762+319624752+313361340+307364361+301648990
2088+296220756+291129163+286489700+282438911+279009383+276087932+273525288
2078+271255678+269316635+267737103+266408653+265182698+264077496+263220699
2068+262637905+262231196+261863711+261422109+260912252+260435828+260037041
2058+259717458+259527026+259445533+259325801+259097888+258862968+258751088
2048+258822142+259054333+259367155+259704466+260049663+260363313+260633179
2038+260931952+261316268+261771936+262295630+262916697+263660734+264542108
2028+265525325+266514194+267428999+268236379+268954907+269702641+270564631
2018+271323263+271549944+271066882+270141162+269210302+268574447+268293314
2008+268226626+268153636+267901674+267420443+266802616+266226653+265795984
1998+265476577+265329048+265642645+266482541+267238268+267157074+266279450
1988+265281479+264606806+264250429+264080964+263989788+263909862+263858596
1978+263870339+263928347+264019488+264153848+264383381+264889206+265808694
1968+266825185+267280396+266962856+266401646+266143188+266199788+266395608
1958+266765558+267311997+267761046+267880566+267807717+267872890+268270709
1948+269073282+270459618+272528497+274609241+275311396+274083787+272130643
1938+270949070+270836152+271213232+271603710+271935721+272293629+272694159
1928+273189879+274106286+275680941+277426875+278671966+279677173+280964762
1918+281860959+281316597+279888450+279201734+279983640+281607272+282945669
1908+283375687+283205993+283157791+283508517+283989043+284391210+284938600
1898+285984263+287419346+288612274+289305486+290134344+291457988+292318729
1888+291707961+290190820+288963950+288327074+287949114+287686519+287571031
1878+287531279+287457972+287461845+288181816+290609254+294894453+299046453
1868+299926031+296898933+292642008+289722054+288670687+288733379+289052098
1858+289190772+289142324+289087555+289178748+289608449+290635134+292451223
1848+295321338+299352955+303152134+303757427+300477628+296471485+294442077
1838+294301554+294661751+295061999+296603804+300287530+304891255+307489884
1828+307231127+306100996+305069206+303238187+300660016+298872376+298677454
1818+299374398+300051871+300811066+302387200+304758232+306635024+306824206
1808+305767699+305030686+305878188+308611776+312344972+315256898+316072816
1798+315583927+315980074+318846755+323592833+326839112+325360087+320837662
1788+317558602+317328365+319065796+321238103+323392348+325254704+326236003
1778+326804853+328842342+333832390+340869750+346101091+346217776+342592674
1768+338330274+335179308+334469900+336824172+340465083+342485953+342712986
1758+342906781+343342081+344003956+346672406+352772761+360288729+364720876
1748+364427543+362080348+360603892+361072360+363125869+365430425+366682981
1738+367923108+372113363+379698448+385217875+383330627+377459347+372308531
1728+368836522+367198207+367588790+369466638+372757316+378924429+388922094
1718+399698636+404257961+400149604+392615468+386651058+384213444+385827816
1708+391056974+397798324+403254198+407601349+413857297+422479594+428820256
1698+429773915+426976069+421096480+413839551+409429199+409714187+413387456
1688+419433940+428930921+441054381+447993928+444228198+436561884+432097661
1678+432711685+437241892+442488373+446120834+449651432+454531977+457723822
1668+455960230+452663671+453017390+457273452+461285968+462023157+461842108
1658+465152293+474705433+491002847+508672529+514549971+510071171+509181769
1648+514461453+518794132+515896818+509851743+507053861+509366797+516724285
1638+528550680+541519001+548200037+546216384+543189357+545114702+552078756
1628+561273072+570753715+580969364+591787172+600900682+607999976+616561254
1618+628741121+640874651+647163484+649053127+651548380+655908699+660536120
1608+664078232+666673551+669089652+671586172+673851575+675800652+677882471
1598+680517013+683732730+687368078+691344891+695680423+700104049+703920305
1588+706833921+709512336+712633197+716006936+719318424+723228268+729081414
1578+737206724+744863954+748000308+748406348+751677133+759482244+768629626
1568+775496183+781078707+788436794+799050244+814103023+835765258+861826543
1558+877550070+876415820+870987515+867864964+866776556+866619732+866579733
1548+867061123+869873193+875866757+884000095+892554190+896476499+887278767
1538+869502434+856458236+851396747+849621255+845635569+839496166+835353021
1528+835297812+838195372+842146905+846431171+850041379+850937611+849214158
1518+846786016+843790642+839897488+836812470+836955422+841512282+850076589
1508+859282419+860780739+850754590+838756899+832211245+831437403+834248558
1498+837175976+836561564+832371731+828842365+829382766+833457674+836902677
1488+835652094+830474272+825246171+822433607+821877432+822348962+823704683
1478+826914625+832253708+838462263+842753008+841556576+834914869+828252811
1468+826176556+828724201+832025830+832318072+831502259+834638542+843176230
1458+851593711+850407139+840549997+831809712+827754380+826952793+827366438
1448+827194121+825503414+822911405+820486360+818824314+818845862+821755253
1438+826906386+830310476+828588291+824287829+821452871+820414603+819042545
1428+816696864+815429027+816773692+819792585+823001401+826107474+828172533
1418+826671818+821281962+814809756+809625948+806713952+806124187+807054854
1408+808428743+809229697+808406490+806137707+804643049+805679486+808467474
1398+811305107+813740080+815383395+814823910+812215000+810103817+810031848
1388+810612881+809606583+807439205+806780006+809024494+813337068+818373276
1378+823651234+829155451+834228981+837602790+839027311+839852912+841059836
1368+842197255+842979900+844347451+846812071+849091346+849750827+849276902
1358+848953253+848931986+848583831+847904774+847527395+847465355+846992979
1348+845980203+845252485+845445576+846592502+848778824+851991231+855268635
1338+857169334+857364467+856805194+856397675+856414435+857084689+858935883
1328+862157656+866065036+869734467+872915467+875833871+878529679+881004369
1318+883658911+886937583+890667012+894210040+897172105+899779254+902611747
1308+905795564+908513202+909891950+910533614+912350654+916376902+921241638
1298+924332359+924423553+922569402+920449627+918913984+918123593+917892053
1288+917580587+916462744+914521976+912286572+909869415+907036500+904280342
1278+902725123+902707166+903351436+903739519+903779306+903847613+904291328
1268+905281429+906715245+908368489+910284258+912695077+915393209+917549954
1258+918552801+918847578+919452836+920752502+922310680+923791325+925225141
1248+926246086+926080388+924550661+922372015+920452162+919254956+918561604
1238+917746002+916618160+915781503+915615172+915400533+914202693+912162915
1228+910126870+908427149+906885450+905840491+906237870+908295605+910823462
1218+912384315+912699373+912568815+912965207+914441486+916737310+918841452
1208+920058516+920699617+921260862+921828727+922646230+924244405+926694660
1198+929518561+932244368+934488292+936041681+937371769+939395209+942453327
1188+946013819+949292561+951842812+953757665+955413162+956994226+958192629
1178+958482054+958009326+957847572+959061326+961363699+963134192+963522909
1168+963770223+965463395+968442572+971623361+974859992+978517945+981929428
1158+983855549+984304404+984565802+985347250+986094403+986487416+987598850
1148+990732106+995340091+998824177+998889597+996276462+994668357+996982138
1138+1001818565+1004715351+1003504695+1000656006+999669355+1001573575
1130+1004985833+1007698753+1008459497+1008202747+1008969618+1011512122
1121+1014710375+1017301257+1019269066+1020815694+1021426726+1021141174
1113+1020879072+1020715487+1020235506+1020722247+1023773112+1027841118
1104+1029340566+1027033897+1022627312+1018663386+1017970738+1022418095
1095+1029971104+1035341242+1035442224+1031592659+1026934957+1024721172
1087+1027449444+1034719154+1042479478+1046240948+1044974801+1041155095
1078+1038215564+1038778499+1043285503+1049504832+1054030778+1054638641
1070+1052452461+1050777316+1051331801+1053035184+1054517519+1055764512
1061+1056910734+1058181599+1060913954+1065707496+1070250835+1072063087
1053+1071900629+1071545995+1071004890+1070347733+1070964258+1072908406
1044+1073741823+1071190164+1065473632+1059116280+1055626207+1057424023
1035+1062863595+1066194800+1063289564+1056581944+1052027971+1052598934
1027+1056690109+1060990430+1063469486+1063673844+1061999052+1059367748
1018+1057199807+1056955028+1058725802+1060951066+1061979827+1061400343
1010+1059930825+1058650805+1058717281+1060644881+1063323788+1064867247
1001+1064416772+1062843596+1061542310+1060611150+1058940723+1056289420
993+1054094931+1053391930+1053094407+1051567144+1048960910+1046790856
984+1046343972+1047841025+1049970940+1050681968+1048705991+1045109092
975+1042715877+1042807705+1043282122+1040814826+1035048014+1029208036
967+1026252590+1025950912+1025542478+1022873781+1018604233+1015164582
958+1014169058+1014728261+1014149622+1010820248+1005724817+1000529250+995800072
948+991895651+989768412+989398919+988735284+985911453+981680354+978380908
938+977353555+978263307+980025279+981493460+981892669+981347269+980430967
928+979176792+977207575+974604791+972250096+971489422+973236958+976586332
918+978548155+976799211+972629940+969318523+968195680+968114346+968074277
908+968323281+968953538+969364155+969075082+967814146+965651627+963843248
898+964024509+965698104+966297658+964713214+962907159+963063702+964814548
888+966184563+966494199+966681375+966733908+965030173+961298420+958131223
878+957710817+958976259+959284768+957746027+955888636+955644773+957344775
868+959304556+959051538+955369009+949708249+945272369+943981787+944899074
858+946073746+946787802+947422284+948308657+949348334+949994364+949767965
848+949147778+948958138+949276576+949890425+950701308+951147628+950411108
838+948865958+948100848+948860043+950039362+950287381+949721910+949258760
828+949257492+949741557+950864541+952374199+953656120+954706993+955770965
818+956565299+957257877+958674793+960684712+962124655+962669140+963099194
808+963844305+964569065+964921727+964766310+963703254+961234268+958031579
798+956342984+957906795+961785725+965154464+966193577+965385229+964130138
788+963417984+963847685+965544237+967399233+967593944+966097525+965232630
778+966592012+968980931+970261866+969817095+968293564+966376880+964716594
768+963697832+963127643+962771883+962799628+963525655+964916938+966574970
758+968229412+969964554+971813142+973546594+974843232+975081462+973171468
748+968906356+964521320+963154825+965237418+967877031+968796290+968972480
738+969865121+971116057+972421498+974254523+975638482+974682041+972305939
728+972172564+975920795+980564201+982036748+979927607+976666610+973713489
718+971025920+969392112+969899627+971271403+971175702+970097999+970465801
708+971955953+971471043+968264269+965061932+963413477+961993041+959836296
698+958244739+958753522+961085119+963720366+965112353+963803673+958763803
688+950579130+941669907+934823068+931802484+932678153+934882573+934692650
678+931691221+929533701+931201240+935822112+939806249+939347254+932998070
668+925008882+922834532+924792059+923152477+915709534+906497719+901392218
658+903155669+909483233+914617043+914561200+911139857+908903538+909862232
648+911357314+909294649+904501319+901904874+902986662+904419562+904426252
638+904915176+905234178+900768792+891121642+882148549+877520565+875713735
628+874982074+876408144+880860361+885151739+885245961+881980387+879390772
618+880307144+885971495+894425242+897719266+889165382+874106475+863905474
608+863474857+869265471+874867994+877761470+879648085+881821942+882873802
##END=
