##TITLE=<SNM>
##JCAMP-DX=4.24
##DATA TYPE=INFRARED SPECTRUM
##DATE=2/5/2025
##SAMPLING PROCEDURE=Instrument type and / or accessory
##ORIGIN=Admin
##XUNITS=1/CM
##YUNITS=ABSORBANCE
##RESOLUTION=4
##FIRSTX=4497.3318
##LASTX=599.83466
##DELTAX=-1.4281778
##MAXY=1.8756907
##MINY=0.40448743
##XFACTOR=1
##YFACTOR=1.7468731e-09
##NPOINTS=2730
##FIRSTY=0.43005428
##XYDATA=(X++(Y..Y))
4497+246185186+245458141+244792701+244266780+243435445+242203498+241285820
4487+241397548+242663428+244873635+247454240+249182610+248993496+247304381
4477+245778995+245533804+246068595+246358844+246399396+246738915+247152066
4467+246934887+246033741+244976714+244225068+244132157+244736555+245324046
4457+245080270+244204134+243574589+243548606+243849790+244299297+245004863
4447+245863700+246337876+246007229+245034822+243854465+242773741+242199011
4437+242763982+244617644+246724362+247448081+246161165+243970765+242493968
4427+242305433+242881614+243485500+243618349+243043397+241874522+240487530
4417+239270545+238541111+238383815+238483584+238541845+238681348+239034344
4407+239426989+239847800+240598644+241557353+241933073+241188371+239802897
4397+238914427+239273394+240456463+241329272+241471965+241554538+242062818
4387+242381813+241666590+240122353+238769720+238289317+238592327+239121232
4377+239254781+238796983+238217118+238055402+238193097+238185027+238117519
4367+238437299+239043164+239191009+238421654+237270693+236797745+237435940
4357+238435832+238628204+237727587+236576011+236072303+236201621+236365503
4347+236346668+236495708+237073236+237864667+238422064+238287918+237217703
4337+235506939+233845292+232756004+232475071+233073651+234177287+234958226
4327+234957271+234529328+234124810+233732864+233349586+233328158+233858480
4317+234579110+234986547+234908751+234542567+234306178+234609171+235520622
4307+236634733+237396684+237579639+237379214+237036266+236483100+235525535
4297+234293861+233299360+233043335+233652373+234857758+236186864+237133459
4287+237363382+236901046+235990089+234823449+233616751+232818240+232839770
4277+233629461+234779621+235824297+236386146+236416804+236211687+235871878
4267+235160528+234231727+233831866+234276203+234803182+234535419+233723908
4257+233384201+233901916+234656872+234955787+234705391+234150673+233481531
4247+232779445+232212238+232218397+233152180+234657725+235917600+236559855
4237+236701951+236308436+235284370+234025518+233309869+233640516+234788868
4227+236011603+236818678+237287600+237460012+237054998+236048419+234911907
4217+234124844+233969253+234598389+235752694+236667506+236681803+235806554
4207+234664719+234040224+234308362+235127926+235825133+236122137+236307344
4197+236654984+236945983+236793719+236216293+235606043+235330689+235485989
4187+235772535+235659869+234965835+234050921+233311968+232929525+233064029
4177+233755828+234715082+235614215+236358730+236891901+237112935+237005847
4167+236607999+235997749+235400329+235109074+235323199+236039906+236888387
4157+237256396+236868068+236065923+235452193+235410412+235830848+236178504
4147+236003516+235378628+234649212+233975685+233393516+233088255+233294464
4137+233975395+234765666+235280360+235439875+235394409+235259120+235104741
4127+235020019+234979108+234818126+234507286+234279803+234295465+234312696
4117+234000866+233565775+233630536+234350484+235072821+235134443+234654313
4107+234228622+234145453+234243584+234365753+234556488+234792758+234862210
4097+234602074+234015435+233179153+232324666+231839503+231845952+232060333
4087+232381375+233114306+234252779+235164401+235330569+234866066+234175496
4077+233588516+233300947+233272968+233271245+233166170+233014878+232894449
4067+232821942+232733570+232508458+232149712+231827544+231637969+231549408
4057+231667227+232234076+233247496+234333304+235042300+235146112+234756027
4047+234285262+234162940+234427836+234651208+234397230+233631167+232621739
4037+231837712+231872020+232887369+234191908+234912829+234945346+234741713
4027+234537432+234275043+233965551+233709202+233500144+233261503+233103507
4017+233378179+234199756+235017068+235113783+234574146+234257625+234646107
4007+235171464+235066082+234589347+234757204+235872407+236997556+237134977
3997+236339520+235314498+234533047+234157992+234273900+234766962+235345395
3987+235945340+236726961+237507986+237700290+237065951+236190429+235958306
3977+236668581+237765256+238441035+238377656+237735520+236776590+235988656
3967+236109358+237309028+238737118+239492825+239645396+239793463+240082329
3957+240188052+239976623+239781162+240121176+241230817+242592270+243087515
3947+242378520+241761600+242426989+243500923+243241502+241756976+240693415
3937+240904196+242148103+244062243+246058376+246945618+246074225+244567145
3927+244190162+245235417+246241554+246034031+245405629+245858633+247441734
3917+248524028+247514855+244619708+241552712+239797540+239783175+241601386
3907+245645225+251795936+258309181+262644599+263689206+261751352+257379083
3897+252112458+248643263+248706250+251194234+252616916+251293372+250319309
3887+252726563+256805973+258665043+258354920+258380322+257940847+255256822
3878+252628363+253423838+257642103+263027588+267592588+269219824+266714234
3868+263312922+263068601+264961553+264576534+260703810+256701206+255750669
3858+259192431+267581771+279005778+284782970+277942797+266071740+257216856
3848+253283482+253899430+257762344+262988929+268289862+273300343+277063829
3838+277717924+275202490+271857785+269159652+266706215+264217856+262519188
3828+262050659+262541350+264934682+270768787+277915057+280567571+278213665
3818+275845189+274058984+269665424+263420676+259471027+260242873+265416979
3808+271947813+276093844+278228797+281168950+284203770+284343528+282401016
3798+280772961+278668051+274951583+271517465+270930298+273440494+277568646
3788+282075470+286473671+290407488+294174898+299209451+306094475+312863250
3778+317536327+321549714+327986357+338334332+351774433+365627497+377073410
3768+385696068+392351016+396836463+399506720+402142208+405128116+406482813
3758+405414116+404789297+408608025+418804128+432655077+442416413+444511462
3748+445575894+451585618+460400069+465175031+465782142+468628018+477438614
3738+492087579+509115547+522177965+527528407+528849495+532247241+539784791
3728+549362660+557681916+563251858+567195058+570578814+573143399+575286866
3718+578361078+583012080+589160368+595962274+599927858+596828123+588052672
3708+579063830+573789783+572906465+574220797+574675899+573300696+571244374
3698+569597160+569530795+572644008+579339594+587705186+594009475+594513234
3688+589477077+583602096+580551563+580915017+583593225+587401443+592431321
3678+599188461+605259841+606465055+604458004+603299740+601471277+594843932
3668+584600128+575490225+569703890+567069357+566815908+568596603+572206989
3658+575805024+576035885+573060554+572333748+577946511+587334907+591466659
3648+585151247+574640755+566863029+563103979+561803636+561510948+561990516
3638+563430037+565269623+566813213+568910411+573611877+580819616+584676286
3628+578749782+568023681+561755253+563058427+569775032+577144537+580835994
3618+580659180+579997647+581045154+583235502+585318985+586834288+587276220
3608+585900812+583381335+581992756+583427466+586886492+589656894+590598354
3598+591801998+595147471+599022771+600421927+599542498+599198151+600830966
3588+602637524+602011067+599758005+598238744+597375898+595381676+592015184
3578+589303130+588951822+590534889+592663070+595124678+598953232+604290129
3568+608686931+608664821+603788349+597197446+592285626+590424816+590764113
3558+591761531+592597080+592774030+591881568+590423519+589872128+591156706
3548+593305700+594073895+592502020+590115477+588449223+587338115+586429684
3538+586052035+585666266+583953608+581777863+582144389+585709599+588755014
3528+587641312+583459812+579667767+577715172+576973728+576545035+575613879
3518+573499279+570611809+568598036+568865884+571176235+573789169+575061464
3508+574923957+574315720+573576324+572232307+569898139+566777011+563546252
3498+561105491+560319656+561329938+563157378+564418242+564459699+563763055
3488+563269021+563351491+563463987+562647784+560485995+557651549+555124838
3478+553112293+551375409+550140681+549805411+550059986+550061078+549319599
3468+547960228+546396303+545238244+545134858+546174654+547608852+548231181
3458+547289448+545342927+543555408+542176076+540765933+539651105+539696827
3448+540837177+542122609+542804581+542353026+540362523+537488156+535098065
3438+533499609+531873653+529812588+527799053+526581693+526765842+528349728
3428+530223061+530746200+529290438+526870388+524768038+523019724+521093982
3418+519384532+518607431+518335455+517651197+516649241+515978597+515697885
3408+515639130+516068949+517129388+518188531+518369814+517548664+516412647
3398+515470675+514472984+513033975+511292417+509514725+507815375+506815398
3388+507576188+510103513+512528066+512638004+510251904+507271490+505484722
3378+505258706+505960263+506708634+506889883+506653836+506829626+507912892
3368+509433757+510557558+510759758+509820686+507981202+506235959+505535835
3358+505607830+505481310+504995362+504631225+504255487+503498450+502862507
3348+503002163+503619715+504221128+505070325+506410282+507647091+508031564
3338+507383781+505926210+504055505+502308864+500962697+499783961+498665073
3328+498108939+498534766+499507208+500068938+499527680+497872516+495852942
3318+494520867+494299253+494732791+495299674+495895900+496399727+496468446
3308+495975436+495160086+494383463+494025400+494393085+495403094+496364924
3298+496436816+495598845+494846652+494975322+495512519+495399068+494512815
3288+493726980+493527612+493478580+493094346+492493377+492155275+492482288
3278+493415150+494265473+494323001+493708861+493093528+492737341+492511461
3268+492503887+492947184+493855137+494995862+495847790+495669713+494239712
3258+492385010+491196379+490789386+490248061+488878897+487164908+486232831
3248+486591168+487627927+488394689+488625891+488703925+488833516+488607091
3238+487497961+485669702+484025866+483330724+483556365+484137987+484405221
3228+483785451+482170652+480088739+478164533+476631692+475545082+474993315
3218+474878021+474787021+474243102+473157823+472040948+471484643+471454480
3208+471364606+470689390+469281704+467495482+466204591+466124476+466928190
3198+467500225+467061022+465685819+463925665+462331850+461253975+460829411
3188+460943340+461121655+460731109+459521732+457913109+456616383+455991632
3178+455780220+455428878+454708214+453908867+453276609+452473167+451027846
3168+449223915+447910812+447362559+446930863+446025776+444886859+444103037
3158+443758451+443300073+442184017+440592215+439368371+439123452+439524371
3148+439619773+438772213+437169424+435531833+434433929+433855104+433326232
3138+432501738+431517729+430755369+430365642+430092642+429500407+428412910
3128+427193707+426421520+426187759+426025481+425718735+425657625+426009478
3118+426067176+424924574+422600029+420200111+419033010+419548677+420943943
3108+421825692+421445826+420197552+418847802+417659172+416528034+415571527
3098+415007374+414667429+414188134+413551373+413028779+412817367+412992406
3088+413487157+413969216+414054654+413673935+413070338+412515330+411982159
3078+411108326+409723228+408276541+407332522+406899530+406727152+406858687
3068+407325528+407645000+407203853+406026482+404797077+404132848+404046079
3058+404154446+404171438+403926861+403136044+401657898+399882595+398375276
3048+397300881+396639928+396597516+397180367+397706884+397424842+396438649
3038+395469927+394890181+394428936+393670875+392506436+391137784+389842219
3028+388811396+388174157+387997172+388118915+388118506+387643852+386723751
3018+385668703+384787193+384263542+384110408+384076117+383765106+383038641
3008+382166787+381434965+380797964+380066278+379183950+378192127+377194402
2998+376467050+376277065+376463092+376509428+376158291+375646104+375237917
2988+374883334+374468733+374075150+373817368+373610698+373206777+372443768
2978+371477058+370726948+370502296+370679895+370773284+370280648+369062503
2968+367498850+366222120+365628691+365621219+365733578+365486237+364747318
2958+363772863+362877909+362225793+361885848+361810066+361819620+361842822
2948+361973163+362098148+361794814+360823293+359446862+358115333+357072091
2938+356325904+355795872+355398979+355112774+355016929+355165115+355348753
2928+355146042+354344989+353179628+352053302+351151831+350368862+349547234
2918+348792721+348479459+348808110+349406793+349561599+348927430+347922028
2908+347277589+347214363+347264691+346954636+346317669+345630648+345074275
2898+344750503+344612075+344374355+343857972+343252158+342740994+342198645
2888+341513398+340828969+340290236+339908562+339710456+339665554+339530572
2878+339091233+338453755+337857699+337353428+336860247+336417086+336184007
2868+336196905+336239999+336043771+335562088+334954773+334348276+333741916
2858+333140435+332661004+332471463+332630637+332962837+333086285+332658479
2848+331716337+330735604+330180391+330010776+329841742+329540217+329343613
2838+329376471+329418849+329221324+328751754+328105985+327425036+326875112
2828+326493471+326114117+325621618+325155562+324863693+324608879+324171110
2818+323620640+323245072+323165366+323195324+323039563+322558153+321884370
2808+321270674+320814787+320443826+320133770+319926214+319724321+319313200
2798+318644570+317956729+317545267+317453755+317427346+317173043+316627179
2788+315957355+315376449+314985084+314705362+314336073+313752778+313047707
2778+312415790+311967375+311704270+311548713+311285506+310649017+309667465
2768+308783055+308409910+308461535+308479039+308141243+307491379+306753586
2758+306099286+305591705+305241661+305019705+304822112+304539285+304172418
2748+303795077+303427869+303037357+302586792+302029975+301362266+300674289
2738+300040018+299425537+298817028+298319649+298035014+297924019+297810260
2728+297488911+296913021+296301679+295955422+295929080+295963713+295757419
2718+295250043+294598609+293884632+293011653+291984106+291096591+290670149
2708+290699016+290881562+290938134+290801787+290525989+290137149+289671059
2698+289244481+288930093+288645014+288309231+287993580+287771693+287574031
2688+287293593+286877865+286283447+285550039+284925731+284663888+284670985
2678+284602249+284318279+283999625+283786353+283565234+283194205+282734359
2668+282363006+282161932+282044881+281866327+281589488+281312598+281109869
2658+280915159+280615084+280197054+279751556+279377046+279131718+279034883
2648+279042424+279026439+278876051+278645156+278491459+278438879+278328515
2638+278009350+277436343+276666357+275941154+275616409+275788839+276143439
2628+276310989+276211100+275995082+275826133+275712801+275463105+274896530
2618+274129699+273510851+273279001+273381192+273549169+273509503+273210060
2608+272851194+272644184+272585394+272499563+272268719+271985551+271855312
2598+271945203+272102602+272138668+272009981+271819075+271715485+271781645
2588+271956923+272085917+272066417+271943326+271840503+271801537+271754604
2578+271659220+271560525+271429246+271126390+270651821+270274701+270276100
2568+270635750+271055060+271261269+271238357+271169433+271221382+271412765
2558+271632725+271760200+271782020+271764619+271718914+271597751+271420596
2548+271262805+271113714+270863489+270442763+269897206+269326844+268818035
2538+268440847+268232830+268136660+268035339+267903991+267822323+267772029
2528+267571740+267126942+266637257+266411071+266505091+266675746+266694154
2518+266579371+266472471+266401517+266265034+266006143+265729645+265607100
2508+265675257+265805581+265885799+265919937+265912515+265790346+265514224
2498+265191219+265004545+265034861+265194103+265334680+265361038+265242827
2488+265032950+264878537+264902984+265063403+265172675+265051085+264673744
2478+264205829+263843807+263620146+263432499+263206278+262938976+262675564
2468+262526268+262601539+262853333+263067151+263054952+262798177+262403075
2458+262004186+261730384+261640749+261625378+261487718+261196684+260926056
2448+260811086+260805370+260776811+260628966+260365213+260098474+259944606
2438+259906920+259908967+259875784+259756225+259554862+259350990+259226227
2428+259197702+259233478+259273433+259254804+259175848+259103990+259087254
2418+259108408+259136712+259171549+259227439+259298870+259332855+259246973
2408+259019899+258768071+258676115+258815226+259056374+259195280+259187381
2398+259261645+259760593+260880129+262671793+265333503+269392048+275575516
2388+284628403+297241058+313931980+334805597+359410933+386913770+416429698
2378+447146950+478201076+508641677+537600959+564344814+588065365+607756185
2368+622367310+631486494+636312057+638843477+639551687+637376898+631695654
2358+621950286+606616483+584876779+558265518+531264290+510242044+500091526
2348+502529795+516161587+535532115+552080720+560652845+562548185+561160528
2338+559264062+558700046+559839270+561688922+563035635+563302800+562353390
2328+560064876+556372566+551292974+544855955+537382279+529373044+520725580
2318+510888632+500124316+489636378+480166910+471180115+461576928+450711171
2308+438588405+425613370+412508301+400198519+389318874+379721488+370675937
2298+361635299+352644785+344025744+335954682+328425662+321407533+314921244
2288+309015417+303701654+298922461+294607856+290749514+287392202+284560588
2278+282217071+280287098+278676786+277232539+275764732+274207205+272680249
2268+271312297+270107612+269052154+268202991+267590404+267118377+266601942
2258+265897246+265043494+264260422+263722150+263340424+262844922+262097660
2248+261283266+260722884+260508827+260426528+260232807+259872611+259428427
2238+259010004+258704811+258532876+258438447+258342141+258181757+257929451
2228+257612571+257306474+257096512+257041355+257123092+257218493+257176661
2218+256959534+256674455+256452295+256331609+256281298+256280343+256305200
2208+256293309+256205926+256087492+256000143+255943247+255879919+255808640
2198+255765887+255764812+255781514+255825530+255947683+256126834+256249993
2188+256262378+256220649+256156331+256006456+255727979+255404582+255196616
2178+255191532+255330438+255501980+255651105+255757988+255803932+255802686
2168+255776925+255702559+255561691+255400300+255270215+255186380+255167358
2158+255222139+255290397+255271563+255111621+254835943+254533172+254318723
2148+254266791+254363251+254542965+254765006+255024324+255303960+255569983
2138+255820566+256093174+256419129+256828084+257384286+258118104+258926818
2128+259684810+260469144+261509452+262893664+264495258+266181285+267890615
2118+269532302+271009919+272314424+273451788+274322687+274762913+274693733
2108+274217850+273528423+272692243+271632145+270358894+269036408+267773905
2098+266546889+265341624+264230669+263329113+262729509+262384787+262066832
2088+261577967+260973211+260460478+260156513+260034651+260030283+260091086
2078+260153323+260156308+260108454+260092076+260154142+260239188+260312155
2068+260469520+260774781+261068134+261149393+261068646+261011221+261028128
2058+261084393+261201154+261378395+261556931+261733541+261941814+262144593
2048+262311888+262530806+262915211+263447102+263932760+264130917+264002196
2038+263778364+263688541+263733324+263811990+263913960+264092207+264356898
2028+264660966+264960427+265258215+265567281+265897826+266344501+267024511
2018+267777283+268154130+267938436+267462434+267213113+267340828+267654005
2008+267910764+268033053+268124769+268333452+268694893+269088476+269302208
1998+269235059+269158952+269596381+270677105+271788230+272185157+271797665
1988+271105133+270533115+270268764+270310869+270481098+270593441+270641875
1978+270699846+270776652+270879850+271052382+271351621+271922768+272866805
1968+273832610+274135841+273629387+272981962+272783789+272938458+273152703
1958+273461444+273981155+274578712+275032654+275276311+275420130+275691850
1948+276367834+277696514+279681506+281636489+282281559+281082761+279129500
1938+277875528+277683155+277996128+278268412+278384712+278501712+278760007
1928+279250902+280209968+281754172+283334612+284272728+284863717+285696314
1918+286154010+285201103+283381988+282301759+282660880+283826292+284713790
1908+284747552+284191981+283639702+283326866+283151844+283141710+283566360
1898+284585411+285847674+286673516+287020319+287746273+289165867+290125753
1888+289584495+288239045+287336312+287128346+287247223+287480165+287737811
1878+287942092+288149614+288579229+289755406+292500899+296962223+301280240
1868+302412537+299727438+295891411+293455188+292877149+293311301+293880333
1858+294212499+294383103+294607549+294996219+295674335+296899236+298893390
1848+301861760+305824068+309501536+310237111+307391200+303813945+302011141
1838+301963201+302378314+302763640+304206437+307862681+312697696+315712641
1828+315710320+314484054+313179242+311226306+308785068+307189581+307043953
1818+307682728+308335458+309123682+310720193+313125331+315131496+315516992
1808+314562361+313723400+314341157+316907652+320649165+323664382+324520029
1798+323989007+324361265+327244401+331944161+335023321+333415448+328960232
1788+325825114+325604045+327159304+329053996+330928318+332574781+333500307
1778+334167641+336260984+341108384+347940999+353223507+353655476+350247665
1768+345942068+342617443+341716621+343860121+347290179+349191423+349440982
1758+349779699+350436421+351282752+353968876+359919605+367279966+371722080
1748+371561678+369270332+367644034+367800751+369562235+371757326+373033170
1738+374204161+378145484+385492674+391036002+389281034+383304339+377894458
1728+374297378+372694863+373009047+374521313+377333683+383203785+393185644
1718+404103640+408733453+404582355+397040267+391107348+388576543+389797452
1708+394260107+399964143+404429971+408129856+414033021+422307546+428111726
1698+428495653+425355724+419497394+412588280+408647707+409325516+413185973
1688+419205013+428584947+440580989+447265963+443066004+434991735+430234959
1678+430623356+434952871+439995647+443373262+446596343+451149145+453911801
1668+451476431+447312982+446731632+450084475+453440218+453918864+453578612
1658+456350037+464808711+479626881+495913848+501159710+496579748+495458096
1648+500307476+504309739+501507333+495965848+493792867+496512633+503820755
1638+515253838+527974809+534941962+533449486+530683896+532698079+539797893
1628+549272206+559043881+569405128+580430093+590263288+598528702+608129125
1618+620992107+633816464+641132229+644172048+647827542+653647794+660308645
1608+666265925+671010622+674729717+677665536+679984383+682000511+684140019
1598+686655948+689613741+692954573+696448266+699806705+702787836+705252379
1588+707380013+709527642+711683119+713590060+715462130+718190768+722997019
1578+730471991+738504633+742854553+744254050+748165381+756825982+766930846
1568+773923556+778570189+784754100+794570439+808978887+829556916+854148842
1558+868989600+867695468+862456429+860156417+860346811+861044990+861067646
1548+861307447+863923963+869495543+876493575+883103723+885634869+878182553
1538+864555402+854930890+851307743+848989032+843524114+836656901+833010005
1528+833925738+837597883+842403793+848252842+853703634+855494906+853872873
1518+851867664+849445909+845301123+840810967+838758672+841197692+849408171
1508+861756067+868319468+859873078+845937407+837474161+835817871+837938818
1498+839506599+837489720+833324326+831366203+833912841+839175764+842087220
1488+838913170+831704340+824917447+820914672+819558713+819637532+820675690
1478+823501981+828936600+836270654+842271609+841951761+834548237+826220860
1468+822501765+823880517+826716225+826970630+825688235+827514037+834627193
1458+843232108+844381364+836327704+827495748+822732012+821739644+822579083
1448+822877571+821251922+818426176+815676793+813367500+811999872+812958256
1438+816585429+819829563+818876298+815194189+812771547+812411095+812216129
1428+811245325+810735493+811673814+813752655+816778348+820716635+823545315
1418+821939660+816493372+811328170+808630514+807702020+807063962+806393625
1408+806545872+807602934+807891186+806362166+804848637+805611577+808361302
1398+811220212+813025474+813038917+810541141+806907211+805201446+806563683
1388+808749391+808584929+806349814+805599976+808313669+813046970+817590354
1378+821648814+826015590+830303205+833051632+833970300+834494941+835801084
1368+837794555+840066589+842469714+844276067+844188377+842247861+840300589
1358+839763801+840253297+840401928+839580163+838706467+839007958+840317990
1348+841341340+841466905+841545041+842894859+846021276+849983720+852798547
1338+853108910+851518472+849746172+849053452+849678817+851072787+852579424
1328+854072139+855875626+858329864+861679295+865951010+870470032+873969185
1318+875914819+877361198+879711777+883059297+886262623+888239648+888970856
1308+889610143+891713347+895875944+900994741+905221553+907646515+908815697
1298+909711095+910598439+910918697+910116313+908314122+906074640+903849215
1288+901932243+900705465+900566866+901419749+902348107+902195041+900596210
1278+898312030+896618411+896456815+897855835+899887522+901370410+901898463
1268+902183781+903225351+905161432+907155722+908398742+908879094+909174307
1258+909920528+911397547+913321071+915281855+917386424+919776856+921824580
1248+922813946+923043237+923367453+924086923+924758147+924655034+923345615
1238+921173624+919090756+917801332+917219369+916902796+916741200+916825479
1228+916811830+916123137+914946585+914311188+914850023+915984538+916580491
1218+916132008+915151855+914666590+915431509+917486534+920152526+922434182
1208+923867731+924987848+926521644+928234507+929199510+929210634+929305557
1198+930584404+933067781+936111899+939185225+941700403+943020672+943554457
1188+944875886+947665668+950534746+952135624+953281741+955274325+957504390
1178+958520438+958339325+958132963+958782622+960589590+963265886+965967977
1168+968192173+970183120+971871074+972581878+972406770+972674414+974367827
1158+976797840+978366917+978235484+977244412+977009934+977956922+978921994
1148+979076766+979620992+982418553+987010662+990689085+991743826+991177626
1138+991233926+993381009+997236928+1000709330+1002258413+1002843516+1003923028
1128+1005079517+1005309969+1004932593+1004951360+1005775786+1006894742
1120+1007448249+1007524611+1008091971+1009109657+1009511600+1009155993
1111+1008558812+1007474181+1006217923+1006912075+1011168709+1017425979
1103+1022086535+1023501796+1023834405+1026105346+1030350174+1033250234
1094+1031756564+1027416880+1024875771+1026389777+1030288347+1034264304
1085+1037784884+1040867422+1042864647+1043450637+1043572653+1044713856
1077+1047210472+1049091072+1047623129+1042665040+1037053608+1034111784
1068+1035712184+1040848724+1045712912+1047216477+1046317464+1046764036
1060+1050356338+1054179706+1053956420+1049948254+1046546073+1046454765
1051+1049041870+1053284241+1058718587+1064033920+1067801261+1070384613
1043+1072597686+1073741823+1072547937+1069034659+1064171358+1058454902
1034+1052754619+1049311902+1049914065+1053417312+1056698433+1058077390
1025+1057723557+1055492332+1051308239+1046721249+1043624175+1042418279
1017+1042591135+1043605477+1045083793+1047480777+1051942817+1058451763
1008+1064080870+1064858209+1060682783+1055948322+1053972730+1053822257
1000+1053193616+1052112125+1052438387+1054484541+1056003052+1055027744
991+1052182140+1049557367+1048606148+1049391130+1050519231+1049740595
983+1045753925+1039596287+1033617169+1029449045+1027281830+1026455084
974+1026483746+1027701311+1030578237+1034218991+1036074001+1034419417
965+1030682783+1027292408+1024519345+1021528592+1018829844+1017501659
957+1016957024+1015287836+1011669738+1006847110+1001247483+994671320+988112763
947+983623426+981645308+980283412+978122135+976264396+976221403+977698628
937+979630204+981360605+982245083+982060490+981797896+982269582+982191582
927+979453049+974485134+970471441+969638211+970920333+971559688+970383682
917+968653418+968193334+969764390+972850954+975827036+976560291+974316646
907+971114412+969743372+970703121+972203342+972713857+972089857+970474580
897+968111376+965722513+963971230+963180174+963535713+964710286+965770418
887+966302702+966634697+966628692+965686003+964033808+962393759+960593275
877+958456223+957249099+958297084+960835396+962873565+963365723+962048730
867+958726323+954265033+950694568+949223417+949560530+951297618+954161920
857+956807508+957017691+954144723+950363528+948308298+948527831+949976189
847+951535781+952198134+951310721+949602499+948545165+948250361+947637279
837+946588202+945999619+946163740+946672003+947598791+949534053+952349493
827+954639884+954476240+951327235+947617694+946891331+949993591+953968114
817+955291044+953807474+952306296+953066302+956012562+959618513+962386798
807+963100605+961256309+958075981+955571653+954208256+953008775+952057351
797+952599667+954641931+956703235+957983377+958732123+959146213+959599473
787+960518891+960982797+959365132+956240284+954255752+954780120+957008274
777+959805563+962304909+963777834+964621913+966083306+968060672+968871450
767+967913202+966340303+965068418+964214921+963728017+963197917+962262258
757+962007717+964124091+968085785+970869971+970164490+967111296+965109499
747+966474807+970040154+971958901+970179503+966372718+963205492+962043612
737+963584164+968334798+975349754+981718532+983858927+979755769+970923404
727+962128573+957916432+959179105+963445634+967422273+968620184+965567673
717+958979294+952747956+950967466+953857563+958124842+960828094+961481916
707+961171826+961471407+963018169+964622459+964306501+960741359+954478834
697+948604262+946533745+947783999+947952623+943295890+934341987+925134294
687+919643785+918971333+921671855+926021980+930942740+935296822+938140310
677+939458054+938859713+936161920+932924542+929985516+925528867+918791653
667+914445965+914832962+916386481+917149148+917759569+918384797+918455018
657+918341805+918258892+917139867+914658742+912450173+912306183+914489571
647+917276214+917485169+913769486+908651986+904157326+899368204+894486205
637+891680591+891027997+890211214+889586873+891665032+894697549+894166630
627+890463503+887839275+885887636+880624986+874140061+873460308+879447342
617+883590012+880009515+874385117+873367840+876616683+880906004+883598883
607+883317523+880564455+877412652+875980194+876390326+877875876
##END=
