##TITLE=<SNM>
##JCAMP-DX=4.24
##DATA TYPE=INFRARED SPECTRUM
##DATE=2/5/2025
##SAMPLING PROCEDURE=Instrument type and / or accessory
##ORIGIN=Admin
##XUNITS=1/CM
##YUNITS=ABSORBANCE
##RESOLUTION=4
##FIRSTX=4497.3318
##LASTX=599.83466
##DELTAX=-1.4281778
##MAXY=1.848334
##MINY=0.39486763
##XFACTOR=1
##YFACTOR=1.7213951e-09
##NPOINTS=2730
##FIRSTY=0.40970728
##XYDATA=(X++(Y..Y))
4497+238008850+238138732+239323210+240725797+241163345+240494375+239851201
4487+240149035+241085922+242057833+243134764+244384754+245038593+244339897
4477+242872595+242110724+242635114+243452940+243387671+242591174+242040416
4467+242027570+242028089+241816786+241720716+241734290+241414503+240848874
4457+240853341+241930254+243575602+244775974+244922389+244227017+243308499
4447+242366799+241113172+239605099+238472818+238143146+238548528+239564760
4437+240864023+241494610+240790408+239541716+239218692+240326700+242125024
4427+243498646+243683427+242643805+241100309+239883836+239233097+238949581
4417+238919941+239059847+239149423+239220926+239682522+240500902+240797974
4407+239952257+238549220+237648569+237684493+238397542+239156366+239197830
4397+238281251+237126759+236646620+236950202+237476063+237788873+237906981
4387+238016087+238067264+237725888+236854202+235897872+235466799+235587487
4377+235740187+235661794+235647216+235945950+236390805+236758825+237015679
4367+237045094+236547417+235408454+233957808+232776809+232182146+231806716
4357+231180076+230840085+231964280+234562131+236941874+237598535+236833738
4347+235917540+235462713+235171095+234713117+234289453+234204828+234355502
4337+234501207+234665143+234919764+235013253+234490404+233237280+231864558
4327+231297145+231720567+232225861+231941410+231157015+230834701+231369479
4317+232286421+232918099+232999972+232672880+232174459+231660855+231291103
4307+231305906+231748060+232096637+231686062+230731049+230295352+230915466
4297+231943695+232570197+232790001+233037714+233575331+234473178+235607985
4287+236457477+236349843+235143446+233467662+232169230+231594598+231477148
4277+231408952+231240792+231038699+230861397+230738857+230799313+231298132
4267+232397864+233823875+234840038+234798677+233821243+232774177+232492237
4257+233166626+234431073+235646905+236081822+235477689+234583080+234430588
4247+235026342+235352205+234732888+233702616+233253138+233611654+234142865
4237+234243643+233993039+233869789+234054015+234164160+233714579+232803921
4227+232216737+232678524+234026453+235240900+235451183+234848157+234294751
4217+234177733+234221067+234348490+234916214+235805941+236035320+234893223
4207+233143305+232380673+233165812+234451121+235076064+235082903+235108197
4197+235318168+235450784+235266662+234711264+234089697+233932029+234336665
4187+234787008+234886661+234892201+235170402+235439947+235075337+234168661
4177+233695517+234312185+235484770+236098390+235548204+234175240+232979976
4167+232818654+233567471+234219492+234035023+233357795+233085411+233607291
4157+234461266+234954666+234955896+234926827+235255374+235832828+236318177
4147+236527092+236453270+236118577+235592767+235156794+235309459+236357495
4137+237818028+238544650+237924086+236642015+235747579+235458298+235403780
4127+235440431+235588612+235606912+235274851+234820266+234635815+234785606
4117+235020698+235144364+235185845+235263130+235444950+235767524+236181510
4107+236472695+236541981+236765750+237615986+238820219+239462735+239127142
4097+238382480+237863318+237372342+236348544+234918569+233934314+233962915
4087+234641113+235250111+235592490+235836879+235855421+235432017+234905515
4077+234875754+235353330+235775211+235806668+235652047+235538318+235286000
4067+234640732+233820551+233377964+233585026+234233913+234931640+235307330
4057+235172982+234745198+234470061+234539901+234795474+235028419+235195021
4047+235440726+235894150+236315304+236271294+235865515+235709629+235955195
4037+236094079+235975278+236179969+237013221+237894810+238152253+237841417
4027+237485412+237459045+237799866+238296919+238637949+238626436+238337587
4017+238039546+237924692+237926251+237884959+237882605+238179382+238773682
4007+239273609+239286126+238821240+238359748+238524376+239436731+240429019
3997+240728220+240373012+240169966+240794165+242062265+243005211+242777772
3987+241636593+240667625+240490359+240752285+240913191+240950275+241124616
3977+241466442+241739795+241787059+241717652+241667808+241483997+240933897
3967+240314512+240472890+241877398+243815836+244912884+244580130+243536856
3957+242739078+242435669+242525419+243207928+244705787+246526861+247598425
3947+247453966+246890674+246949676+247600623+247871293+247104869+245662307
3937+244596456+245024102+247312329+250396638+252292191+251979607+250528094
3927+249750469+250276607+251153800+251250284+250883926+251340536+252939243
3917+254247924+253537074+250815211+247783742+246078422+246163983+247799999
3907+251018326+255871891+261252823+265107676+266325846+265094501+261838778
3897+257688757+254778547+254717710+257177767+259759171+260145975+259176783
3887+259340666+260955561+262148644+262404459+262887627+263055666+261238176
3878+258424815+257260177+258585357+261352424+264341650+266286719+266046242
3868+264699681+264593691+265937189+266553839+265057382+262736953+261730312
3858+263403569+268363780+275684310+280400358+277482877+270194341+263851124
3848+260630615+260692197+263090863+266453805+269913994+273251105+275940022
3838+276926441+276024457+274299989+272523133+270762031+269307454+268705831
3828+268881609+269448104+271073161+274930299+279823666+281994650+280764483
3818+279341208+278621875+276557209+273028756+270581769+271134795+274623117
3808+278943877+281492577+282519041+284292227+286813468+287722204+286778254
3798+285790311+285009275+283774814+282760728+283249437+285434791+288688835
3788+292562265+296720717+300516948+303842546+307849130+313340570+319045825
3778+323335439+327055737+332453999+340770280+351786229+363935133+374924281
3768+384039621+392606800+401438451+410161515+418583058+426337847+431792688
3758+433899044+434580340+437042579+443200012+452277402+460527928+465286376
3748+468695284+473872010+480808731+486663465+491403492+498625840+510578970
3738+526471717+542393065+552865181+555465439+553444124+552177202+554748477
3728+561106012+569010697+575615079+579444828+580466566+579380563+577980712
3718+578030192+579417612+581122690+582902732+584079038+582388885+577204471
3708+571056076+566936197+566378687+568614439+571198873+572728709+574167133
3698+576622447+579921417+583482575+587223336+591704673+597110034+601570458
3688+602576613+600471020+597618825+595447789+593807497+592527867+592919969
3678+596287603+600220329+599916938+596928249+596567241+598511616+597973809
3668+593525643+588193550+583952031+580783184+578267032+576352954+575378931
3658+575405281+575979619+577271230+580261062+585271412+590741384+592823432
3648+588765707+581239032+574800473+571208533+569311629+567562162+566054071
3638+565653970+566220794+566919715+567818427+570221283+574833090+579279663
3628+579417058+575165982+570224780+568111153+571006422+578299546+585302367
3618+587402351+585954578+585296758+587371327+591718801+597071184+601344767
3608+602452168+600945255+599566872+600076009+602082850+604263027+606304286
3598+609351285+614159144+618975936+620741158+619293592+617885570+618827322
3588+620742889+621015255+619673160+618453086+618119640+618498515+619487774
3578+621157637+623331443+625427826+627042218+628716859+631515730+635445894
3568+638357230+637553288+633485937+629744414+629021220+630505142+630908048
3558+628239093+624093764+621491498+621677369+623866411+627159877+631167533
3548+634507397+634753171+631812958+629201274+629582088+631548694+632182207
3538+630833118+629041788+627966311+627346856+626893050+627592768+630474879
3528+634037733+634751994+631477365+627155098+624736003+624088570+623721814
3518+623091832+622398001+621901883+621855000+622139554+622211022+621800360
3508+621133122+620336590+619142070+617309120+615140854+613414897+612525777
3498+612087206+611883191+612445929+613951528+615402555+615666819+614784416
3488+613980336+614508241+616085306+616782670+615284274+612455348+609781337
3478+607648944+605947848+604960252+604689063+604144607+602404870+600053641
3468+598675396+599056211+600231617+600470535+599351915+598408362+599150670
3458+600855020+601340473+599934390+598179417+597376583+597108926+596205955
3448+594015736+591088750+589209678+590001016+593103693+596131025+596749788
3438+594946062+592708059+591409038+590564516+589478028+588637799+588373743
3428+587647294+585436784+582172889+579318063+578136286+578746703+580061306
3418+581022067+581904332+583485345+585045375+584513523+581156000+576949452
3408+574407713+574021462+574617199+575355732+576234049+577087609+577288231
3398+576444678+574831463+573166725+572065036+571604652+571429826+571135057
3388+570528621+569687250+568685041+567497619+566525708+566453825+566980795
3378+566676573+564832369+562434915+560894899+560803799+561757150+562690661
3368+562844469+562564242+562587234+562892079+562854649+561954621+560057544
3358+557753718+556298015+556459718+557625048+558623587+559234143+560170112
3348+561599153+562627123+562655828+562271412+562172002+562079066+561146802
3338+559003604+556252552+554092180+553453646+554504504+556611240+558290590
3328+558072310+556369518+555307060+555995386+557269338+557602438+557111860
3318+556839459+556878482+556287870+554729502+553322415+553409360+554937015
3308+556462280+556669065+555833961+555531955+556575645+557806384+557644612
3298+556308749+555440266+555907160+556981494+557482563+557057393+556250994
3288+555710935+555839986+556799847+558150391+558946472+558658039+557591115
3278+556396768+555694592+555923434+556991639+558252918+559104123+559391933
3268+559280438+558900627+558136921+557062206+556321769+556373881+556711066
3258+556554246+555697570+554162021+552119792+550421986+549901803+550193733
3248+550384071+550412326+550817863+551707849+552830798+553975111+554522163
3238+553448868+550766409+548139663+547113078+547382640+547511170+546814708
3228+545798995+545281167+545706994+546838045+547706945+547284787+545568283
3218+543600916+542152485+540988990+539778334+538946207+538931838+539320720
3208+539502194+539521134+539568190+539340976+538575192+537627727+536979221
3198+536519079+535818842+534843711+534011030+533705942+533813213+533662279
3188+532552004+530532663+528418378+526876631+526047863+525977607+526525941
3178+526885495+526197654+524646731+523119215+522122166+521552121+521021239
3168+520178136+519002002+517777046+516764034+516137065+516011616+516143921
3158+515950605+515234060+514492549+514169975+513938571+513082829+511515978
3148+509901690+508698167+507747863+506955625+506530386+506244100+505339917
3138+503564134+501595416+500283065+499935214+500217830+500536975+500643969
3128+500620285+500305225+499442212+498357006+497645861+497340150+497102375
3118+496740259+495965438+494522443+492960128+492205390+492220210+492120522
3108+491555464+491029118+490955573+491060627+490692347+489507142+487891607
3098+486642240+486172021+486132375+485884731+485267873+484660710+484215734
3088+483534507+482448088+481585075+481631959+482386939+482982329+482818896
3078+482046810+481266899+480929921+481004609+481073722+480665449+479698594
3068+478696455+478247912+478266264+478176652+477673644+476811981+475675217
3058+474473564+473633785+473387804+473449334+473329494+472895287+472512256
3048+472580504+472957578+473059240+472486495+471311226+469872802+468534170
3038+467548166+467049555+467110531+467609869+468048751+467827146+466806482
3028+465392989+464104806+463238088+462733694+462114862+460860613+459144352
3018+457819050+457364137+457355376+457226257+456921169+456575223+456205904
3008+455842091+455435308+454755119+453788817+452927224+452409915+451952924
2998+451192473+450198090+449331337+448774243+448377639+447882387+447081666
2988+445847257+444317732+443031385+442447490+442292505+441849918+441001656
2978+440479776+440910383+442014529+442849946+442548840+440893901+438548281
2968+436679320+436053875+436465229+437089913+437248672+436771771+435913814
2958+435098584+434584565+434234983+433679828+432760271+431721013+430897924
2948+430351598+429953956+429697136+429683078+429820162+429735952+429117882
2938+428055251+426901313+425898238+425124595+424669924+424525188+424358361
2928+423798358+422930082+422157962+421664925+421253260+420644608+419827058
2918+419129176+418843756+418709719+418111594+416922025+415658946+414685442
2908+413863738+413194110+413083965+413591302+414016472+413738670+413006265
2898+412427495+412088093+411642944+410970027+410299222+409859163+409673569
2888+409568168+409273329+408687634+408022196+407533072+407219674+406917011
2878+406546826+406203408+406066082+406109087+405858916+404808578+403205716
2868+401915213+401324290+400949604+400334581+399731019+399546360+399664261
2858+399717931+399589538+399290545+398739337+397957348+397152749+396452893
2848+395877274+395553211+395569970+395698293+395612387+395284861+394885349
2838+394458206+393959179+393444882+392998556+392561509+391963834+391100579
2828+390034901+388981585+388216078+387882286+387802023+387575155+386974017
2818+386155845+385428842+384960355+384770675+384798029+384845744+384637573
2808+384055203+383248422+382475436+381910136+381584238+381368588+380978287
2798+380172233+379054444+378025504+377342061+376892272+376495495+376197956
2788+376102458+376071156+375790999+375126530+374290110+373550123+372852413
2778+371959761+370922442+370091942+369630173+369340390+369059298+368869825
2768+368807222+368693753+368425231+368088045+367602799+366647162+365241217
2758+364045728+363679248+363949849+364097562+363656638+362783514+361892558
2748+361304336+361136193+361213547+361148381+360715628+360038002+359309337
2738+358586177+357935559+357473201+357153328+356787472+356309913+355801780
2728+355288384+354731428+354192859+353809586+353582614+353315407+352817315
2718+352125492+351462374+350977925+350607706+350211483+349768273+349362632
2708+349019664+348639473+348124345+347559979+347220474+347289102+347540762
2698+347448900+346752783+345803483+345175406+345032263+345029216+344744765
2688+344057270+343171162+342422207+342042708+342015319+342097763+341984052
2678+341515912+340808542+340136178+339670635+339392416+339201282+338955785
2668+338503642+337884152+337384987+337231976+337332702+337405763+337247453
2658+336843925+336323222+335822083+335397364+335050275+334734072+334334768
2648+333760534+333036197+332255351+331546181+331109273+331085693+331303177
2638+331302450+330745806+329821367+329144364+329148138+329631410+330019738
2628+329974344+329600074+329137681+328647241+328074012+327513836+327184475
2618+327095141+326997392+326739257+326420527+326144559+325862913+325515582
2608+325145086+324825179+324573969+324366560+324190592+324046618+323901779
2598+323692431+323386339+323013420+322628277+322255288+321899993+321605259
2588+321426832+321330953+321194424+320933103+320563715+320148067+319746928
2578+319418087+319209016+319123629+319077231+318935715+318670897+318412381
2568+318266156+318169862+318001165+317735689+317457679+317283996+317246739
2558+317178976+316809935+316098583+315381621+315043293+315112475+315321165
2548+315459114+315511226+315539757+315592008+315660463+315626045+315318879
2538+314720927+314058224+313622251+313499295+313509960+313439358+313274470
2528+313155738+313179353+313332814+313536518+313664252+313583747+313236104
2518+312677764+312082443+311695049+311678533+311955920+312262047+312389712
2508+312346430+312251174+312144769+311979396+311756995+311567107+311459906
2498+311355959+311138128+310819502+310574386+310570370+310779544+310987437
2488+311006308+310890208+310885464+311069223+311126598+310717252+309994681
2478+309442539+309267817+309293129+309332083+309311619+309136966+308779213
2468+308436798+308363184+308551202+308735792+308724296+308615606+308594242
2458+308599228+308407990+308025929+307738916+307748299+307954392+308116960
2448+308097189+307947536+307837634+307875515+307994835+308042896+307945632
2438+307756748+307594319+307555434+307627940+307655745+307489749+307213400
2428+307071781+307131545+307207099+307184003+307178290+307301177+307492380
2418+307653286+307773299+307896706+308057438+308217202+308240470+308036767
2408+307741547+307617864+307742690+307921394+307969974+307962044+308096635
2398+308396667+308657849+308698292+308574401+308492961+308526271+308485378
2388+308110589+307310249+306115313+304402376+301777811+297840341+292548207
2378+286250903+279396748+272316399+265257450+258469655+252171122+246452658
2368+241280657+236698611+232990069+230498242+229388140+229777905+231960558
2358+236239387+242621471+251017703+261607201+273982367+285793981+293600969
2348+295262694+291393922+285221202+280306315+277695046+276323191+275276211
2338+274323829+273383635+272359803+271240351+270205889+269675353+270040291
2328+271202748+272531858+273464002+274106881+275086877+276843616+279286222
2318+282019858+284602266+286707496+288368061+289991630+291922900+294066027
2308+296061823+297697544+298999958+300057672+300926086+301645818+302240793
2298+302731024+303164989+303584273+303983508+304346351+304639770+304796417
2288+304856320+305036235+305438137+305814831+305853438+305531142+305019442
2278+304462486+304005807+303796425+303785449+303708475+303387287+302921743
2268+302507653+302217697+302068079+302140586+302444219+302753323+302802007
2258+302607757+302434697+302467591+302645880+302785041+302763330+302606614
2248+302449621+302421851+302551351+302762395+302947193+303031264+302996327
2238+302880054+302751834+302672264+302683414+302808586+303015440+303210764
2228+303313465+303295355+303163223+302984000+302889749+302965233+303164747
2218+303384101+303552279+303640090+303642236+303562805+303427937+303327107
2208+303354842+303471739+303538290+303511628+303478179+303497743+303545630
2198+303592514+303640990+303683926+303676204+303580222+303436836+303335902
2188+303298575+303268590+303239400+303282648+303424371+303597915+303744382
2178+303869589+303982815+304044103+303987802+303785275+303514675+303354808
2168+303442134+303749611+304159684+304572492+304879727+304971485+304872248
2158+304742713+304680767+304649050+304620934+304645761+304734126+304824637
2148+304914318+305097073+305398594+305684534+305821652+305841112+305866458
2138+305970924+306159877+306394293+306577706+306598689+306447409+306264343
2128+306222895+306363303+306579576+306759560+306871540+306936048+307006927
2118+307155160+307389092+307626070+307792170+307905708+308052660+308317547
2108+308716228+309177063+309603029+309939696+310181210+310357767+310524006
2098+310720992+310951011+311201286+311479885+311807479+312158135+312437045
2088+312574094+312608720+312603387+312544489+312426069+312345737+312406228
2078+312591892+312825823+313087767+313391886+313672251+313807257+313823704
2068+313954347+314335473+314744195+314844299+314630865+314407079+314377439
2058+314466254+314519301+314531697+314639037+314939796+315358353+315699798
2048+315849900+315901147+316058105+316403947+316762878+316849235+316590961
2038+316224586+316012711+315977254+315990273+316010356+316094289+316234246
2028+316343006+316409453+316521190+316704326+316928389+317289606+317912177
2018+318598945+318907530+318687621+318250506+317965189+317962384+318185963
2008+318505005+318800051+319013277+319106039+319071760+319020514+319061995
1998+319155796+319331938+319854441+320771331+321545945+321621844+321141135
1988+320634179+320338474+320220781+320293011+320545502+320798790+320868353
1978+320761359+320628154+320610633+320739199+320957618+321295150+321877798
1968+322585168+322931841+322659371+322205496+322168135+322567024+322982118
1958+323196867+323354899+323598041+323852021+323969784+323945684+323955241
1948+324258182+325097753+326500097+327937067+328469923+327741812+326492514
1938+325620014+325313056+325326110+325481337+325670810+325794631+325888536
1928+326179358+326988217+328397174+329886498+330776103+331173296+331657468
1918+332063282+331674885+330597331+329778466+329839753+330594387+331358613
1908+331530772+331119764+330668175+330598265+330859275+331208995+331586797
1898+332111239+332757771+333252885+333560362+334128052+335100171+335758857
1888+335501310+334826558+334537883+334738608+335090371+335376519+335553353
1878+335672950+335862942+336263735+337145273+338955128+341725120+344307234
1868+344966682+343456894+341388593+340207577+340072121+340389189+340643757
1858+340699470+340673986+340704803+340854421+341283296+342291564+344021814
1848+346409019+349309724+351959635+352714442+351000120+348521468+347038931
1838+346804099+347208493+347923135+349255812+351487651+353979218+355444442
1828+355654759+355612758+355578652+354794032+353281197+352184910+352179058
1818+352773098+353251003+353695494+354692405+356267462+357612708+358005399
1808+357666482+357524793+358504668+360862788+363676755+365321826+365145892
1798+364294445+364455385+366489303+369875843+372431329+371992343+369496829
1788+367734758+367905151+369146901+370359149+371478393+372642616+373454036
1778+373943783+375176184+378135718+382382050+385874926+386887799+385826727
1768+383784013+381569453+380471746+381493899+383792185+385442242+386035935
1758+386437352+386783160+387255351+389198308+393391455+398079439+400260516
1748+399456921+397764033+396731630+396597317+397210678+398230130+399077527
1738+400091958+402851044+407804746+411846994+411471477+408325345+405294654
1728+403101042+401892949+401871654+402776183+404575061+408231578+414509024
1718+421724447+425529197+423909922+419714836+416191594+414822041+415961921
1708+419172978+423150614+426550346+429766042+434390972+440207410+444237989
1698+445042588+443960325+441306363+437847698+436102593+437233991+440216690
1688+444201909+450043936+457728884+462883208+461817254+457971819+455633644
1678+456253342+459353041+462926214+465223045+467059562+469744791+472009767
1668+471823411+470552195+471051360+473700509+476275974+477042485+477205573
1658+479125018+484318504+493163832+502929236+506612553+504413400+503586675
1648+505829768+507544402+505514673+501834646+499850208+500601933+504166068
1638+510366783+517302881+520435336+518035804+514495388+513522092+515227758
1628+517935113+520496658+523065302+525417882+526482105+526642734+527919248
1618+531056309+533935234+534112241+532776552+532429221+533670209+535541870
1608+536990786+537961312+539163692+540965687+542888352+544300114+545317247
1598+546615783+548505000+550571708+552221315+553282180+553970159+554566623
1588+555319560+556394275+557694854+558887851+559889436+561345346+564249964
1578+568705470+572734041+573680294+572648342+573044911+575671865+578216202
1568+578525722+577695153+577834176+579964873+585062757+594235333+605130819
1558+609343945+605413573+600877319+598916461+599049632+600232379+601680914
1548+603837199+608342844+615938008+625276234+634449157+641496818+643002347
1538+639369826+636488061+637617138+641572579+645231554+647620664+650760668
1528+656101763+662865978+669694251+676683187+684043519+690074083+693383961
1518+695037757+696122514+696938920+698445419+701932027+707898187+715988292
1508+724359835+728086677+724385458+718994917+717148878+719325109+723751876
1498+727739103+729253635+728964994+729518245+732593914+737575663+741798415
1488+742958448+741951946+741216495+741786643+743178114+744925954+747613607
1478+752157825+758441157+765020539+769758661+770969178+769391559+767993370
1468+768876327+771947426+775333827+777200849+778447654+781773391+788456789
1458+796324804+799880525+797263163+793133416+790792159+790246041+790414877
1448+790410514+789864742+788740651+787260537+786145587+786627647+789563567
1438+794056539+797087195+796629165+794735065+793949476+794226482+794348503
1428+794018104+793728148+793564991+793604465+794808264+798065788+802149068
1418+803874747+802013542+798514261+795290878+793078568+791980100+791745060
1408+792120750+792986187+794031885+794984094+796113310+797711428+799536761
1398+801449696+803734998+806065174+807393903+807677627+808204839+809650950
1388+810983350+810828711+809993884+811091175+815390173+821604115+827623252
1378+832564281+836819928+840698707+843670015+845175266+845801647+846827955
1368+848928077+851964412+855623872+859213457+861063581+859959504+857148860
1358+854947630+854107263+853759135+853180400+852654296+852683243+853116481
1348+853242726+852714129+852303675+853229291+855633567+858155639+859114219
1338+858049130+856082455+854829556+855092020+856458561+857887497+858536246
1328+858238326+857590270+857570325+858734721+860703404+862584969+863866538
1318+864803027+866016175+867834029+870078541+872352139+874380032+876205918
1308+877989977+879544259+880416690+880599099+880630262+880810731+881000688
1298+881285866+881961000+882780384+883023457+882330249+880904844+879012199
1288+876711178+874000256+871058658+868334787+866316866+864980588+863611138
1278+861771886+860290249+860332839+861593979+862634137+862979633+863396112
1268+864149708+864711684+865146999+866158626+867767270+869242051+870241421
1258+871057135+871891339+872654283+873327755+874137305+875381825+877019139
1248+878466358+879389620+880591827+883106905+886538389+889418700+891041125
1238+891833294+892310714+892821167+893878084+895851130+898629226+901836888
1228+904979455+907575141+909522634+910973246+911889375+912267973+912497403
1218+912892622+913375582+914045245+915251953+916866553+918588839+920931135
1208+924453546+928360926+931257719+932913593+934130827+935412881+936830114
1198+938654270+941337144+945122573+949893243+955104976+959678418+962399450
1188+962810251+961520233+959678418+958474826+958938465+961391840+964889667
1178+967817138+969422043+970313518+971407416+973062805+974935713+976089790
1168+975683214+974083365+972973263+973708506+976305163+980268914+984916524
1158+988772520+990253187+989681377+989386712+991055259+994128297+996952652
1148+998322656+998167394+997819058+999022166+1001935648+1005044627+1007307976
1138+1008812050+1009412323+1008806995+1007724662+1007740590+1009977415
1130+1014194281+1018694524+1021385501+1021628712+1020491186+1019322497
1121+1019027970+1019946177+1021813198+1023987767+1025587131+1025923001
1113+1025611854+1026618079+1029979480+1034348492+1037288774+1037351862
1104+1034584778+1030201293+1027087466+1028154702+1033039637+1037980943
1095+1039773243+1038998526+1038289805+1039079758+1040894495+1042605355
1087+1043929029+1045552077+1047853030+1049830577+1049884455+1047624430
1078+1044286990+1042203903+1043301333+1046806362+1049337714+1048460019
1070+1045291138+1042750575+1042546075+1044504301+1047726784+1051308336
1061+1054773337+1058104753+1061250643+1064420979+1067891175+1071028339
1053+1072482830+1071392326+1068309731+1065133439+1063756164+1064812805
1044+1067515069+1069941159+1070213664+1068475796+1067090488+1067951770
1035+1070035341+1071244127+1071639000+1072537469+1073741823+1073597918
1027+1070971899+1066249013+1060866643+1056175127+1052778062+1051132160
1018+1051964356+1055051521+1058316662+1059531542+1058726770+1057655933
1010+1057399149+1057960086+1059179329+1060141995+1059026699+1055274234
1001+1050658064+1047862102+1048626500+1052178135+1055509066+1056883363
993+1057591529+1058276220+1056920897+1052891703+1048983492+1047421454
984+1047554071+1048074081+1048456418+1048164592+1046698052+1044068224
975+1039896718+1034229448+1029122769+1026920085+1027654221+1029407255
967+1030607038+1030702328+1029122077+1025383185+1020388556+1016166565
958+1013853217+1012833973+1011827332+1009896391+1006874599+1003513060
950+1000982954+999746745+998849798+996610688+992255942+987241784+984133428
940+983526922+983355040+981932959+980214690+980039622+981603253+983350677
930+983425884+981251386+978349815+976702528+976029680+974596519+972466203
920+971569257+972635038+974188627+974816531+974382255+972724511+969392334
910+965185163+962125214+961391910+962355060+963540162+963866752+963520910
900+964038912+966679058+970544126+972987944+972333309+969534230+966708074
890+965004763+964205462+963280261+961055347+957682796+955026237+954335176
880+954375342+953135947+950639982+948722545+948796298+950552933+952415662
870+953260461+953818352+955400404+957186193+956614522+953151736+949446086
860+947838065+947979892+948438060+948943112+949837980+950552033+950188670
850+949077598+948616175+949584520+951073982+951538106+951016642+951099328
840+952417670+953778948+954044874+953087886+950908748+947983839+946122842
830+946768751+948681618+949009801+946880523+944456096+944219671+946600124
820+950059793+952588652+953147235+952398764+951990942+952780687+954276105
810+955808711+957132939+957843668+957548795+956772485+956609674+957045959
800+956863412+955958640+956538761+960505559+966313895+970064351+969433539
790+965493956+961146690+958697401+958721362+960317679+961846615+961889343
780+960585267+959532159+959706811+960734297+962243288+964232262+965995199
770+966180724+964880041+963457683+961736575+958508898+955041057+954605188
760+957917975+961974038+963967098+964086488+963299928+961559914+959690468
750+959476827+961215803+963887666+967190134+970891838+973106503+971820709
740+967780504+963734620+961420649+960650572+960886235+962441971+965691739
730+969985473+973669518+975068676+973522358+969834297+965960850+963537323
720+962858796+963517101+964856219+966110087+966430583+964915082+961291356
710+956993674+954720076+956017643+959792753+963208863+963443418+959146774
700+951353827+943171064+938167708+938475601+943417738+949183207+950733541
690+946207329+939229196+935039338+935217661+937156913+937200125+932930421
680+924973002+917824233+915594956+917142036+917528460+913263049+903654118
670+889730401+878430486+880851936+894961733+908345011+914050370+912555644
660+907577704+902712436+899987249+898870152+897067465+893236953+888399732
650+884602739+883614381+886503001+892478857+898208245+900170834+897772307
640+893126566+889140516+888351949+891501509+895368516+894848575+890267031
630+886807362+885854738+884115069+880294115+876993309+875805714+874001711
620+869517534+866073723+868671903+876752936+884957514+889936147+891639320
610+889516691+883027266+873698112+866471781+867092899+875403708+882059268
600+877168238
##END=
