##TITLE=<SNM>
##JCAMP-DX=4.24
##DATA TYPE=INFRARED SPECTRUM
##DATE=3/5/2025
##SAMPLING PROCEDURE=Instrument type and / or accessory
##ORIGIN=Admin
##XUNITS=1/CM
##YUNITS=ABSORBANCE
##RESOLUTION=4
##FIRSTX=4497.3318
##LASTX=599.83466
##DELTAX=-1.4281778
##MAXY=1.7141644
##MINY=0.17556779
##XFACTOR=1
##YFACTOR=1.59644e-09
##NPOINTS=2730
##FIRSTY=0.19663014
##XYDATA=(X++(Y..Y))
4497+123167884+123143784+123886630+125056898+125819672+125862907+125579014
4487+125342248+125149995+124964062+124806392+124590189+124337761+124321165
4477+124587576+124698435+124358790+123951585+124006572+124451495+124785279
4467+124755242+124519839+124356839+124560787+125330291+126341657+126797837
4457+126297955+125228373+124065665+122893437+121810694+121200185+121371399
4447+122257801+123417746+124145704+123838159+122513543+120834078+119497385
4437+118764573+118582803+118829817+119287090+119716500+120136399+120660746
4427+121040313+120913501+120445158+120041771+119570404+118602441+117343145
4417+116634481+116951034+117775748+118181516+117918904+117559563+117562709
4407+117726903+117665196+117276286+116640688+115894668+115190409+114551843
4397+113943966+113495337+113354413+113444644+113642366+113987920+114508346
4387+115053423+115395421+115311676+114692282+113688392+112539592+111336235
4377+110294991+109974564+110698173+112050799+113411975+114580778+115493755
4367+115878035+115583137+114845201+113963736+112965913+111793423+110748137
4357+110470180+111261218+112637431+113817267+114479420+114826561+115092906
4347+115188010+114812513+113931197+112951249+112259292+111911620+111937382
4337+112387047+112932759+113071331+112816961+112613807+112677567+112941327
4327+113366295+113815446+113903270+113387100+112550924+111931678+111712656
4317+111642810+111570350+111659294+111974335+112263819+112353575+112443872
4307+112791582+113420628+114298443+115392901+116417017+116903654+116682831
4297+116010363+115243529+114688744+114648711+115247393+116186374+116886863
4287+116913250+116236685+115167998+114139289+113528977+113566836+114245529
4277+115252079+116108790+116544753+116704028+116872656+117093433+117247043
4267+117377597+117613719+117817770+117653053+117096980+116641005+116820087
4257+117681885+118826737+119809700+120404845+120688794+120961459+121320967
4247+121360310+120688290+119644218+118970947+118920758+119230656+119766633
4237+120503813+121036364+120811200+119860132+118823097+118252510+118233497
4227+118598577+119195225+119933123+120715331+121366060+121695979+121728209
4217+121704622+121786080+121912248+121987144+122049532+122149172+122130271
4207+121775477+121220160+120910318+121013141+121268547+121563315+122158320
4197+123141189+124071732+124468250+124418808+124398488+124556027+124516656
4187+123978411+123200367+122689387+122591734+122642017+122658435+122845246
4177+123487154+124505716+125489603+126044948+126028063+125609144+125173937
4167+125036811+125228037+125567206+125845574+125980600+126100644+126363685
4157+126668991+126745306+126531809+126315783+126448559+126919889+127270623
4147+127088358+126527581+126077234+125885085+125628129+125078105+124507583
4137+124340990+124587678+124951844+125381012+126047674+126860795+127481226
4127+127808560+128060437+128359405+128533578+128430110+128269958+128412096
4117+128775197+128919268+128783085+128805598+129156295+129438051+129322188
4107+128917625+128431510+128049041+128193652+129220690+130725974+131795034
4097+132006001+131669380+131188884+130732657+130360754+130012194+129519014
4087+128851689+128230493+128015858+128509393+129579573+130517826+130713728
4077+130415385+130295565+130447205+130427006+130112469+129848728+129808638
4067+129820063+129851892+130140331+130713812+131184105+131202362+130914735
4057+130757803+130902452+131174603+131473916+131856918+132212739+132345450
4047+132358452+132511744+132815967+133107039+133270990+133178938+132707637
4037+131916590+131007469+130249371+130047654+130721858+132037410+133280334
4027+133942814+134133181+134280620+134610185+134964559+135087348+134994391
4017+134958884+135105465+135193037+134927569+134345370+133758673+133436771
4007+133414155+133550739+133772142+134210615+134955636+135730087+136074455
3997+135843710+135315135+134849891+134653989+134820209+135353507+136099209
3987+136783157+137133640+136916400+136079776+135096169+134875046+135952357
3977+137859759+139526913+140216508+139937441+139112736+138107595+137140752
3967+136524036+136692132+137744101+139079236+139831883+139710559+139126606
3957+138547338+138144287+138098327+138800392+140435960+142453661+143774655
3947+143871850+143376868+143105137+142973845+142458861+141651050+141168044
3937+141465220+142774424+145003979+147185604+147789476+146502599+145008814
3927+145046281+146414392+147405485+147143023+146760833+147615808+149299997
3917+149945778+148274611+145039794+142131368+140772497+140996812+142636608
3907+146218127+152094781+158754343+163189073+163873442+161602369+157398954
3897+152435379+148951717+148831020+151465381+153635217+153090541+152057651
3887+153581546+156809587+158625739+158759272+158950413+158323019+155472446
3878+152771374+153291773+156795157+161220870+165314069+167661027+166585527
3868+163803082+162838656+163753518+163372243+160218119+156687573+155921177
3858+159573812+167887115+178544688+183671272+177259005+166223163+158126595
3848+154936198+156173802+160296674+165378324+170343169+175150773+179083222
3838+180122208+177762387+174156236+170920999+167958259+165246397+163649127
3828+163607068+164870629+168085201+174243285+181039945+183102011+180219188
3818+177256839+175131265+171224690+165943124+162612120+163372113+168028301
3808+173710706+176938644+178558950+181669242+185153641+185079025+182161069
3798+179791448+177827333+174852403+171973407+171087331+172240508+174425242
3788+177180226+180266922+182948186+185162135+188282415+192869867+196891811
3778+198365424+198614138+200661344+206376269+215476931+225308969+232669532
3768+237372596+241497474+246086925+251747283+259887048+270780099+282077965
3758+291574931+300666577+312559598+329021309+348568560+365656750+376459504
3748+384916924+395907665+408203933+416008085+419273116+424139674+434307716
3738+449602623+466953771+481293586+488932713+490564631+489713782+489828217
3728+492733739+497564641+501156549+501578147+500113606+498782728+498643875
3718+500486667+505302746+513972757+526263313+538762875+546034280+547567407
3708+547985159+551045067+557970890+567630902+576586123+581824323+583965578
3698+585515320+588337584+593685327+602255017+613213499+622671747+624159922
3688+615889294+604979610+598513429+598049268+601757515+607490230+614901421
3678+624147414+631296694+630240982+623819679+619406231+617371383+613172093
3668+606593121+602258788+602612882+606197098+610121109+613175864+616262765
3658+619921504+623189709+625884769+630088576+637738643+647949510+655917903
3648+656691579+651601267+646078753+643816417+644556341+645711367+646256099
3638+647901645+651697444+655881687+658570101+660895834+665284454+670772320
3628+672581546+669699806+666488091+667138932+673312659+683353125+692588402
3618+697380624+698879962+699672082+700284766+700648269+701498110+702913891
3608+703663746+703149331+702298818+701889167+701553144+701514016+703982596
3598+710082547+716516656+718397717+715587886+712852130+713586454+716688327
3588+718421388+716815792+713765219+711447401+709674988+707665342+705712222
3578+704536885+704593039+706184746+709075745+712495049+715925777+718344775
3568+717560943+713437483+709700824+709199552+710549919+710846889+709735024
3558+708902133+708955748+709342623+710038864+711189410+712500425+714114086
3548+716168311+717590364+717508225+717223650+718597539+721255861+723001318
3538+722888339+721971293+720585979+717746578+713956155+711582558+711711516
3528+713230045+715251116+717826029+720249731+720911997+718970003+715252460
3518+711679183+709718746+709223820+709400195+710396916+712450470+714339969
3508+714541508+713331748+712346825+712409773+712835180+713152535+714319658
3498+717173471+719968068+719605088+716373734+714078841+714846170+716996423
3488+718271820+718730829+719612107+721248170+722992880+723831670+722885576
3478+720876079+720227479+722079119+724057403+722818371+718022715+712333384
3468+708996444+709744955+713169785+715547862+715193245+714302857+715203102
3458+717621428+720151089+721746829+721675144+720095683+718560353+718604409
3448+719906016+720431034+718800796+715928017+713412170+711485783+709606962
3438+707908772+707107617+707494642+708306624+708376667+707658248+707273463
3428+707547808+707508157+707134723+707915642+710016164+711262290+710417152
3418+709300807+710116075+712409176+714086159+714314879+714084367+714475424
3408+715394561+715748058+714634027+712784179+711991909+712954057+714878279
3398+716952516+718793404+719590004+718632336+716625602+714729159+712832417
3388+710336283+707530484+705307052+704667263+706556687+710979806+716445419
3378+720950229+723305681+723221003+720881008+717582673+715891801+717481567
3368+720661771+721469945+718488742+714975278+714579890+716772333+717861647
3358+715696534+711980410+709775422+709992269+711046413+711600628+712364597
3348+714717435+718548853+721766393+721977864+719137940+715958558+714717585
3338+714556592+713336004+711334124+710876385+712707341+715022097+716236412
3328+716881205+717860079+718341788+716908310+713991848+711556721+710644902
3318+710653638+711074639+712560760+715576686+718704171+719482477+717513377
3308+715495069+716174733+719234566+721987049+722642071+721731671+720350463
3298+718532799+716207141+714766570+715840352+718595001+720100238+719027202
3288+717247545+717154803+719200889+722043874+723884911+723678518+721853759
3278+720117860+719935362+720956725+721303726+719650638+716578559+713659409
3268+711920747+711487201+711938444+712833686+714201079+716201615+718364040
3258+719719187+719464555+717349920+714018133+711217561+710796113+712985121
3248+715925404+717065570+715432419+712677323+711060750+710777519+710644827
3238+710561568+711128029+711804259+711754154+711610709+712730265+715501043
3228+719021975+721556415+721422155+718429378+714206231+710664541+708711272
3218+708326338+708971279+709959115+711039095+712378934+713651941+713894326
3208+712736239+710888855+709084631+707358216+705672347+704530464+704568024
3198+705860446+707393536+707266743+704678239+701187176+698984653+698881456
3188+700344802+702253791+703419420+703730055+704447279+706043765+706703119
3178+704537408+700537157+697486061+696660040+697237852+698055285+698453436
3168+697978299+696552139+694658533+692685700+690684865+688929775+687871973
3158+687488159+687293489+686847921+686150859+685811176+686430729+687542520
3148+687836354+686684838+684617246+682486482+681164117+681240357+682035015
3138+682030460+680936516+679874233+679349737+678762443+677965767+677754297
3128+678583827+679797396+680225266+679187177+677031248+674703275+672725514
3118+670959448+669270443+667809038+666562763+665105913+663279363+661765837
3108+661225287+661142699+660583556+660043603+660984619+663250539+664717992
3098+664020482+661948783+659791361+658070621+657154918+657518870+658964295
3088+660495368+661287638+661183694+660351401+659107291+657693378+655848906
3078+653301622+650888747+650042490+650796900+651299891+650007543+647705930
3068+646452337+646958613+647923449+647955334+647101610+645944194+644397514
3058+642301622+640287421+639141804+638854914+638836470+638678763+638342067
3048+637922112+637515598+637126930+636747671+636501179+636505510+636643504
3038+636620804+636363559+636129238+635863182+634841446+632616446+630033543
3028+628345807+627516874+626499618+625044747+623929260+623431721+622967971
3018+622095578+620821899+619304079+617905175+616934813+616187982+615402022
3008+614819319+614690622+614843438+615072009+615294569+615436446+615710940
2998+616441418+617040026+616035016+612920785+609138165+606348234+604639105
2988+603314126+602420228+602317816+602584880+602488143+601894015+601026999
2978+600102672+599482596+599346507+599190629+598335710+596777120+595164915
2968+594074294+593400753+592687374+592078200+592263835+593168187+593517652
2958+592347094+590285439+588751826+588189360+587572644+585825358+583296517
2948+581163663+579845591+578953037+578441011+578775019+579894463+580755431
2938+580288918+578555073+576579477+575280819+574798663+574527043+573635236
2928+571842848+569795343+568407117+567882285+567567879+566669314+565102547
2918+563556240+562508854+561589680+560364724+559198236+558637151+558467907
2908+558108100+557502324+557041897+556919472+556966217+556876647+556308693
2898+554973558+552915636+550636275+548781947+547716266+547366726+547383976
2888+547481049+547562180+547402569+546506431+544631717+542266221+540257210
2878+539023368+538307824+537633648+536804640+535937475+535230966+534731635
2868+534172379+533197873+531870280+530647378+529827554+529441687+529564672
2858+530086143+530271218+529272070+527114872+524673061+522770308+521673825
2848+521181961+520824133+520164182+519207037+518317060+517607564+516815967
2838+515918036+515347841+515315396+515283400+514479183+512840357+511120550
2828+509933378+509036531+507902861+506607788+505613718+505026983+504595304
2818+504164709+503703049+503071474+502070496+500650721+499056512+497844587
2808+497535781+498012449+498462534+498138122+497002586+495535618+494180546
2798+493032091+491852424+490397777+488769256+487307478+486224697+485531779
2788+485125862+484731968+484013922+482949324+481856314+480916268+479916374
2778+478645569+477327796+476358143+475746692+475190236+474549439+473814779
2768+472789122+471317861+469705134+468523077+468036178+467882503+467324741
2758+465980310+464282307+462973420+462278896+461841804+461240022+460272647
2748+458951962+457484434+456150531+455077346+454154252+453151706+451880901
2738+450308235+448641445+447256729+446348680+445653410+444731398+443548333
2728+442510878+441861232+441318964+440530839+439613793+438847211+438038962
2718+436754977+435110738+433733750+432915196+432314050+431514126+430446728
2708+429226850+427923264+426646187+425645583+425104734+424885535+424589759
2698+423853830+422595981+421081223+419741981+418838525+418281286+417786920
2688+417166770+416480273+415909182+415473210+414972870+414223015+413184962
2678+411924948+410659706+409701553+409114221+408589800+407850846+406973003
2668+406164679+405455557+404774772+404164031+403702633+403295932+402735705
2658+401951874+401041436+400103108+399220971+398563111+398282121+398248444
2648+398029767+397242725+395878132+394253457+392756957+391672645+391083073
2638+390822057+390603977+390259404+389810476+389358935+388960074+388566367
2628+388068417+387426499+386739816+386138483+385601069+384922637+383928380
2618+382711227+381591745+380857234+380568889+380537750+380448555+380100359
2608+379566492+379070036+378705077+378315438+377667435+376727166+375707072
2598+374852377+374279681+373946233+373642878+373141531+372471163+371888349
2588+371542244+371353586+371208498+371104592+371076515+371022042+370691208
2578+369972117+369111896+368475355+368160986+367965570+367642912+367175205
2568+366819654+366799717+367004168+367148808+367103557+366883387+366523430
2558+366136070+365895253+365824650+365718392+365368591+364825614+364329158
2548+363990110+363699748+363365404+363042597+362847629+362911063+363305032
2538+363850212+364149945+363960316+363426374+362915692+362686337+362685479
2528+362654004+362447014+362165949+361947197+361776049+361570851+361326823
2518+361098401+360906942+360728962+360528691+360273201+359959318+359655926
2508+359474659+359447740+359465101+359370305+359078599+358569187+357843339
2498+357008768+356346577+356092281+356144216+356191894+356125473+356074509
2488+356070477+355957648+355649253+355238258+354839809+354493406+354219247
2478+354046046+353953378+353839951+353600441+353267255+353042903+353097787
2468+353330950+353436685+353241904+352887212+352662487+352734396+352998361
2458+353145166+352947248+352488464+352030239+351711577+351491033+351289605
2448+351048826+350709516+350268952+349852842+349622293+349583986+349583202
2438+349479147+349199500+348683629+348002359+347456545+347264041+347254819
2428+347153675+346975209+346864322+346772064+346597444+346465723+346563692
2418+346823476+347005825+347017735+346983423+347069483+347318962+347558285
2408+347491305+347052308+346556486+346282515+346095462+345773476+345498310
2398+345660908+346275384+346903487+347170439+347120110+346983573+346820788
2388+346560967+346191527+345659266+344715599+343081814+340701347+337717605
2378+334334928+330799510+327340108+323997567+320676420+317467953+314702851
2368+312547295+310782256+309164936+307914143+307707470+309130680+312142835
2358+316223097+321040670+326696883+333376215+340872308+348200501+353829273
2348+356539380+356246628+354295786+352395572+350838624+348723616+345573804
2338+341690675+337453042+333031567+328732964+325114585+322502896+320727794
2328+319551002+318901020+318582880+318390562+318555923+319481109+321059562
2318+322736582+324093931+325048201+325680374+326133185+326598690+327273762
2308+328270744+329500591+330665698+331494370+332007665+332448640+332947971
2298+333402574+333699806+333894326+334113600+334421809+334805921+335206872
2288+335561490+335840128+336013106+336014114+335820415+335554844+335428835
2278+335530351+335673610+335537184+334996484+334249802+333601650+333229821
2268+333141036+333222092+333348362+333502784+333720378+333921581+333944394
2258+333746102+333452306+333214289+333112474+333173070+333378306+333649066
2248+333885739+334058306+334214333+334366216+334420054+334289154+334069544
2238+334013540+334277281+334740285+335125965+335281096+335292484+335344829
2228+335531770+335832511+336211434+336661818+337170670+337721637+338309977
2218+338895368+339401569+339814095+340194660+340576757+340969830+341473343
2208+342218158+343157233+344066550+344821222+345543935+346397510+347360965
2198+348332484+349328421+350400599+351437531+352265344+352923540+353633633
2188+354480525+355326072+356083358+356863717+357754068+358634003+359348165
2178+359927358+360516968+361166689+361795277+362347364+362890976+363503771
2168+364147033+364766399+365453792+366364416+367525715+368887134+370541864
2158+372723405+375526814+378742114+382009124+385066156+387842273+390362302
2148+392557582+394300090+395825339+397885912+401069438+405134243+409364783
2138+413315900+416923899+420270173+423562796+427101163+431077706+435486226
2128+440161848+444859871+449402577+453761029+457916150+461625180+464370905
2118+465691329+465624797+464623819+463053879+461152544+459443751+458733584
2108+459626586+462292710+466703246+472796515+480135498+487454432+492853028
2098+494651689+492185610+486062921+477746407+468631314+459410746+450185325
2088+440849166+431374901+421957759+412877613+404337494+396655392+390284008
2078+385293271+381193071+377536909+374337178+371764356+369789694+368215795
2068+366891787+365815839+364962861+364122540+363151096+362238791+361652056
2058+361369871+361141972+360744904+360156900+359607800+359396889+359637668
2048+360276823+361310917+362907740+365331517+368756383+373273215+379198882
2038+387104439+397274274+409357988+422652470+436365787+449487516+460719671
2028+468729656+472600688+472267987+468555708+462774307+456188726+449465936
2018+442495906+435041331+427461269+420424259+414168989+408437208+402902075
2008+397401925+391925858+386575388+381513414+376896709+372812937+369222373
1998+366045791+363418533+361654707+360707792+359886102+358486824+356533070
1988+354492061+352626943+351012946+349781008+348966412+348361270+347758780
1978+347188585+346770086+346440708+346003951+345494614+345310174+345726881
1968+346344903+346353901+345480650+344300908+343446885+342967715+342640615
1958+342425485+342301828+342062616+341605848+341158339+341001491+341161289
1948+341516914+342129037+343179074+344346607+344633982+343485677+341678616
1938+340365920+339867970+339810622+339832837+339823466+339759061+339598255
1928+339481991+339915200+341181002+342604735+343321175+343651822+344325923
1918+344758946+343833163+342019643+340900123+341158787+342153903+342820126
1908+342575165+341650353+340715870+340204330+340087767+340203397+340549315
1898+341172228+341842110+342170144+342337671+343116014+344537357+345295277
1888+344396488+342583976+341110549+340337358+340062229+340103859+340283296
1878+340445297+340553459+340685740+341326687+343422430+347243842+350995883
1868+351736741+348881211+344961718+342373028+341543908+341689369+341968716
1858+341967559+341730662+341567803+341707365+342200610+343081440+344491770
1848+346811753+350308341+353828265+354616950+351758620+347986566+345962135
1838+345800844+346144857+346356627+347458524+350597770+354808857+357344455
1828+357208030+356043297+354753787+352737121+350230458+348550377+348236344
1818+348658726+349180123+349989380+351652623+353995642+355797850+356059463
1808+355254723+354718355+355442859+357702993+360905523+363590615+364520803
1798+364204418+364662493+367564245+372419416+375883186+374786591+370790111
1788+368006975+368095275+369997282+372325068+374728534+376958388+378401460
1778+379397734+381637033+386553621+393491990+399042991+399979526+397226222
1768+393629050+391021991+390753433+393345745+397081657+399325176+400046059
1758+400905608+402040323+403259417+406098594+411821751+418595916+422557263
1748+422492971+420734707+419630496+420046381+421828278+423959826+425260238
1738+426616244+430835956+438535679+444706831+443963210+439123684+434859953
1728+432481315+432179603+433836835+436700056+440838040+447976230+459135804
1718+471197938+477230797+474847642+469057056+464599103+463388708+466075703
1708+472379472+480276143+486958461+492627855+500436898+510902396+519104998
1698+521775267+521027390+517813435+513269721+511201495+513776632+520012300
1688+528795103+541112390+556296708+566272283+564946744+559516824+557675189
1678+561189774+568516549+576402579+582707356+588909571+596389572+602259161
1668+603233033+602400104+604873725+611227748+617668950+621012387+623039693
1658+627925255+638661887+656050147+674814910+681733714+678036556+677528787
1648+682915248+687459261+685141145+679802548+677608238+680172025+686864051
1638+696426690+705193252+706634495+699998772+692708774+689531855+690163804
1628+692386788+694712595+696845749+697621217+695631807+693008955+693768891
1618+698232706+701024018+696988970+689021547+682291066+678183287+675473068
1608+672599692+669317710+666708821+665670583+665932756+666684553+667689115
1598+669218620+671024113+672067057+671594010+670010367+668258115+666722934
1588+665135857+663354483+661811013+660989099+660959529+662031445+665228151
1578+670804503+675839409+676176553+673798699+674258081+678704273+683519046
1568+685721122+687231735+690721902+696801469+706819159+724028356+747634624
1558+763728744+764389218+761503520+762778768+768510512+776976967+786045727
1548+794735974+804733652+818149066+833957043+847976627+854308062+848369850
1538+836400011+829061625+828731276+831316494+831529085+829336417+829145033
1528+833006245+839096415+845287840+851908852+859135903+864901324+868281649
1518+870320566+870477303+868146119+865643862+866109516+871028755+880370440
1508+891319290+895330518+887296413+876681198+871630536+872471865+876568592
1498+880144110+879909490+876566875+874475090+876541337+881681904+885784381
1488+885719342+882595963+879124315+876730033+875651248+875849054+877808446
1478+882334163+889294933+896819477+901615656+900781869+895574396+891163823
1468+890907325+893948265+896462395+895669827+894174895+896923121+905504049
1458+915283311+916871434+908967110+900067333+894548777+892244998+892251196
1448+893153158+893182952+891766500+889662842+887867878+887565979+889976987
1438+894850377+899169552+899774918+897987047+897125482+898013257+898863472
1428+897985852+896057300+895011893+896026908+899146255+903382320+905976423
1418+903817060+898200310+893436314+891270678+890548078+889871849+889332867
1408+889761708+890816300+890776798+889073606+887818594+889013196+891834676
1398+893949983+894282198+892738430+889003713+884112700+880748504+880067421
1388+879727291+876487499+871377622+868939509+871209387+876007582+880449667
1378+884192524+888526783+893467453+897162445+898453000+898577180+899267447
1368+900987814+903548838+906765706+909695759+910608922+909083075+906964035
1358+906291688+907594490+910183217+913160014+915893456+917733821+918011600
1348+916867103+915628818+915889274+918314097+922254013+926160849+928594782
1338+929399073+929673791+930324557+931200982+931857797+932545002+933798745
1328+935373800+936414802+936671897+936899647+937958719+939878162+941825531
1318+943006767+943628336+944565619+946114390+947639564+948394498+948216032
1308+947398822+946278369+945141115+944405671+944494680+945317565+946258805
1298+946839305+946820637+945838029+943879981+941768034+940191037+938920792
1288+937641513+936467147+935008057+932202034+927851124+923229154+919622723
1278+917235162+915778461+915221558+915502026+916005464+915725220+913909945
1268+910657085+907062153+904466258+903186082+902214301+900387153+897505861
1258+893996877+890086904+885894671+881850588+878508271+876147741+874688353
1248+873705670+872556842+870916374+869209224+868189205+868194432+869049351
1238+870446164+872110304+873818947+875531847+877295524+878783587+879366999
1228+879163517+879389101+881012843+883553930+885768849+887162153+888182993
1218+889263422+890420090+891642246+893081473+894830813+896839414+899143118
1208+901914493+905113290+908363536+911426804+914471553+917531759+920080910
1198+921598766+922240572+922503790+922665306+922972880+923950410+926091703
1188+929343891+933020962+936280766+938797285+940773628+942190304+942798656
1178+943236309+944901568+948031816+951252044+953753778+956485726+960300642
1168+964206433+966384166+966379685+965588163+965658578+966848849+968112299
1158+968661511+969101329+970716856+973477553+975513932+975600029+975198891
1148+976497361+979688243+983545124+987029243+989332126+990187269+990677416
1138+992124334+994493078+996994663+999227802+1000966987+1002011573+1002570343
1128+1003042942+1003683776+1004709097+1006092171+1007307980+1008338228
1120+1010364900+1014045256+1017937532+1019664097+1018514671+1016340822
1111+1015621059+1017415202+1020975784+1024029195+1024080644+1021084283
1103+1018480546+1020075315+1025802057+1031877068+1035509186+1037406899
1094+1039106806+1040207919+1039476507+1037207002+1035041217+1034306296
1085+1035175851+1036893007+1038523469+1039463290+1039536469+1038859194
1077+1037869193+1037746507+1039555510+1042305827+1043903359+1044690103
1068+1047392779+1052722415+1057818403+1059751659+1058423096+1055619463
1060+1053555530+1054286270+1058289284+1063235554+1065797175+1065336375
1051+1064304782+1064694196+1065835781+1066106691+1065369081+1064673661
1043+1064573153+1064454200+1063058880+1059976497+1056458104+1054179414
1034+1053678664+1054223770+1055047252+1056675474+1060044000+1063790889
1025+1064831592+1063283419+1063171037+1066643507+1071245241+1073741823
1017+1073450528+1071074690+1067474830+1063834871+1061469264+1060843438
1008+1060979640+1060132486+1057379705+1053557770+1049972397+1047079456
1000+1045132534+1044450630+1044588549+1044485427+1043598100+1042185680
991+1040770871+1039721356+1038814839+1037137557+1034163523+1030552313
983+1027227992+1024616789+1022955711+1022098328+1021212420+1019726074
974+1017923867+1015954544+1013438547+1010555836+1008452626+1007629442
965+1006710231+1003675562+998268492+992120078+986424848+980920032+975136540
955+969692656+965990794+964860858+965328678+964915966+962005552+957671517
945+954428663+953422608+953488917+953058881+952153484+951647656+951421325
935+950865841+950473439+950811629+951176327+951090155+951541920+953132657
925+954554934+954136621+951817833+949001058+947036439+946134103+945846765
915+946214151+947280243+947928993+947032631+945424719+944833616+945346762
905+945796884+945967286+946560704+947385904+947114546+945140294+942303507
895+939493302+936828111+934504096+933338840+933610646+934216833+933861245
885+932550304+931101967+929664905+927886518+926044884+925062500+925728648
875+928090149+931058209+932864598+932647004+931501910+931192768+932097045
865+933140138+933144021+931845177+930152140+929458064+930243762+931528195
855+932071956+931765875+931281404+930840989+930000929+928535417+926899878
845+925915477+926346409+928066328+929752421+930149676+929675957+929964713
835+931848612+934619016+936988208+937920562+936681903+933503790+930307308
825+929226432+930275722+931757288+932797692+933763574+934594374+934828321
815+934774334+934993720+935554431+936663161+938789743+941509370+943265879
805+942883484+940780124+938481945+937216778+936930262+936489922+934944436
795+932637745+931087033+931764830+934597137+937944083+940651838+942994595
785+945096088+946364839+947051597+948122468+949128448+948447888+945970646
776+943552320+942643787+942854735+942779764+941716361+940447983+939976430
766+939947756+939299230+937644201+935180848+932537983+931091737+932237802
756+936057571+940958291+944392529+944526864+942243097+940461723+940816937
746+942466291+944480866+947371567+951400790+955023351+955804046+952638777
736+947291369+943552320+943583981+945396493+945401944+943077407+940900719
726+940583886+941981596+944530896+947270535+948104770+945757607+942123995
716+940652958+942717787+946520978+949339919+950078350+949229554+947174433
706+943894318+940183719+937328936+934971766+931385123+926721188+923769704
696+924116705+925630828+925297567+922514618+918409975+914023222+910416567
686+908757505+908883626+908831505+906863974+903257244+899586296+896789533
676+894685875+892495149+888734296+881397329+870438473+861735009+863189918
666+871221334+876791638+877386026+875431413+874290127+876115931+879933460
656+881181452+876623402+869373875+864838898+864047973+863573358+861195280
646+858669203+857894407+858122306+858260598+858964605+860266585+859698780
636+855696214+851104262+850175940+853132800+856073008+855807923+853063804
626+850243892+847695562+844584281+841396983+837818778+831805371+824289863
616+820312013+822533653+828301315+834184718+839615012+844761328+846924425
606+842149154+830946643+819347177+813246031+813824514
##END=
