##TITLE=<SNM>
##JCAMP-DX=4.24
##DATA TYPE=INFRARED SPECTRUM
##DATE=2/5/2025
##SAMPLING PROCEDURE=Instrument type and / or accessory
##ORIGIN=Admin
##XUNITS=1/CM
##YUNITS=ABSORBANCE
##RESOLUTION=4
##FIRSTX=4497.3318
##LASTX=599.83466
##DELTAX=-1.4281778
##MAXY=1.7223853
##MINY=0.27778095
##XFACTOR=1
##YFACTOR=1.6040963e-09
##NPOINTS=2730
##FIRSTY=0.28839815
##XYDATA=(X++(Y..Y))
4497+179788549+180173671+180973380+181443631+181271497+180967008+181158259
4487+181900987+182790080+183388784+183561624+183541633+183462468+183006078
4477+182022103+181169889+181242477+182116409+182939119+183117737+182726373
4467+182141193+181629977+181236067+180923626+180938229+181770600+183371023
4457+184754592+184971129+184200180+183315509+182815031+182705025+182845538
4447+182968808+182844813+182656349+182785323+183190956+183435640+183326526
4437+183093659+182892171+182568415+182022567+181441828+181036549+180809124
4427+180714799+180840616+181282570+181917299+182404233+182399700+181642740
4417+180062903+178274593+177637764+179010911+181528146+183280209+183243033
4407+182025484+180798683+180102922+179820059+179841295+180238604+180798516
4397+180962883+180465861+179636407+178994915+178904528+179436070+180235093
4387+180802640+180988652+180812803+180078696+178812303+177719474+177413369
4377+177537011+177376638+176937823+176717626+176742764+176521879+175842728
4367+175061560+174594320+174496353+174497858+174246319+173669779+173169747
4357+173252906+173973321+174884188+175506859+175782272+176004216+176254511
4347+176180697+175627492+175107450+175193396+175805477+176439872+176773214
4337+176823099+176730186+176497968+175957991+175094965+174296166+174107497
4327+174771637+175915687+176671365+176433202+175525586+174766230+174542596
4317+174724651+175188027+175850847+176380513+176443588+176245351+176309560
4307+176645429+176714319+176343299+175950058+175747548+175565457+175469831
4297+175701937+176154835+176598164+177077555+177578089+177787677+177613779
4287+177452514+177667621+178105432+178281263+177905672+177165155+176578935
4277+176565855+177078540+177724621+178237193+178628911+178840264+178632942
4267+178091907+177882727+178604628+179928597+180751140+180446390+179583735
4257+179029137+178903377+178868950+178788541+178685130+178603328+178664935
4247+178866795+178977135+178946182+179047623+179421393+179890361+180258391
4237+180427403+180318828+179979354+179620224+179341169+179044613+178798536
4227+178949434+179601367+180252018+180287076+179786803+179577753+180254656
4217+181216318+181267280+180323417+179608204+179907528+180671492+181018583
4207+180751790+180315019+180260248+180665101+181036957+181069210+181126192
4197+181579424+182123636+182114403+181322886+180244568+179682649+179884063
4187+180252241+180157266+179742065+179612310+180057293+180874336+181685639
4177+182224873+182556747+183092507+184045994+184877678+184861402+184231374
4167+183957131+184329898+184644159+184379448+183928724+183922463+184357859
4157+184680463+184502235+183915105+183155099+182362672+181744255+181586837
4147+181964638+182575698+182931688+182802044+182505730+182595206+183302262
4137+184479105+185797351+186759904+186914202+186316649+185524074+185060865
4127+185036638+185168753+185092319+184715001+184205048+183703288+183239410
4117+182804645+182407076+182176921+182304000+182671305+182836304+182604904
4107+182301752+182297925+182617723+183145215+183818774+184433438+184657406
4097+184483861+184312564+184370418+184420172+184199028+183809447+183590235
4087+183792578+184350204+184920167+185277086+185549341+185917928+186307118
4077+186495750+186310165+185708934+184914018+184330975+184150983+184210956
4067+184323711+184487056+184680425+184733375+184554684+184323804+184328058
4057+184729678+185519429+186520701+187429636+188001569+188192504+188086214
4047+187870327+187871721+188252346+188718862+188922691+188920517+188805365
4037+188257177+187015866+185592091+184959165+185509434+186667344+187587334
4027+187910253+187812213+187715231+188017937+188798659+189754375+190561107
4017+191147829+191491761+191420381+190834106+189947038+189144021+188714886
4007+188818519+189528028+190726348+192039652+193012629+193333374+192970120
3997+192287049+191883181+192021408+192378011+192544924+192450394+192199022
3987+191931690+191862131+192078315+192393580+192658942+193066600+193933194
3977+195241909+196531618+197331086+197630578+197663370+197365680+196592260
3967+195779099+195719182+196630662+197892131+198689407+198693142+198187071
3957+197707773+197538724+197591265+197930441+199055504+201049966+202830790
3947+203312113+203016616+203195865+203837914+203803041+202650890+201175392
3937+200459436+201349328+204128878+207768128+210001515+209511348+207735411
3927+207087602+208103292+209228615+209274319+209199279+210592305+213193405
3917+214686515+213171110+209356307+205463548+203009983+202523699+204509169
3907+209578158+217242246+224997649+229851215+231008197+229090596+224264359
3897+217889460+213357345+213173005+216422099+219181510+218732923+217491128
3887+219095545+222905183+225270814+225608838+226072902+225685755+222204926
3878+218191051+218067130+222316028+228121447+233198369+236179909+235738010
3868+233324705+232405403+233410540+233002064+229123592+224326654+222466368
3858+225686944+234608636+247409470+255549531+250554225+238486217+228138261
3848+222704958+222498082+226367340+232273995+238666469+245103013+250473630
3838+252008079+248835586+243963106+240074991+237165797+234468979+232506045
3828+232193846+233638986+237356361+244462246+253008886+256855923+254489902
3818+251006881+247933655+242616787+235691061+231083906+231245858+236074232
3808+242717688+247274941+250161728+254854996+260370157+261495814+258145856
3798+254836027+252376647+249052160+245454377+243671621+244386964+247081237
3788+251302490+256532985+261907913+267371517+274034965+281880345+288395812
3778+291762715+293907350+298049587+306006348+317897597+331642034+343597175
3768+352210124+358840482+364671614+370539904+377863144+386739095+394935765
3758+401300000+408608302+420576895+438383010+459373064+477258958+488188954
3748+496028983+505635680+516490431+523485381+525963545+529394025+537788448
3738+551540205+567078062+577603001+578530682+572680748+567083339+566159336
3728+569659710+574448343+577409892+577770434+576216830+573409226+570872614
3718+570901411+574657913+581729297+590281567+596044218+594723816+587963480
3708+581103821+577572680+579000877+585614774+594249869+599295969+598741686
3698+595767727+594717128+598407266+607118832+618399151+627535392+630041610
3688+626524329+621923565+619232265+618847719+621115718+626270245+633645468
3678+641826271+647182267+645930645+642042158+642561847+646847921+647211027
3668+640410709+631858848+626557548+624663765+623411920+621544333+621279621
3658+624532896+629272147+632889679+637264560+645479401+656265707+663146435
3648+661073180+653027705+644667578+638641925+635029595+632961616+631994845
3638+632789724+636572683+643655697+652585230+661732805+670138041+674984455
3628+673099442+667393197+663821443+665461736+672356063+682187935+690762017
3618+695046605+695750151+694278034+691200627+688167587+687135047+687849293
3608+688367496+687978305+688063174+690089610+693495863+695680814+695003056
3598+693049301+692419997+693981812+697170321+701698887+707872205+714808892
3588+718767755+716162327+709041114+702828929+700296478+700600726+702416998
3578+705997670+711299861+715950230+717685721+717824617+719346005+722444963
3568+724011757+721551987+716691825+712865318+711369792+711202284+711014935
3558+710493686+709978456+709557533+708789927+707302576+706003243+706689473
3548+709386161+711311825+709979794+706029848+701909497+699791281+700678683
3538+703637334+706422011+708157354+710221022+713615905+717186989+718905834
3528+717923085+714684934+709634970+703213884+696848683+692603556+691987926
3518+695349515+701206621+706049988+706819302+704020430+701048254+701043795
3508+704665043+709647529+712487200+711530090+708283764+705055571+702921526
3498+702031226+702020153+702394926+703328478+705478353+708433213+710252011
3488+709409719+706771220+704650552+704092665+704221231+704164379+703923077
3478+703174273+701084966+698045163+696073349+696495387+698392514+699963322
3468+700715915+701658162+703658959+706242316+707998616+707965917+706441779
3458+704352472+702411201+701263101+701640623+703406509+705001841+705132785
3448+704470336+704330921+704184816+701974300+697123056+692126376+690086712
3438+691022939+692073017+691421865+690225013+690409018+692389750+694949623
3428+696602550+697099275+697159099+696996942+696123660+694702896+693526778
3418+692114560+689016196+684733168+681931695+682141488+684079415+685581183
3408+686148582+686765550+687566448+687230096+685114630+682489359+680736701
3398+679696878+678530644+676920895+674904566+672882514+672025359+673327962
3388+676235409+679191384+681394691+683244256+685162266+686491251+685878297
3378+682733783+678253522+674960823+674489885+675411175+674304542+670128975
3368+666141054+666038201+669684717+673582344+674981929+674495385+674060119
3358+674011219+673590890+672780182+672291557+672368028+672624268+672610520
3348+671820099+669847022+666981117+664456990+663640039+664637725+666125374
3338+667040495+668048437+670189839+672733512+673842002+672956607+671508271
3328+671634013+674540643+679116920+682035663+680830785+677028430+674242415
3318+673654430+673429403+672051890+670360988+669969196+671076721+672452971
3308+672759819+671522094+669277393+667082706+665853081+666057895+667710376
3298+670055848+671430314+670675640+668874900+668111011+668460591+668006449
3288+666085095+664797875+666477704+670739997+674767528+676206649+675052974
3278+672816002+670896357+669919108+669952327+670870198+672135346+672517774
3268+671063270+668560025+666956816+667209637+668653588+670182779+671158691
3258+671511541+671686406+672166930+672683497+672368177+670805469+668828230
3248+667978060+668714750+669617981+669115980+667312936+665539990+664790964
3238+664839120+664606587+663541794+662331862+661796419+661867316+662134406
3228+662409819+662340557+661576742+660457030+659456817+658633178+658407704
3218+659484165+661287580+662074433+661229763+659820740+658515388+656780417
3208+654595763+653232890+653559878+654851706+655820855+655935449+655393763
3198+654577184+653734446+652703317+651052100+648796549+646572880+645068733
3188+644838652+646141552+648306884+649931422+650142775+648850131+646236527
3178+643374339+642112312+642978088+644212915+643774676+641537481+639040925
3168+637927529+638541227+639547906+639412800+638158576+636857237+635905032
3158+634770531+633081115+631135460+629437722+628261975+627568314+626893529
3148+625549532+623604546+622300531+622692657+624321542+625741638+625884175
3138+624757254+623290563+622357234+621730605+620595993+618929541+617403174
3128+616388581+615920950+616000357+616410987+616756777+616731064+616002809
3118+614330672+612228805+610862217+610915018+611805058+612287403+611855221
3108+611138559+610818965+610798343+610664203+610192968+609209291+607739812
3098+606271671+605176186+604153678+602752756+601110940+599746209+598954117
3088+598799764+599303735+600181773+600703728+600314835+599215448+597940899
3078+596794136+596119759+596377151+597384721+598331799+598845208+599101336
3068+598926657+597770754+595522039+592821078+590675700+589730592+589678534
3058+589656499+589285590+588825837+588474028+588224587+588234286+588667062
3048+589301160+589631269+589253598+588079189+586240660+584003242+581864849
3038+580420118+579852421+579831947+580026282+580222698+580067973+579442311
3028+578790786+578361354+577649448+576261531+574612395+573235625+572186810
3018+571372943+570684744+569786306+568531340+567407131+566857196+566547932
3008+566075546+565915247+566660186+567589093+567161556+565015620+562481646
2998+560936143+560316314+559546033+558122630+556640221+555685266+555130798
2988+554803661+554820419+554866123+554172834+552596192+550810352+549365212
2978+548406170+548068815+548305175+548608271+548581704+548429877+548362473
2968+547940621+546577971+544443926+542416598+541230967+540879678+540767981
2958+540379906+539802623+539480428+539458021+539206612+538321700+537055511
2948+535959952+535213638+534512619+533630791+532870617+532640536+532694749
2938+532254281+530898060+529047528+527599639+527180165+527614316+528114608
2928+528049099+527344476+526220639+525029658+524251315+524060547+523912138
2918+523045136+521496883+520191456+519775512+519798513+519470670+518775782
2908+518193223+517726856+516966385+515835637+514581413+513289809+511999208
2898+511015642+510603191+510504723+510142769+509130814+507424343+505405450
2888+503966701+503950203+505192387+506462849+506548089+505220367+503145217
2878+501110532+499549534+498710214+498832314+499803433+500870195+501108191
2868+500133431+498305157+496466182+495298462+494657044+493967396+493330437
2858+493335231+493747868+493512176+492254460+490817940+490075379+489889368
2848+489460158+488432188+487300994+486568243+485939608+484846278+483388318
2838+482098200+481114225+480261900+479545610+478964165+478297443+477509290
2828+476852712+476356841+475766776+475023509+474265974+473487481+472618064
2818+471700155+470744271+469709130+468676516+467777112+467016901+466385851
2808+465988597+465828075+465596805+464997153+464177193+463475988+462822457
2798+461880768+460757266+459968592+459678761+459457450+458796041+457591646
2788+456197673+455092972+454355836+453605546+452635023+451679287+450889573
2778+450091684+449183177+448269802+447369692+446345029+445137104+443958348
2768+443236001+443185727+443396226+443136047+442115471+440692180+439417260
2758+438562297+437993151+437448009+436899115+436432153+435897750+435104840
2748+434243709+433751331+433853664+434341954+434630373+434182473+433135516
2738+432169376+431540407+430731222+429282106+427514882+426153719+425511781
2728+425256396+424849592+424077342+423136136+422340960+421852298+421598510
2718+421373371+421022119+420524836+419908315+419148104+418179178+416991132
2708+415796138+415011849+414805772+414769989+414390423+413660087+412876764
2698+412156720+411503115+410985768+410568932+410085769+409524018+409072811
2688+408852094+408727244+408370641+407575650+406609734+406024053+405958024
2678+405929004+405463640+404607525+403617270+402509188+401249279+400140789
2668+399593975+399549311+399499743+399143586+398679374+398327750+397898912
2658+397135134+396254383+395714592+395529323+395268253+394692679+393982854
2648+393394907+393017124+392769356+392473654+392038053+391551064+391069239
2638+390478653+389695516+388825913+388067634+387575591+387365872+387256220
2628+386978020+386399101+385632091+384922377+384389869+383922982+383404965
2618+382923178+382630635+382550374+382604364+382671174+382619153+382412518
2608+382094002+381619832+380898636+380009600+379217322+378749394+378598608
2598+378509280+378206593+377696603+377260073+377111405+377156143+377117870
2588+376840748+376402843+375939263+375460336+374906277+374276824+373616568
2578+372977454+372459846+372186216+372165668+372225752+372138655+371849939
2568+371522802+371266524+370932105+370378528+369816331+369576292+369610328
2558+369541178+369181156+368724227+368407085+368202086+367931726+367575606
2548+367302608+367182848+367056772+366772701+366372028+365979902+365691744
2538+365542555+365426252+365185989+364900804+364807946+364876502+364817310
2528+364534354+364183584+363817134+363358384+362900043+362670445+362666618
2518+362610250+362374707+362185648+362206754+362236851+362124858+362147115
2508+362536343+362905097+362622735+361655741+360628923+360098496+360063828
2498+360183773+360209226+360098756+359896209+359674229+359518166+359416725
2488+359216222+358800241+358265689+357805490+357463713+357141406+356814232
2478+356591620+356570403+356721077+356873684+356815347+356533133+356278900
2468+356206071+356137700+355921368+355712355+355645546+355547561+355207753
2458+354702593+354342831+354409864+354865901+355280285+355245059+354854643
2448+354523492+354402172+354288284+354070651+353908940+353863310+353658460
2438+353085784+352421329+352099022+352137258+352236617+352280389+352386809
2428+352593072+352756306+352700123+352379229+351988292+351834273+351964362
2418+352078474+351946564+351705930+351627379+351799047+352114443+352379229
2408+352408695+352191619+351935677+351824055+351803283+351709869+351514419
2398+351364896+351428919+351718304+352067698+352300640+352376777+352312196
2388+352006314+351252717+349948925+348238776+346359856+344339885+341928420
2378+338862346+335134678+331010314+326903972+323244154+320263878+317814586
2368+315502927+313165332+311163438+310087070+310235608+311527417+313795750
2358+316994403+321156036+326386921+332898375+340487033+347867867+353206621
2348+355358762+354575365+352455142+350683608+349379705+347610066+345108233
2338+342457918+340168405+338174370+336059573+333626036+331247976+329523409
2328+328594316+328074219+327647387+327466912+327860599+328840078+330083191
2318+331252286+332141657+332673496+332967117+333330669+334035069+335142705
2308+336555294+338053607+339273125+339866535+339842531+339639092+339740310
2298+340267430+340995388+341670916+342195250+342564412+342808390+343005289
2288+343214264+343361669+343308497+343053520+342762092+342559693+342400546
2278+342198111+342004222+341956288+342082104+342251767+342309361+342201195
2268+342017004+341949674+342124538+342406454+342485117+342251395+341983079
2258+342020460+342337452+342603279+342628435+342545908+342544421+342623790
2248+342657455+342575448+342468099+342525025+342803262+343103720+343221547
2238+343232472+343356393+343640873+343945083+344136409+344161342+344011001
2228+343760484+343602452+343714371+344067110+344432928+344608313+344572121
2218+344441883+344363443+344410262+344525265+344626185+344770729+345067731
2208+345430688+345618818+345541381+345359048+345280274+345399550+345720556
2198+346178191+346598520+346771601+346668414+346514989+346549026+346777249
2188+347055189+347278619+347388903+347331791+347135598+346946874+346931231
2178+347156555+347513047+347744280+347695306+347547864+347652017+348106865
2168+348657098+349038708+349278227+349547361+349859858+350087189+350198699
2158+350305825+350514875+350832054+351135781+351230051+351056152+350816484
2148+350764464+350949175+351228155+351423308+351454929+351412532+351468380
2138+351696158+352033885+352378634+352634466+352737504+352713092+352669617
2128+352711271+352877923+353157944+353536768+354006665+354506697+354891615
2118+355025308+354901313+354639313+354392028+354299208+354479312+354942632
2108+355509771+355962539+356277451+356562562+356839276+357075897+357321696
2098+357602200+357802331+357825109+357768183+357827079+358076556+358406814
2088+358669965+358847803+359024674+359228410+359360543+359288717+359012894
2078+358738150+358705414+358921449+359147517+359169663+359016945+358929996
2068+359127638+359539271+359817658+359718521+359379344+359119277+359102928
2058+359292581+359579179+359842182+359994045+360070813+360183624+360328948
2048+360404193+360457031+360670168+361010608+361170535+360977760+360636838
2038+360458035+360498016+360532016+360336269+359971714+359722311+359739589
2028+359906688+360102881+360370825+360707809+360973636+361185918+361600153
2018+362236145+362641723+362453258+361890615+361403068+361168714+361142518
2008+361244888+361338971+361274428+361052559+360855103+360881039+361109113
1998+361295868+361431494+361958874+363070263+364096895+364224644+363510694
1988+362585020+361847104+361401879+361233257+361168380+361028852+360863129
1978+360844773+361053376+361399241+361656781+361741984+362008517+362866601
1968+364027224+364623012+364262582+363447712+362812091+362510518+362434642
1958+362523449+362695973+362804102+362791505+362742271+362786155+363065841
1948+363771728+365136124+367162226+369066599+369415882+367688677+365209770
1938+363629079+363281802+363488065+363671847+363745680+363822151+363983824
1928+364399471+365477529+367379227+369347177+370444446+370987024+371767931
1918+372141776+370835197+368452232+367014226+367480928+369042780+370228299
1908+370235211+369396225+368557500+368186888+368178639+368294943+368582433
1898+369316113+370443220+371364249+371879925+372811173+374588392+375969509
1888+375586561+374026715+372791368+372369813+372346701+372355582+372369256
1878+372528885+372892363+373425391+374589321+377532179+382675187+387838408
1868+389169065+385719449+380777576+377578255+376644815+376784788+376909118
1858+376753798+376571800+376614345+376910567+377509476+378664563+380667181
1848+383886158+388537048+393177831+394333995+390771234+385914899+383157829
1838+382739953+383082733+383401435+384840444+388751411+393999278+397172180
1828+396939201+395422569+393921692+391637158+388642390+386551188+386191761
1818+386801743+387433165+388264422+390136170+392978740+395283525+395676617
1808+394594545+393685555+394356884+397122723+401171657+404382200+405016074
1798+403836501+403579815+406412463+411768013+415500771+413546087+407886847
1788+403724098+403202663+404927750+406977410+408878253+410501007+411269021
1778+411679020+413815741+419367483+427333069+433249738+433150490+428575997
1768+423213127+419053835+417483733+419280348+422770838+424882328+425201848
1758+425407219+425663199+425862885+428013577+433921105+441644943+446266255
1748+445671136+442512614+439983358+439491018+440982568+443108884+444107685
1738+444809075+448742634+456968176+463511065+461568345+454410681+447674088
1728+442923356+440557743+440711799+442540445+445871268+452564831+464041344
1718+477040656+483332024+479513952+471291977+464407645+461267776+462776382
1708+468741988+476819939+483462485+488516982+495624967+505870219+514142394
1698+516330615+513820125+507335016+499079934+494304751+495276278+500191286
1688+507524818+518758393+533547632+542671648+538816567+530057068+525136524
1678+526198828+531823177+538493629+543548646+548443811+554719090+558812910
1668+556662256+552120684+551462434+555347205+559284554+559745793+559090033
1658+562170264+572267517+590184511+609511495+614184493+606231021+602745956
1648+606847691+610122517+604923736+595863148+590505703+591068012+597436111
1638+608778112+620474747+622772063+613664805+603846347+600456332+602814698
1628+607035449+610822755+614788493+618364780+618889002+617331199+618641642
1618+624870288+631292563+631666965+628151988+626522694+628362896+631803706
1608+634635499+636276312+637518051+639253839+641723642+644568515+647351409
1598+649949629+652452874+654832829+656937594+658851591+660920759+663259097
1588+665577668+667671063+669694452+671832213+674291166+677955665+684343383
1578+693800185+702726448+705387390+703377526+703717669+708661064+714267429
1568+716188560+715781014+716619293+720735854+730472305+748718257+771485716
1558+780281407+770611988+759307777+753342245+751571380+752206109+754406964
1548+758882543+767521948+780837658+796548262+811598943+822119943+821549571
1538+812096783+805420126+806214782+810575469+812166342+810821305+811855257
1528+817740677+826128524+833983751+841231003+847770102+850940923+850648269
1518+850334063+850445164+849007159+847059943+848455440+855935745+869406701
1508+883984884+887191451+873747323+858647520+852581662+855184118+862090113
1498+867344891+866445747+861167114+857781446+860253924+867740026+874773324
1488+875147131+869124599+862344346+858909556+858880722+860267301+862189993
1478+865589335+871353174+878916341+885415012+886008942+879759228+872730241
1468+870332078+872684314+875780076+875626541+873708233+875240174+883027254
1458+893602059+897171137+890423137+881709268+876649271+875357295+876040478
1448+876257331+874196115+870316323+866672409+865151690+867109756+873131842
1438+881335238+886065199+883467945+878079251+875555495+875967798+876469873
1428+876328748+877272927+879609705+881693141+883285055+886126361+889838199
1418+890279336+885617002+879366247+874885986+872814515+872583914+873913865
1408+876771743+880213147+882159843+881816282+881389934+883139322+886356888
1398+888825576+889717065+889097645+886777960+883837665+882345260+882477691
1388+881907170+878799220+875063377+874550674+878652372+885177946+890864125
1378+894585625+897503253+900365591+902169898+902136902+901363203+901172583
1368+901725268+903104787+905920603+909613194+911558701+909827074+905885526
1358+902468795+900525592+899373404+898541441+898334844+898582464+898050513
1348+895890532+892995718+891192674+891484363+893445922+895833086+897302527
1338+896982896+895054928+892705590+891140505+890643185+890611378+890294348
1328+889397434+888234544+887452819+887471324+888157479+889074384+889891558
1318+890565600+891292703+892146217+892873320+893390705+894072402+895046901
1308+895713289+895549943+895043929+895179332+896063761+896501405+895289690
1298+892823603+890805045+890367400+890958729+891034754+889622610+887034571
1288+884032297+880834574+877421707+874237286+871842319+870179211+868706649
1278+867102399+865534415+864408461+863833481+863321001+862449206+861670527
1268+861795452+862939911+864565787+866173232+867503034+868487938+869363226
1258+870402901+871404377+871865877+871689377+871343661+871443542+872486263
1248+874710453+877704329+880444343+882305427+883795082+885895165+888920774
1238+892161452+894455053+895299872+895600032+896825198+899205897+901513469
1228+902871288+903920177+905858401+909036060+912691418+915621754+917149979
1218+917684457+918267908+919669945+922093301+925354267+928920967+932182602
1208+935019003+937693545+940173604+942111307+943501454+944923556+947030179
1198+949917858+952947331+955302614+956799700+957993208+959428241+961003805
1188+962335093+963710897+966054141+969450510+972444386+973637893+973425574
1178+973261708+974001891+975766662+978521168+981887365+984775118+986157015
1168+986344811+986701303+987816110+988765491+988490821+987263500+986766031
1158+988913156+993931685+999382061+1002135378+1001540556+999698348+999132064
1148+1000743670+1003573458+1006388456+1008932872+1010925272+1011270021
1140+1009911236+1008696177+1008956727+1010333869+1012405266+1014922185
1131+1016528887+1015863168+1013774678+1012540743+1013389872+1015587977
1123+1017846278+1020288436+1023863385+1028213297+1031700702+1033382017
1114+1033512961+1032491271+1031375720+1031985702+1034482928+1036694410
1105+1037051347+1036131246+1034862011+1033627556+1033067885+1033743042
1097+1035287616+1037304689+1040538009+1045847038+1052373131+1057351232
1088+1058059906+1054562393+1050132295+1048018686+1048305842+1049182691
1080+1050424206+1053392443+1057848998+1060584925+1058768579+1054649714
1071+1053838114+1058391947+1064406081+1067097939+1066233278+1064526696
1063+1063310001+1062331712+1061597994+1061190448+1060470776+1058983499
1054+1057496073+1057405409+1059325276+1062276941+1064662321+1065906066
1045+1066302688+1066124257+1066210091+1068195134+1071807241+1073741823
1037+1071906378+1068470250+1066678131+1067296436+1068882032+1069824651
1028+1069609210+1068722031+1067800072+1066607754+1064325895+1061437844
1020+1059527192+1059258615+1059803571+1060086788+1059914970+1059828318
1011+1060352689+1061394518+1062454407+1063385357+1064549733+1065982834
1003+1066878931+1066556922+1065308792+1063522693+1060624238+1056559846
994+1053356995+1052447224+1052054243+1049874197+1046788393+1045341989
985+1045879736+1046250125+1044543469+1041057326+1037759871+1036148636
977+1035780477+1035108070+1033202396+1030166532+1026529827+1022861537
968+1019875910+1017990227+1016464158+1014006394+1010243055+1005885043
960+1001820280+998376200+995243503+991849660+987926246+984059459+981361954
950+980166514+979414738+977955180+975939223+974144651+972655813+970902264
940+968504547+965687542+963110428+961417891+960876205+961557679+963391489
930+965515947+966384102+965312694+963329435+961706384+960633862+959866331
920+959393015+959119831+958931367+958949277+958917693+957924392+955592593
910+953047062+951838394+951952394+951782212+950598885+949874606+951142429
900+953731360+955761438+956388438+955804169+954069793+951412492+948809887
890+947201327+946549506+946031304+944808961+942716607+940463360+939010045
880+938772607+939467309+940388376+940719972+940101146+939201408+939252463
870+940629084+942252730+942774276+942019379+940888965+940154505+939782481
860+939206536+937785251+935426178+933332784+933664528+937587571+943159379
850+945904818+943172682+937325758+932813169+931575370+932416770+933581666
840+934674179+936023526+937424449+938220443+938013474+936940729+935692451
830+935349113+936609059+939082280+941395128+941886800+940154728+937987612
820+937573674+939170195+941515519+943584464+944887662+945262212+945298106
810+945931126+947424571+949590201+952292165+954731350+955322976+953620333
800+951216968+949666448+948862131+947801574+945876653+943379799+941345411
790+941237505+944183968+949683318+955315842+957944085+955934965+951294553
780+948374696+949344142+951827842+952156539+949850751+946819866+944098653
770+941848825+941006830+942858550+947131099+951681068+954611702+955562421
760+954317933+950368953+944980333+941077355+940236400+941832327+944752184
750+947953475+950087223+950574733+950463037+951113521+952695030+954225930
740+954690031+954039547+953213901+953211671+954259595+955988992+957668820
730+958115160+956420765+953174811+949926627+947349438+945192132+943661084
720+943537125+944859942+946519631+947036644+945446217+942697508+941368449
710+942875271+945645160+946395747+943456344+938772384+936159598+937152157
700+938994067+938288739+935527173+932991750+930426674+926527858+922226177
690+919010692+916754323+915045214+913897857+912675515+910883321+909218579
680+908319509+907889594+907851618+908546171+909085256+907408921+901907267
670+892594266+883622670+881910217+886229362+889575643+889403974+887305228
660+884956783+882787809+880800314+879403777+878877994+878763474+878460044
650+877382914+874790862+870462502+865659117+862228488+860390962+858749703
640+856823147+855618567+855581780+855971788+855853255+854523824+852058258
630+850347142+852040570+857191678+860985189+857250982+846259639+834898130
620+829341631+831309135+838798284+846628169+848771504+844579513+839530515
610+837296589+835241096+830188456+824277101+821454522+822024745+822422705
600+820118774
##END=
