##TITLE=<SNM>
##JCAMP-DX=4.24
##DATA TYPE=INFRARED SPECTRUM
##DATE=3/5/2025
##SAMPLING PROCEDURE=Instrument type and / or accessory
##ORIGIN=Admin
##XUNITS=1/CM
##YUNITS=ABSORBANCE
##RESOLUTION=4
##FIRSTX=4497.3318
##LASTX=599.83466
##DELTAX=-1.4281778
##MAXY=1.7181705
##MINY=0.1839264
##XFACTOR=1
##YFACTOR=1.600171e-09
##NPOINTS=2730
##FIRSTY=0.20448361
##XYDATA=(X++(Y..Y))
4497+127788601+127655176+127808632+127936116+127902918+127685887+127365547
4487+127097848+126900121+126756601+126961377+127771942+128736689+129015692
4477+128317629+127148134+126328062+126409413+127278133+128242470+128651649
4467+128390162+127825831+127453417+127501933+127790678+128003053+127963625
4457+127619733+127043409+126464579+126057783+125851471+125922160+126280374
4447+126555485+126300721+125581565+124801247+124123493+123539319+123244642
4437+123503541+124238602+124995277+125321735+125147895+124752553+124340869
4427+123833390+123160357+122429021+121648358+120699126+119751271+119276021
4417+119448363+119868335+120016288+119796091+119590970+119817220+120423502
4407+120944670+121049470+120803302+120409608+120004210+119620201+119123673
4397+118441459+117957000+118177793+118971586+119712746+120132262+120348110
4387+120148708+119102776+117416900+115967721+115399237+115596731+115996384
4377+116184435+116186502+116200098+116207129+116157383+116300847+116793027
4367+117255928+117321067+117193136+117120296+116850967+116233492+115802643
4357+116098399+116822155+117250369+117157666+116848006+116640055+116748831
4347+117282962+117943031+118064072+117343873+116255432+115510053+115342712
4337+115420274+115328064+115060235+114941718+115108267+115347070+115537198
4327+115913235+116653883+117436446+117702608+117305022+116625686+116073936
4317+115768020+115697396+115839156+116106417+116486403+117170014+118208448
4307+119111632+119236351+118626372+118070423+118201017+118845535+119366937
4297+119318168+118686687+117850915+117419712+117869195+119162114+120708997
4287+121735568+121852557+121336706+120705989+120145439+119629327+119346571
4277+119534668+120046655+120520154+120879578+121357882+122081340+122876167
4267+123481946+123719371+123464299+122712309+121722139+120966843+120853392
4257+121437781+122385366+123194179+123488977+123270828+123015953+123310787
4247+124151654+124847091+124891557+124600661+124600280+124980452+125244220
4237+124958205+124228396+123531310+123218969+123304054+123646139+124141587
4227+124724961+125338805+125898703+126269134+126391683+126401423+126432172
4217+126375293+126081511+125689941+125469614+125430288+125372049+125243243
4207+125268013+125761133+126752727+127711291+127945550+127446153+126937203
4197+126989705+127490293+128021668+128326112+128339848+128092636+127661154
4187+127182300+126868394+126869549+127097541+127361607+127701187+128336887
4177+129243321+130076002+130630638+131030719+131295448+131133219+130460457
4167+129769294+129626705+130016757+130439477+130580305+130663156+131031632
4157+131515468+131542883+130939916+130235483+130023183+130349874+130876081
4147+131342763+131678404+131849237+131873849+131919143+132121321+132331033
4137+132301662+132135355+132247223+132784780+133322459+133339119+132892355
4127+132560142+132737214+133260412+133723220+133904464+133878530+133876332
4117+134010251+134132363+134086574+133967899+133932364+133963849+134058237
4107+134391299+135059358+135847759+136441926+136689343+136562669+136116240
4097+135596739+135345914+135434017+135619107+135771976+136045700+136543653
4087+137136069+137670060+138094409+138372994+138483121+138498430+138569305
4077+138813789+139152288+139239255+138802921+138098367+137722935+137901469
4067+138234959+138236896+137865282+137433399+137226444+137348379+137754159
4057+138291279+138807829+139271066+139697463+140030916+140238476+140402874
4047+140552522+140569228+140431537+140313225+140266003+140069105+139550609
4037+138846223+138309271+138330055+139113931+140421303+141651914+142328373
4027+142407592+142153462+141852835+141626836+141462178+141415654+141631092
4017+142088220+142559745+142875188+142977538+142782633+142296954+141813305
4007+141676564+141887048+142204027+142579850+143171493+143931278+144511579
3997+144627293+144243964+143472129+142646144+142328047+142756578+143499414
3987+144055382+144437724+144784996+144915339+144700534+144454439+144550290
3977+144946656+145397200+145863128+146408564+146853978+146896665+146538721
3967+146120286+145985156+146300747+147022138+147795500+148075212+147622851
3957+146814354+146250471+146193517+146605183+147450426+148478552+148980165
3947+148578146+148031295+148340145+149381466+150148086+150121341+149717572
3937+149576818+150076512+151268683+152677586+153259246+152375860+150911689
3927+150477124+151523102+152897951+153441803+153452596+153937633+155022368
3917+155652797+154837716+152925114+151204605+150546948+150914399+152047632
3907+154128869+157365409+161061657+163737284+164476452+163307916+160482660
3897+156817180+154147829+154089311+156395745+158697431+159059677+158840560
3887+160120973+162096488+162562863+161969376+162237941+162698561+161574891
3878+159854103+159740959+161535054+164149928+166614428+167727259+166595990
3868+164822979+164757011+166077187+166383802+164631780+162373173+161706138
3858+164020432+169876782+177573564+181004953+176204424+168543811+163209113
3848+161152246+161766630+164193248+167545167+171247598+175019368+177970843
3838+178607147+176889879+174579552+172754820+171218060+169921276+169405006
3828+169757697+170592204+172376129+175984749+180093789+181397706+179925740
3818+178783707+178182975+175957520+172566303+170744161+171875503+175236101
3808+178601523+180265264+181516120+184270846+187130613+187129552+185153329
3798+183876287+183019524+181216285+179195811+178594594+179570125+181237070
3788+183198375+185504418+187915690+190476758+193923196+198110273+201177387
3778+202039923+202362368+204446873+209140908+215841803+222884866+228652005
3768+233249621+237678239+242242554+247494410+254694124+263836592+272752252
3758+279910210+287004472+296800678+310228374+325167967+337134406+344601400
3748+351532791+361399658+373098762+382068191+387293805+392805453+401871245
3738+415329802+431971801+448597932+461282568+468057625+470123004+470482381
3728+471821592+474994529+478987092+482442153+484706031+486016932+487928026
3718+492408698+500083094+510439337+522675087+534376314+541499984+543755816
3708+545365230+549600321+557107357+566470060+574854420+580402460+583932205
3698+586918265+589881640+592853657+596089881+600563700+606940380+612942672
3688+614920999+613413312+612199258+614078950+618719272+622886011+624139809
3678+623596832+623640488+625011807+627514487+630769968+632060346+629006828
3668+624557444+622422075+622020755+621426151+620877213+622418052+627380689
3658+634665312+641345682+645935048+650065432+655533797+661760699+666499507
3648+668448073+668137342+666921835+666248524+666512842+666521260+665556141
3638+665668707+669738673+677471475+685310883+690618408+693657845+694835656
3628+692899681+689113477+687286044+688840963+692165504+694855621+696181832
3618+697262647+699192737+701919283+704526336+706339017+708164512+711511775
3608+715824753+717800063+715522739+711179142+708355525+708765263+711250883
3598+713049112+712115729+708989650+706909969+709126503+715620554+722306215
3588+723410422+717296309+709056251+704898899+707294303+713951281+719514482
3578+720450697+718153630+716066275+715700267+716659501+718806008+722629237
3568+727451483+730949752+731955026+731462223+730025756+727332733+724299851
3558+722908828+724085670+727117732+730700036+733790355+735792857+736375579
3548+735352649+733195862+731066863+729660418+728811143+728305749+728537140
3538+729941722+731912488+732308966+729134761+723959769+721511621+724413908
3528+730100998+734086782+734900597+734047671+732993526+732288106+732057833
3518+731764982+730545974+728613723+727068862+726125793+725214983+724691487
3508+725611386+727627894+728919239+728533489+727220539+726179059+725797109
3498+725738032+726190905+727953524+730978285+733468822+733413620+730860802
3488+727526427+724972492+724072037+725058910+727089349+728054915+726394954
3478+723460112+722675575+725763808+730291713+731893119+729298880+725411583
3468+723072648+722628343+723480524+725262289+727553098+730211106+733685909
3458+737543259+739550156+738377113+735656377+733562615+732789253+733482605
3448+735434821+736816532+735047506+730067102+724691338+721075957+718846684
3438+716935814+715587477+715786014+717973643+721974699+727042191+731976482
3428+735686400+737879169+738650818+737377277+734055642+730668076+729262004
3418+729721283+730674036+731828082+733828573+736140539+737170620+736645858
3408+735505519+733585784+729863797+724922132+721193068+720400187+722114755
3398+724705269+726773627+727845427+728285858+728575879+728769647+728853011
3388+728959840+729185718+729628459+730397649+731302649+731800294+731516457
3378+730521539+728936299+727142987+726271660+727144552+728969227+730248281
3368+730904681+732259797+734814701+737406406+738690898+738446321+736941242
3358+734649613+733005148+733118385+733844962+732999188+730250888+727235811
3348+725355188+725257372+727066552+729889201+731782266+730996165+728046199
3338+725392511+725057643+727232831+730653772+733696786+735347733+735860501
3328+736244091+736544317+735849923+734254179+732784858+732051352+731906230
3318+731609580+730590747+729839213+731348912+735327469+739465377+741200134
3308+739439154+735188903+731735630+731920832+734656765+736466541+736144040
3298+735096153+734161354+733160029+732390913+732351802+732952552+733819707
3288+734547402+734776111+734746386+735449869+737533052+740020833+741123625
3278+740375145+738713396+736636471+733820452+730424766+727549075+726579783
3268+728421817+732363796+736021640+737464812+736898182+735707483+734596645
3258+733418909+731843131+730069039+729371814+731159017+734966974+737873657
3248+737360515+734335977+731958751+732066252+733724797+734882121+734653338
3238+733601205+732524860+731997565+732697770+735139437+738863733+742194978
3228+743132385+741180914+737996801+735690050+734855451+734729103+734516784
3218+733596363+731470418+728614245+726896399+728033534+731322465+733511584
3208+731922396+727625435+724255302+724014376+725714044+726415069+724501740
3198+720926589+718067064+717664179+719387612+721480927+723073617+725094222
3188+728133063+730659881+730581286+727936240+724723893+722332140+720830189
3178+720290750+720782808+721198432+720067256+717641756+715611168+714694025
3168+713955602+712538132+710691703+709187964+708647929+709185431+710117175
3158+710626517+710862675+711328734+711606611+711118203+710430811+710148166
3148+709361097+707259512+705396992+705923841+708443134+710450106+709976747
3138+706644384+701475276+697073944+696308329+699282656+702824507+703979447
3128+702796123+700953419+699408632+698200724+697243501+696676200+696818863
3118+697657932+698220242+697326864+695283388+693738377+693473835+693356948
3108+691996171+689713706+687890594+687141444+687205661+687686694+688181881
3098+688094197+687137496+685851216+684913735+684313655+683666492+682867279
3088+682155452+681810155+681963322+682508870+683128096+683613971+683923882
3078+683680274+682188008+679515994+676832283+675146099+674544082+674660969
3068+674989356+675018484+674771673+674771226+675086799+674864423+673207665
3058+670375406+667940817+667517744+668950039+670175082+669637729+668134213
3048+667470437+668322842+669635121+669444481+666811951+663209235+661101468
3038+661217386+662085286+661923477+660323934+658376858+657546803+658245965
3028+659353376+659215182+657221694+654491274+652940378+653470952+655111171
3018+656073906+655332951+653030073+650082864+647554854+645821587+644580602
3008+643787126+643741086+644123037+643897755+642544800+640757447+639448744
2998+638571383+637490791+636117424+635026403+634765213+635471006+636680851
2988+637387612+636891009+635541257+634139953+632907610+631592797+630331027
2978+629767227+630129585+630569793+630004876+628524529+627243390+626848253
2968+627060944+627319899+627198691+626332504+624448417+621590456+618437856
2958+616187500+615561122+615957786+616163921+615818139+615351522+614762877
2948+613567746+611825800+610233260+609166376+608275680+607131989+605990533
2938+605668292+606319553+606621604+605145206+602334812+599936689+598824920
2928+598519218+598383483+598166657+597492079+595929822+593859453+592529182
2918+592658920+593330816+593002169+591401359+589458046+587762512+586259332
2908+585062375+584407986+583931684+582951404+581486106+580341409+580131959
2898+580637464+581172395+581203387+580566132+579472839+578313541+577262264
2888+576250360+575275519+574321536+573173450+571795948+570568633+569812145
2878+569484280+569403189+569399501+569287307+568831679+567690670+565656133
2868+563166676+561106625+559888510+559203018+558691703+558316196+558068640
2858+557822797+557542648+557303659+556992816+556214426+554687518+552612231
2848+550472802+548579514+546952146+545559111+544453451+543656399+543008528
2838+542281690+541457148+540717012+540135742+539558235+538780626+537744063
2828+536632630+535725880+535032528+534256708+533239700+532196954+531425715
2818+530958688+530522019+529728431+528341989+526468480+524608790+523414403
2808+523041616+522845314+522154272+521092119+520125510+519316686+518535800
2798+517768957+516818178+515401527+513788648+512631995+512053109+511515235
2788+510694716+509892299+509362210+508788018+507801964+506585713+505516408
2778+504589431+503559200+502353602+501126511+500126973+499570251+499415444
2768+499279076+498720491+497590545+496077494+494483538+492978495+491537595
2758+490056354+488471450+486815438+485237536+483966081+483167166+482741523
2748+482311261+481609267+480846484+480388136+480121620+479538600+478411038
2738+476952854+475334277+473503343+471576121+470035804+469309040+469237038
2728+469138775+468417673+467020280+465301727+463628095+462166075+460912723
2718+459840029+458976599+458333496+457804934+457179264+456257018+455030150
2708+453742753+452639701+451674208+450650757+449599406+448751584+448182085
2698+447677846+446939461+445837340+444520814+443287353+442300890+441472511
2688+440646740+439836017+439185427+438722721+438246270+437514962+436454895
2678+435150065+433809737+432757679+432194065+431950606+431696680+431248092
2668+430482887+429295056+427850766+426568621+425679564+425032103+424367657
2658+423610722+422843468+422075545+421182502+420175961+419351643+418949280
2648+418809373+418549413+417972241+417228529+416636345+416264526+415721921
2638+414589405+412990123+411463774+410374168+409660926+409074814+408485052
2628+407940398+407507156+407157239+406842747+406550343+406233578+405802012
2618+405195190+404424696+403569237+402741566+402041994+401520174+401131034
2608+400744614+400294684+399864050+399497744+399065321+398460771+397770921
2598+397108635+396449217+395764210+395188863+394883533+394732750+394393710
2588+393775005+393229234+393065414+393121846+393017102+392602782+392010189
2578+391416366+390881137+390373508+389912888+389596198+389440982+389306811
2568+389042232+388653875+388294050+388078267+387915489+387586172+386980467
2558+386199729+385500642+385167785+385276515+385566349+385702978+385600841
2548+385386474+385198851+385079170+384911140+384526508+383980215+383570961
2538+383496426+383628325+383688482+383565709+383402037+383386169+383518515
2528+383616964+383520228+383267122+383095591+383182418+383347058+383180481
2518+382550266+381787632+381290918+381146280+381188148+381222566+381111229
2508+380795954+380373290+380075224+380055222+380204515+380251263+380015961
2498+379541075+379043355+378761120+378753409+378819973+378682897+378257403
2488+377706826+377275335+377115276+377184224+377233392+377002598+376483460
2478+375884162+375382754+375099998+375180642+375610643+376068246+376240150
2468+376170122+376069848+375952625+375666070+375166114+374588048+374079228
2458+373687779+373446928+373427335+373568247+373585605+373254425+372693978
2448+372212983+371985131+371999621+372179049+372391778+372444410+372196742
2438+371665461+371008949+370487352+370355193+370603084+370872096+370823002
2428+370494317+370114676+369742895+369319598+368895705+368586204+368408750
2418+368312760+368276889+368285345+368297935+368316187+368395266+368522471
2408+368592164+368555548+368440486+368209618+367852959+367624623+367842082
2398+368420446+368930943+369119758+369044664+368774088+368334699+367873372
2388+367508369+367095242+366394776+365314222+363759601+361465812+358243147
2378+354299194+350155251+346274621+342810956+339648336+336620073+333696517
2368+331047858+328971864+327631089+326861303+326501068+326866368+328563765
2358+331892887+336643913+342449194+349240306+356937274+364521043+370183140
2348+372602644+371913837+369733843+367765201+366078048+363756174+360585806
2338+356933996+352841681+348219090+343583647+339952548+337952691+337255838
2328+336971554+336512163+335976933+335788007+336169436+337065421+338356990
2318+339887213+341383652+342631975+343668277+344636116+345590061+346571607
2308+347676038+348862751+349851226+350392452+350560669+350629840+350762744
2298+350995885+351412253+352081654+352855053+353421200+353610759+353576714
2288+353634785+353893814+354097267+353967939+353622232+353396652+353351283
2278+353249482+352990267+352751650+352688141+352737980+352773850+352746994
2268+352627611+352371152+352021497+351725331+351587882+351596189+351669606
2258+351714417+351694265+351681526+351733488+351756098+351651689+351520424
2248+351537820+351729726+352006932+352300119+352544136+352663966+352693691
2238+352789272+353026286+353311315+353571685+353861594+354187112+354414852
2228+354454373+354373170+354300870+354358233+354611154+354957941+355181658
2218+355229933+355293479+355534107+355915052+356340062+356771852+357161625
2208+357442258+357664783+357985384+358438071+358879955+359244770+359651454
2198+360137217+360508924+360644734+360758269+361162792+361887991+362673050
2188+363269293+363662791+364033864+364516685+365007365+365302712+365433269
2178+365712264+366405280+367461696+368591978+369540931+370280360+370960711
2168+371693584+372472161+373341066+374495336+376123151+378254683+380797369
2158+383599866+386494219+389419154+392472224+395680474+398771986+401384625
2148+403490605+405439803+407607840+410121248+412834124+415476823+417943522
2138+420440801+423190963+426060397+428738520+431237885+433933664+437098258
2128+440617052+444165869+447454278+450247389+452336308+453614989+454112821
2118+453916519+453113209+451746881+449769150+447152040+444111932+441046048
2108+438148603+435268852+432233996+429100021+425977406+422836093+419625683
2098+416412926+413263046+410118603+406890649+403571733+400225141+396954946
2088+393920723+391309127+389204377+387482284+385916265+384414538+383067803
2078+381980544+381166916+380554059+379979383+379274782+378449346+377691889
2068+377144032+376774374+376484168+376207408+375876898+375418699+374871215
2058+374401022+374089285+373817853+373481904+373176389+373072055+373222168
2048+373524517+373793305+373911049+373941742+374027340+374239734+374622541
2038+375254581+376192397+377437777+378936599+380535547+382016229+383214303
2028+384054639+384529562+384681910+384535299+384071661+383336107+382447385
2018+381454142+380306131+378965579+377453608+375855145+374348873+373120143
2008+372178602+371345530+370461799+369548828+368739185+368095263+367543011
1998+367006552+366583367+366471248+366640842+366714222+366321917+365465527
1988+364396259+363361633+362574303+362140800+361944759+361802430+361682414
1978+361618793+361566459+361475199+361346094+361200339+361156124+361375558
1968+361695377+361589739+360852397+359971609+359474485+359323068+359236948
1958+359171204+359150531+359004813+358591611+358066475+357745688+357805621
1948+358199156+358820207+359588951+360213987+360122541+359100617+357760513
1938+356876484+356589742+356542845+356469167+356402268+356445663+356565530
1928+356713259+357043508+357691006+358380782+358764148+359036996+359486330
1918+359681738+359051784+358011719+357520406+357890958+358607143+358937057
1908+358555032+357742745+357041236+356731064+356719852+356812490+356947257
1898+357197234+357552887+357824506+358008963+358472861+359262873+359633165
1888+358972332+357750195+356797330+356340249+356176055+356155568+356230029
1878+356364311+356531261+356764588+357352413+358817451+361259639+363604049
1868+364120729+362405789+359922738+358196921+357611331+357700244+357854156
1858+357753845+357474068+357281082+357329431+357637554+358220313+359140846
1848+360617989+362843426+365120825+365743255+364159431+362044548+360971631
1838+360954757+361213637+361486522+362460805+364745021+367496561+368847617
1828+368388003+367527404+366955037+366070561+364735075+363728758+363561362
1818+364007976+364680170+365566881+366907544+368579797+369849799+370102533
1808+369680019+369557880+370460160+372444708+374903398+376854347+377675537
1798+377795106+378441822+380590899+383852489+386112343+385587469+383512965
1788+382413488+383204320+385195871+387501840+389751600+391641834+392864158
1778+393867569+395896443+399879843+405223722+409473601+410548046+409310227
1768+407702564+406780727+407358086+409899468+413395614+416031311+417543170
1758+418880853+420200359+421529215+423910203+428058541+432756561+435712487
1748+436247977+435702094+435576118+436674701+439057328+441911638+444135436
1738+446075062+449529751+454937549+459292209+459635607+457855928+456593003
1728+456388805+457328297+459495067+462447118+466052479+471316385+479062559
1718+487596324+492579708+492192990+489568394+488055678+488938403+492277768
1708+497522044+503360291+508393626+513132732+519512988+527417806+533424567
1698+535856512+536667197+536640192+536047748+536757638+540025076+545355173
1688+552318412+561853205+573576521+581985837+582772535+580481130+580324238
1678+583811742+590356750+597948453+604597572+610680880+617285859+622921621
1668+625286182+626115567+629184878+635507882+642464566+647012286+649814150
1658+653996236+662009894+674717737+689177396+696873247+697168258+698572915
1648+703611130+708433598+709043810+707271879+706701449+708505638+712883504
1638+719760251+726968737+729616315+726502827+722732491+721763498+722932667
1628+724069206+724221778+723852939+722726233+720239272+717786132+717376096
1618+718327657+717146941+712066113+705954981+701501723+698604278+695846219
1608+692247303+688184786+684707898+682263251+680466884+678890733+677695639
1598+677275993+677451584+677453298+676804868+675723011+674462433+672885835
1588+670925647+669017087+667756807+667254096+667215431+667821993+669885360
1578+673519215+676813883+677493228+676900821+677909969+680745804+683495594
1568+685150340+686934638+690028161+694914251+702810278+715534137+731699499
1558+742519640+744376275+744835629+748182072+754045798+761178519+768947676
1548+777457416+787213355+798263769+809788660+820688961+828461396+828448433
1538+822039682+816780581+815930486+817920175+819813612+820927653+823064698
1528+827236949+832487185+837776979+843472116+849360723+853463245+855364952
1518+856994815+858803921+859907681+860874589+863441412+868606124+876017691
1508+883034717+883933385+877409236+870935150+868969301+870779524+874521253
1498+878410636+880782945+881294001+881587820+883172762+885650858+887246453
1488+886952410+885601689+884518789+884499345+885615695+887274539+889039318
1478+891385181+895041535+899730951+903663468+904623522+902841906+901229773
1468+901627815+903401385+904700627+904538371+904226002+905989366+910683400
1458+916155788+917379341+913138775+908375308+906233197+906344124+906896675
1448+906235134+904527047+903491006+903879214+904767824+905566963+907074352
1438+909560941+910916280+909176309+906210848+904813939+905227551+906002701
1428+906429350+907119870+908401680+909934995+911933846+914825629+917081275
1418+915789408+911359319+907341725+905684446+905903395+906769656+907585035
1408+908243968+908536223+907976372+906855105+906458553+907317364+908409055
1398+908557083+907554640+905398076+901987490+898005134+894443317+891441203
1388+888486991+885495754+883461068+883767776+886861374+891772048+896921115
1378+901288030+904567351+906632803+907685830+908715987+910752311+913681640
1368+916627956+919256836+921766817+923696237+923948188+922527142+921021764
1358+920801101+921838633+923208201+924265475+925284084+926724425+928197769
1348+928802617+928439514+928212892+929425791+932390135+936058558+938780113
1338+939731972+939548335+939459235+940221646+941677781+942944990+943398085
1328+943692501+945148785+947691545+949363426+948738463+946880934+945814498
1318+946194362+947531822+949431815+951338811+952183542+951615123+950772180
1308+950755493+951206800+951158973+950507340+949906888+949666036+949453345
1298+948914725+948026637+946902837+945683530+944541180+943395106+941784239
1288+939494324+937035448+934915612+932832429+930177847+926966543+923767382
1278+921073019+919036098+917498984+916165175+914934173+913973225+913321667
1268+912501371+910786356+908098623+905246250+902850324+900580152+897970120
1258+895113351+891966115+888222971+884440268+881922911+881104404+881212351
1248+881585809+882148342+882652767+882719889+882688898+883405419+884972332
1238+886425710+886865843+886404404+885836805+885861612+886745380+888380683
1228+890469826+892683082+894685584+896152298+897020272+897716454+898848002
1218+900651446+902892937+905271579+907725389+910170334+912108991+912928691
1208+912688733+912328909+913095789+915734726+919723043+923278602+924819888
1198+924491874+923812826+924181888+926037778+928848284+931631523+933938498
1188+936273857+939121313+942056230+944490820+946692157+949173531+951583909
1178+953174289+954123838+955464352+957667254+959922601+961009152+960797802
1168+960694622+962217135+965158533+967800152+969100736+969705733+970614904
1158+971949682+973238718+974244216+975233771+976929714+979775755+982881868
1148+984684716+985019658+985497264+987188812+989055356+989864328+990705706
1138+993711322+998614845+1002328339+1002473237+1000488465+1000155683+1003402076
1128+1008488565+1012417358+1014222515+1014981127+1015767303+1016740021
1120+1017570002+1017930497+1017639657+1016962919+1016837762+1018185056
1111+1020820715+1023285849+1024048483+1022847652+1020730349+1018866786
1103+1017831191+1018057962+1019906701+1022598755+1024425368+1025106725
1094+1026438895+1029813350+1034536141+1038627339+1040269569+1039071495
1085+1036641003+1035289314+1035944746+1037977047+1040627382+1043587405
1077+1046730246+1050010758+1052986575+1054650111+1054695555+1054059791
1068+1053570042+1053367631+1053889786+1056098573+1059788377+1062600521
1060+1062131632+1058712926+1055253693+1054224431+1055747614+1058515358
1051+1061383599+1063729313+1064934241+1064892299+1064863542+1066709152
1043+1070563596+1073741823+1073427144+1070069452+1066470535+1064503345
1034+1064304660+1065491708+1067364063+1068213263+1066626459+1063672545
1025+1061977198+1062745420+1065135832+1067833026+1069743747+1069854600
1017+1067624582+1063744883+1060174425+1058624050+1058502172+1057370922
1008+1054530766+1052410632+1053422536+1057028753+1060156918+1060008145
1000+1056641364+1052600825+1049942295+1048141682+1045312254+1041098209
991+1037435969+1036313883+1037523728+1039164394+1039798147+1038987461
983+1036494018+1032362442+1027826194+1025094135+1025274271+1026532092
974+1025515197+1020907803+1014152785+1007169507+1001354801+997965521+997071920
964+996507003+993855550+989233555+984309173+979696490+975449218+972377598
954+970833407+969783806+968206240+966151441+963764455+960376815+955616998
944+950700141+947713895+947580767+948918450+949669835+949540805+949539986
934+949912549+950411164+951703627+954363945+957081700+958048161+957662411
924+957706141+958468329+958461326+956633596+953649808+950887354+949007475
914+947876449+947386104+947556108+947659139+946325851+943303026+940144690
904+938721036+939738304+942558495+945800343+947963015+948002574+945931459
894+942789662+939899518+937980006+936730379+935325127+933301318+931034498
884+929691898+930381003+932742957+934900042+935538488+935053507+933988188
874+932073296+929510868+927594262+927345513+928438397+929591698+929789266
864+929182854+928626429+928473932+928237476+927387754+926078007+925106779
854+925401790+927107120+928973813+929289907+928011599+927116507+927944476
844+929195742+928741603+926662815+925011049+925133598+926499814+927787137
834+928328960+928716646+929877844+931622286+932384026+930728982+927623986
824+926211507+928155454+931396334+933182047+933920321+935636677+938549319
814+941283762+942755095+942586729+941311252+940591826+941581754+943264585
804+943933576+943598038+943204689+942780424+942082677+941825361+943095848
794+946028232+949285203+951031805+950728301+949384956+947704731+945179403
784+941869241+939488588+939451413+941112268+942643348+943041911+942954525
774+943412836+943892602+942767983+940184099+938681627+939781290+941907458
764+943052043+943640054+944819355+945604190+944137477+941053042+939280292
754+940265153+942242251+942912881+942287323+941648653+940954854+939169588
744+936986205+936892487+939767582+943539035+946197118+947719780+947814914
734+945325345+941527892+939758568+940981524+943150529+944507135+944944363
724+944516745+943181669+941751683+941588160+942883827+943920166+943272780
714+941934873+941385973+941158531+940234460+938811700+937730066+937424476
704+937845240+938598189+938824067+937281589+933286419+927925777+923351312
694+920742025+919821157+919998983+920573510+920392481+919393763+918649976
684+917495036+913956090+908043644+901851904+895934317+889120297+882458476
674+879003490+878767108+878197870+875459255+873952760+877867249+883157415
664+884119704+881152157+877125697+873916181+872062898+870610041+867936835
654+864348200+862140381+862186123+862539988+861128924+857794773+853941968
644+851838596+853061702+856409188+858302029+856850066+854303283+854093199
634+856980512+860725816+862560549+861450829+857615382+851141669+843032206
624+836537856+834581841+836022182+836086921+831764556+825781262+823081981
614+825317960+830574676+835840706+838286470+836646772+833227396+831750252
604+832278740+831758522+829177395+826610274
##END=
