##TITLE=<SNM>
##JCAMP-DX=4.24
##DATA TYPE=INFRARED SPECTRUM
##DATE=3/5/2025
##SAMPLING PROCEDURE=Instrument type and / or accessory
##ORIGIN=Admin
##XUNITS=1/CM
##YUNITS=ABSORBANCE
##RESOLUTION=4
##FIRSTX=4497.3318
##LASTX=599.83466
##DELTAX=-1.4281778
##MAXY=1.7296653
##MINY=0.17932501
##XFACTOR=1
##YFACTOR=1.6108763e-09
##NPOINTS=2730
##FIRSTY=0.20016696
##XYDATA=(X++(Y..Y))
4497+124259667+125078711+126646219+127555593+127246992+126276714+125595223
4487+125646312+126059636+126414794+126916819+127714773+128209712+127932415
4477+127428576+127404627+127692664+127830855+127939130+128247777+128401592
4467+127882962+126745743+125586934+125013653+125161391+125623806+126022857
4457+126470120+127039405+127183063+126308341+124628895+122950873+121991427
4447+122181466+123540434+125360403+126441148+126100134+124894796+124037307
4437+123991111+124006328+123311581+122249077+121690671+121849888+122299075
4427+122686350+122815762+122438228+121568224+120739541+120467507+120534896
4417+120210856+119293934+118502632+118482651+118904781+119029670+118745176
4407+118467962+118372822+118345404+118420535+118696454+118949719+118764454
4397+118045591+117201016+116751283+116773955+116843795+116608846+116186679
4387+115817941+115501145+115233597+115232783+115614887+116107394+116284963
4377+116021606+115620520+115448612+115519636+115639151+115744660+115740368
4367+115377014+114720157+114280016+114335463+114641501+114955781+115272633
4357+115543225+115677891+115765150+115979573+116368679+116813315+117075535
4347+116912988+116228518+115193090+114298091+114032764+114253384+114182101
4337+113339783+112144851+111355205+111321404+111893908+112632002+113088914
4327+113257270+113551653+114019619+114050358+113358626+112623242+112548953
4317+113022413+113702184+114554187+115380391+115769294+115834333+116147143
4307+116792918+117254779+117247110+117030634+116929379+116923274+116725067
4297+116097135+115135654+114368301+114447614+115478528+116727176+117325692
4287+117136939+116594138+116009053+115490979+115162721+115013485+114912564
4277+114984735+115454190+116050745+116201988+115860835+115569690+115709241
4267+116163534+116725816+117428510+118281697+118936732+119024379+118800752
4257+118926936+119537773+120068586+120011197+119397131+118647872+118228276
4247+118290373+118628353+119080603+119608131+119935085+119778430+119418129
4237+119339233+119522825+119664864+119670044+119538402+119335283+119444909
4227+120232789+121399747+122151532+122051443+121482168+121212881+121495590
4217+121764044+121497708+121025802+121013462+121531296+122082959+122222649
4207+121890996+121455999+121450023+121931864+122280815+121999392+121437211
4197+121322544+121822793+122447108+122747171+122754978+122705045+122627462
4187+122431928+122243915+122363208+122821618+123217227+123211141+123038816
4177+123174777+123575983+123738475+123518890+123386546+123768233+124544920
4167+125252701+125499861+125167329+124435035+123716589+123445035+123713480
4157+124082088+124035781+123718846+123765588+124300054+124706264+124601930
4147+124405055+124629912+125181390+125632020+125762783+125610051+125281266
4137+124912649+124670993+124677653+124917376+125242627+125511100+125727096
4127+125975033+126200103+126167430+125711139+124990629+124435294+124394482
4117+124859043+125569368+126304928+126943303+127338876+127347071+126985300
4107+126482201+126158707+126222044+126606766+127039479+127293577+127349208
4097+127284502+127142500+126934265+126613556+126049322+125246429+124616166
4087+124737142+125730296+127075935+128137097+128660315+128705845+128384081
4077+127853518+127359208+127054899+126897246+126756696+126494430+126000388
4067+125354038+124859866+124744265+124905702+125079423+125141354+125174868
4057+125332134+125696542+126229121+126746132+126956087+126715504+126298480
4047+126151270+126353196+126626405+126817369+126971248+127009980+126763023
4037+126292347+125902917+125876923+126302892+127030321+127721303+128076961
4027+128064195+127854638+127565370+127179529+126772412+126682286+127242977
4017+128308080+129231783+129465326+129026629+128283438+127546851+127058202
4007+127017907+127354259+127770626+128180296+128724392+129297294+129503299
3997+129174329+128540440+127890418+127425561+127371039+127827340+128526333
3987+129068274+129374710+129607467+129725150+129500626+129044491+128977565
3977+129821622+131304406+132470773+132597613+131919850+131280864+131186973
3967+131538967+132185251+133135623+134078945+134361275+133848084+133272130
3957+133311860+133768522+134029752+134083940+134558538+135625575+136417432
3947+136163936+135436683+135258262+135514006+135284589+134366538+133443113
3937+133174807+133963214+135947515+138513477+140223496+140161028+139237723
3927+139185154+140439658+141682488+141684060+141019127+141078320+142018303
3917+142453078+141131445+138512302+136177145+135154538+135518863+137347989
3907+141153091+146840119+152708667+156487933+157444770+155976574+152182739
3897+147037882+143188879+142774250+145180857+147129535+146343154+145013333
3887+146139563+148989714+150813873+151590587+152782235+152889253+150045364
3878+146803830+146844606+150396969+155362628+159981399+162552847+161689050
3868+159248106+158390525+158946822+158071092+154692755+150986447+149641734
3858+152355822+159994960+171061370+177956577+173584975+163503209+155114201
3848+150738705+150472101+153485696+158181523+163141909+167857809+171592043
3838+172526069+170041797+166176022+162809840+160124724+158035848+157128593
3828+157567300+158781963+161181206+165947391+171552267+173543496+171574523
3818+169641867+168201903+164720961+159726460+156437629+156940978+161205923
3808+166725067+170240809+172317881+175690242+179325387+179616162+177194404
3798+175109487+173338009+170878028+168859344+168882913+170860526+173830164
3788+177391047+181450265+185476163+189380160+194254962+200551061+206587651
3778+210794634+214280645+219305562+227180565+237812541+249145083+258014091
3768+263564687+267611250+271787688+277439242+286270860+298586732+311833411
3758+323167118+333611127+346992454+366074842+389756242+411679670+426491729
3748+437739630+450808480+464472682+472099295+473889644+477521625+487652603
3738+504625986+525283634+542787284+550968437+551110559+549419411+549555280
3728+550957262+551107118+548350108+543540040+538332096+533323996+529201969
3718+527501718+529343203+534970632+543718387+552255123+555336117+552303076
3708+547701770+545461892+547100387+551937651+556935760+558998661+558406750
3698+557863274+559789565+565146736+572928829+580874764+586664481+588415608
3688+586051294+582188128+579655384+579788996+582891561+588459085+595664548
3678+603631981+609409746+608907749+604295601+600925330+598678606+593580815
3668+585716801+579307090+576255734+575423647+575321782+576013708+578370437
3658+581767237+583899331+584399737+586576529+593450534+603760413+610783718
3648+609192807+602527786+596715683+594361693+595037967+596875677+598560683
3638+600094316+601957891+604689295+609243203+616472310+624626933+627920648
3628+623105215+616161610+613500767+616287007+623258992+632342609+640282735
3618+644342304+645159590+644797643+644159443+644205473+646442280+650481277
3608+653628910+654638085+655202430+656642968+658218043+659236543+660978716
3598+664985669+670436934+674625342+675788814+675069433+675223136+677933709
3588+681688831+682244518+678043382+672858674+670869406+672288631+674207227
3578+674415692+673237272+672088084+672391791+675085935+679214845+681834469
3568+680980847+678087931+676072022+675733385+675521812+674075872+671493175
3558+668796811+667378844+668203605+670552304+672564365+673660716+674533801
3548+674325261+671011862+665396088+661213674+660668052+662683813+665224550
3538+667130269+667758108+666627494+664104370+661657913+660850691+661984561
3528+663709787+664334889+663369967+661229215+658214417+654816950+652158845
3518+651340005+652533077+654534408+655143894+652671462+647747615+643221310
3508+641829244+644315219+649155517+653215604+653825831+651489860+649483053
3498+650010249+651784835+652064048+650232627+648111264+647100831+646770556
3488+646372347+646236626+647248836+649516873+651864536+652849587+652215457
3478+650641197+648430882+645677980+643011142+641002559+639725938+639418456
3468+640393739+642170027+643770929+645002704+646453898+648068935+648762193
3458+648001222+646617001+645261344+643677019+642347559+642793870+644976951
3448+646461817+645633948+643436954+640963634+638479657+636625444+635786919
3438+634862255+632856410+630979330+630954391+632052666+631905474+629956538
3428+628208667+628384349+629881647+630780633+629894301+627511635+624826075
3418+623231019+623640921+625557222+627150427+626947956+625386276+624251961
3408+624738677+626367626+627450212+626549155+623984071+621767319+621577502
3398+622982666+623805059+622068140+617823934+613303475+611021637+611559452
3388+613129569+613627866+612819682+611922436+611803143+612509685+613870854
3378+615693246+617571066+618956694+619549974+619234500+618013492+616662053
3368+616570956+618039837+619637556+619969607+619100185+618038542+618009052
3358+619792962+622563736+624453915+624869736+624648024+624352013+623892826
3348+623095742+621708116+619766765+618125347+617409925+617094304+616640075
3338+616342140+616277165+615877328+615147624+614870447+615187623+615383471
3328+615325749+615795222+617113877+618483890+618979672+618562851+617729765
3318+616561003+614687919+612310395+610589757+610450225+611351727+611764736
3308+610711492+608685592+607339149+608176453+610979789+613588941+613960213
3298+612415405+611102263+611315243+612054161+611434943+609167091+606975574
3288+606448304+607258856+608057457+608519382+609504655+611438791+613562115
3278+614848801+615062595+614751524+614615248+614832224+614760368+613766881
3268+612335741+611382179+610681151+609325087+607545395+606487747+606335598
3258+606146891+605663283+606045026+608119767+610711862+611789453+611044171
3248+609880626+608940976+607566486+605830899+605046396+605860352+607317281
3238+608016126+607446194+606169906+605040364+604444975+604322427+604211719
3228+603082214+600414674+597618258+596756422+597980168+599484348+599711130
3218+598571450+596877749+595488570+594817735+594896548+595793276+597383262
3208+598788093+598918930+597456562+594822582+591832796+589520728+588447170
3198+588102502+587568165+586602651+585518363+584626778+584318334+584889710
3188+585878164+586192417+585199633+583236488+580951135+578722653+576891381
3178+575964015+576165007+576888495+576959093+575730610+573709262+571745007
3168+570049308+568489959+567205345+566257443+565305546+564225661+563591568
3158+563980416+565025113+565560744+564654803+562436089+560035958+558667647
3148+558598676+559054644+559161393+558591905+557241576+555130722+552951859
3138+551804187+551855619+552021385+551568118+551230666+551845776+552595128
3128+551861724+549599904+547468846+546690263+546991085+547452011+547269150
3118+545782361+542911535+539709546+537736337+537772894+539283253+540875756
3108+541248767+540083297+538187569+536593438+535520065+534423344+533018254
3098+531731457+530906141+530242596+529495649+529081418+529368475+529934300
3088+530163339+530145245+530315488+530469192+529851084+528271828+526510747
3078+525403296+525010305+524846869+524518112+523950955+523246116+522506125
3068+521877990+521594892+521598666+521227395+519779457+517473827+515342695
3058+514054381+513376035+512855056+512494403+512522931+512844732+512960510
3048+512394685+511266401+510332006+510192695+510568370+510603152+509726182
3038+508045024+506153440+504691553+503824203+503081512+501913933+500366609
3028+498988641+498094059+497305929+496056763+494584145+493912200+494441838
3018+495130655+494743769+493459266+492393515+491930591+491409279+490324435
3008+489059728+488286621+488196893+488466485+488537861+487942841+486824364
2998+485945211+485677062+485422345+484536643+483242075+482177509+481660895
2988+481636215+481782482+481660340+481082416+480151350+478950100+477607024
2978+476426902+475496392+474509824+473273201+471964462+470840841+470084237
2968+469756886+469608251+469255036+468693207+468173523+467592601+466620464
2958+465406153+464483153+463947447+463306103+462270101+461275726+460855279
2948+460768844+460277799+459235729+458387805+458368898+458734915+458469985
2938+457420219+456502215+456275915+456135420+455353840+454188334+453323131
2928+452854101+452388772+451650964+450576888+449212092+447863392+447042813
2918+446950975+447179348+447102089+446457340+445449089+444440395+443642867
2908+442994640+442307561+441548552+440841530+440143424+439219759+438098839
2898+437232045+436969705+437059804+436879792+436100284+434978217+434004637
2888+433370248+432855781+432208738+431424864+430570724+429605136+428580679
2878+427783003+427443478+427454542+427515631+427420796+427100846+426561365
2868+425899300+425262025+424722286+424233942+423697052+423061627+422399376
2858+421829814+421346502+420834810+420292666+419850869+419500651+418987664
2848+418084868+416907595+415889354+415335221+415040949+414552457+413776390
2838+413061005+412660354+412411483+412009574+411426618+410948745+410737134
2828+410450373+409615326+408361238+407315024+406731735+406280799+405770032
2818+405489561+405614552+405721782+405247720+404221043+403178418+402408197
2808+401622510+400508880+399322875+398579443+398302081+397993896+397297752
2798+396297753+395233334+394297717+393615523+393071936+392355256+391383156
2788+390360882+389346563+388243367+387251175+386778852+386801941+386728567
2778+386077602+385051036+384229346+383836170+383586299+383168073+382500457
2768+381563989+380377540+379109576+377920796+376793586+375686357+374683249
2758+373891864+373360339+373092079+372955655+372618314+371780232+370481558
2748+369052602+367792557+366800587+366031735+365358199+364611511+363671861
2738+362546390+361416960+360609738+360293672+360145297+359624354+358677452
2728+357805885+357382996+357279429+357171644+356870934+356317837+355530855
2718+354613924+353666392+352697733+351729222+350874194+350164175+349436395
2708+348599165+347821581+347240326+346742028+346236516+345819510+345501668
2698+345118963+344592951+343974066+343275406+342523982+341835831+341247139
2688+340634211+339902398+339114971+338426117+337958234+337647238+337177764
2678+336265791+335065022+334077234+333580046+333356447+333068539+332671810
2668+332316079+332044415+331751438+331294730+330583378+329678510+328789885
2658+328088856+327588006+327201970+326805316+326288147+325686468+325143399
2648+324669374+324133853+323510121+322881097+322253110+321630229+321139109
2638+320803729+320400192+319838400+319430867+319435418+319573914+319370740
2628+318789707+318196649+317813981+317499728+317014196+316319828+315603407
2618+315062854+314718186+314485411+314374628+314429649+314487705+314249379
2608+313646256+312944155+312429910+312131124+311876295+311539324+311178301
2598+310920846+310729771+310398275+309842496+309267957+308932965+308846419
2588+308808474+308666259+308432355+308201244+308012796+307772232+307318780
2578+306641285+305983992+305638066+305663856+305871971+306003178+305886198
2568+305521901+305078920+304762725+304673459+304837653+305321705+306133052
2558+306994611+307457184+307338650+306848585+306223854+305520532+304832805
2548+304399797+304331437+304396467+304235677+303766315+303244873+302884072
2538+302594666+302244614+301942073+301838654+301866664+301878042+301837100
2528+301735734+301528952+301264503+301116146+301211055+301507751+301839838
2518+301990322+301763634+301144415+300410197+299931954+299807130+299813753
2508+299750500+299648302+299586010+299497799+299287538+298995172+298725191
2498+298519427+298395750+298376953+298379783+298202121+297712353+296984258
2488+296219402+295575208+295066995+294625309+294229265+293914439+293673523
2478+293453642+293223771+292961505+292642183+292295758+291979914+291689398
2468+291399899+291169343+291077783+291098449+291106274+290987556+290731543
2458+290461766+290331928+290312576+290167401+289755095+289251358+288938179
2448+288868653+288859088+288740018+288522246+288344233+288313207+288394758
2438+288423637+288220629+287760887+287236726+286868895+286676876+286542321
2428+286403936+286237744+285987171+285683223+285497568+285567742+285860219
2418+286206811+286402585+286342976+286136120+286018344+286125371+286384640
2408+286639098+286836056+287035105+287234210+287305456+287171844+286956218
2398+286859534+286913186+286932334+286770619+286555401+286525707+286676062
2388+286738891+286469983+285772655+284588075+282823109+280397206+277333344
2378+273819156+270123144+266384691+262570571+258730716+255166687+252160584
2368+249667098+247557317+246010178+245295682+245419100+246430273+248766596
2358+252811476+258380276+265061522+272823727+281598419+290277703+296954231
2348+300219973+300101495+298132799+296080388+294213428+291704143+288255115
2338+284294321+280192144+275983015+271779677+268163292+265849411+264940139
2328+264831503+264858699+264730804+264492034+264420510+264874184+265963135
2318+267367799+268617503+269560871+270442355+271500853+272697404+273910735
2308+275138866+276359541+277403332+278123989+278598717+279062011+279647336
2298+280260412+280755157+281146724+281516461+281807846+281926658+281985786
2288+282241928+282785404+283400219+283732251+283592608+283141580+282737358
2278+282571444+282547005+282499254+282342609+282022714+281566413+281166354
2268+281013149+281085191+281217193+281263889+281138233+280839853+280493650
2258+280262151+280206094+280266554+280348549+280382091+280312972+280107152
2248+279831492+279657474+279694661+279885754+280102545+280255713+280330733
2238+280410563+280614848+280973188+281399370+281759837+281978830+282175178
2228+282604449+283330213+284115622+284765182+285365122+286102911+287047649
2218+288141687+289272579+290379253+291550309+292942653+294586032+296358232
2208+298160476+300017150+301978408+304010727+306033537+308022195+310019640
2198+312045022+314063780+316099966+318262474+320539798+322710188+324584530
2188+326196865+327702451+329222394+330723540+331991207+332894077+333614050
2178+334379609+335152642+335773007+336159486+336266124+336059286+335561211
2168+334844420+334027726+333214139+332399332+331527099+330555701+329447436
2158+328242375+327057998+325931454+324851199+323860450+322960724+322167563
2148+321613319+321345836+321597187+323475414+328278525+335814189+344469552
2138+352999998+361230251+369243418+376941740+384264608+391370279+398636721
2128+406311880+414195135+421978153+429552446+436694304+442993752+448161697
2118+451950305+454111889+454827274+454785573+454795822+455743613+458751492
2108+464847802+474395046+487022210+501870752+517373257+531080048+540679537
2098+545092692+544208840+538715652+530321593+520688137+510311470+498965182
2088+486365140+472369627+457192180+441097283+424189614+407210754+391562353
2078+378005159+366427576+356738987+348876527+342441136+337110311+332824885
2068+329421276+326654498+324320599+322161421+320131118+318486037+317240829
2058+316130788+315131677+314361160+313812022+313595675+313919289+314826415
2048+316427909+319044868+322959170+328521699+336362476+347120071+361236837
2038+378922127+399803115+422836252+446734665+469906408+490239924+505920516
2028+516166864+520908665+520667860+516696095+510525301+503427622+496020464
2018+488101984+479295767+469797143+460062488+450172500+439896995+429104507
2008+417974788+406898611+396206211+386065244+376560995+367685512+359361571
1998+351675052+344976952+339565352+335244960+331318744+327207336+322997171
1988+319130342+315853426+313223664+311231324+309693177+308367011+307216619
1978+306309290+305577514+304869714+304097366+303331696+302839208+302797249
1968+302894544+302557739+301689224+300797343+300311366+300163990+300121734
1958+300162214+300323262+300448401+300331569+299982646+299599682+299361560
1948+299372253+299785947+300702638+301674812+301711795+300412824+298640754
1938+297454305+297063496+297100461+297227746+297284931+297250760+297195906
1928+297284635+297865945+299137146+300579330+301486179+302085157+302949768
1918+303537369+302823187+301190945+300099959+300282006+301228039+301952896
1908+301926606+301412731+301005586+300988177+301234107+301530802+301854028
1898+302363648+303053687+303576128+303860169+304480941+305609002+306232494
1888+305507415+304134830+303221229+302890307+302727501+302587932+302543530
1878+302643841+302885996+303253901+304073445+306158287+309767679+313249601
1868+313926579+311379959+307966563+305714234+304857781+304759450+304889436
1858+304997092+305013280+304983697+305001273+305259986+306035091+307538698
1848+310011537+313518121+316836404+317452773+314788119+311498918+309878147
1838+309860238+310232380+310550018+311787122+314927836+319002650+321411403
1828+321240641+320160053+319170340+317650878+315576914+314100004+313889022
1818+314457549+315066813+315716187+316998322+319006535+320773721+321278124
1808+320756626+320395271+321199792+323462389+326561217+329048524+329761985
1798+329247999+329470155+332024582+336474923+339720684+338773375+335088962
1788+332446916+332389009+333942326+335833060+337751211+339491645+340549404
1778+341324102+343445428+348238179+354933431+360065818+360560637+357597974
1768+354062122+351562198+351165136+353342260+356647223+358735174+359492074
1758+360353023+361452482+362635268+365355424+370940597+377849346+382276524
1748+382594144+380848197+379547044+379790957+381438332+383358926+384327955
1738+385199633+388604463+395002150+399748945+398236736+393236666+388754134
1728+385748031+384483176+385085558+386929337+389958381+395664141+405004769
1718+415169307+419817605+416798996+410824272+406278949+404755047+406646002
1708+411666386+418038320+423150060+427072539+432768791+441073084+447891217
1698+450001295+448703360+444784396+439689159+437082041+438707364+443376124
1688+450030785+459662059+471658017+478956909+476574057+470826892+468206047
1678+470218811+475615314+481545377+486054994+490524169+496227746+500383223
1668+499916710+497860432+499083402+504079143+509206091+511447930+512467614
1658+516043797+524706782+538994939+554315359+559527226+555934725+555598456
1648+560942380+565611880+563511719+558023897+555162025+556782833+562781312
1638+572544052+582933299+587206995+583437628+578636477+578212441+582335615
1628+588684830+595546810+603017499+610729585+616974826+622085827+629069911
1618+639077008+648006476+650443905+647854401+644687305+642187344+639568016
1608+636519176+633925898+633103579+634806013+638829098+644409202+650873639
1598+657664576+663859569+668266211+670385946+670973306+671257255+671941632
1588+673104733+674494135+675657163+676271089+676761284+678461053+682836614
1578+690088810+697500334+700832383+701052171+703293936+709642781+717837624
1568+724966088+731767237+740528868+752098977+767648510+790377273+820141552
1558+842845302+849077740+850576222+854366569+858992038+862715338+865794223
1548+869177777+873963239+880661969+888578636+896192928+899286095+891528756
1538+877171777+867126643+863843066+862853205+859467579+854817098+853123323
1528+855271253+858658803+861350653+864205976+867468017+869019337+868373589
1518+867332148+865960211+863602039+861814873+862922546+867843803+876388902
1508+886442990+890571530+882997570+871555634+864631270+863683960+866863637
1498+870219958+869516340+865133600+861966134+863072772+867089863+869925427
1488+868846837+865154987+861520268+859356057+858786384+859309139+860784310
1478+863779720+868568216+874176145+878039089+876749517+870254295+863600929
1468+861178449+863048425+865591603+865423173+864262440+866494955+873608914
1458+881699340+882834098+875672333+867474382+862413185+860516642+860572292
1448+860467653+858279687+854453892+851103344+849573929+850135166+852803187
1438+856778319+859260816+857858759+854456557+852025122+850598127+848517687
1428+845809926+844444798+845314700+847382707+849816288+852681452+854537220
1418+852457742+846887333+841520727+838340976+836818665+835777669+834845012
1408+834470928+834713065+834603615+833530057+832517329+832839463+834412984
1398+836346528+837831171+837715727+835051110+831186834+828876541+828873729
1388+829045712+827166856+824427348+824070506+827193793+832113348+836938994
1378+841531827+846704546+852116737+855985528+857535145+858320759+859893391
1368+862130272+864514419+867167862+869806949+871232464+870829815+869468682
1358+868337106+867843507+867650656+867407779+867394237+868110065+869413032
1348+870623643+871317345+871782378+873014894+876043679+880747886+885592995
1338+889129808+891361510+893056691+894742844+896691114+899065345+901965439
1328+905368456+908870488+911921696+914616654+917564406+920825485+923917839
1318+926786186+929709886+932560177+935144575+937557805+939425190+940173506
1308+940490978+941741551+943846855+945344745+945345707+944256904+943026239
1298+942391443+942293759+941839382+940405283+938451240+936716172+935259279
1288+933917461+933071092+933073312+933284368+932647870+931009153+928855821
1278+926291403+923489067+921404409+920793072+921213482+921679773+921566253
1268+920829704+920156500+920540131+921993693+923247078+923279121+922418987
1258+921587418+921231761+921117574+920493287+918527996+915057785+910717597
1248+906142672+901344630+896215646+891293427+887422861+884777780+882896704
1238+881623857+881131146+881070612+880720357+880029911+879647095+879909139
1228+880447287+880830325+881237414+882245480+883927489+885551997+886627257
1218+887712360+889383638+891101242+892226232+893378085+895485979+898322801
1208+901069413+903541253+905942199+908076364+909695397+911257743+913511127
1198+916448740+919385614+921992213+924427126+926571282+928181952+929646244
1188+931627964+934320332+937596360+941147975+944136650+945802600+946670800
1178+947901022+949479427+950463516+950774771+951268370+952223671+953179713
1168+954330752+956660211+960234026+963481415+964897754+964820421+964771801
1158+965796739+968069734+971414806+975432934+979146244+981506932+982632884
1148+983594698+984975294+986301867+987058619+987754171+989539710+993004963
1138+997677053+1002616811+1007019679+1010186405+1011546724+1010831635
1130+1008434834+1005860278+1005249459+1007578844+1011172270+1013106998
1121+1012751193+1012544873+1014505576+1017637743+1019854051+1020932345
1113+1021931383+1023023145+1023394713+1022441188+1020823339+1020813053
1104+1024469973+1030603470+1035029649+1035411133+1033555218+1031959940
1095+1031383903+1032268606+1035595992+1040883045+1045240993+1046123402
1087+1044400840+1042845820+1042434068+1042394329+1042775665+1044986202
1078+1049519092+1054730885+1059007430+1062672269+1065929204+1066676114
1070+1063343548+1058313210+1055226407+1054856467+1056357317+1059581839
1061+1063769211+1066892498+1067749524+1067157872+1067140481+1069016303
1053+1071918321+1073741823+1073673962+1072919578+1072644732+1072834623
1044+1072745894+1071256662+1067876438+1064146699+1062914332+1065428575
1035+1069602183+1071717108+1070200051+1066991809+1064671675+1063886136
1027+1063601669+1062179558+1059012610+1055532631+1053880741+1054916484
1018+1057782906+1060773210+1062593160+1063548979+1064844842+1066492365
1010+1067309059+1066757665+1065189398+1063132492+1061615065+1061504949
1001+1061948374+1061197098+1058707867+1055310696+1052231442+1050588284
993+1051057092+1053026749+1054276508+1052833824+1049527973+1046981982
984+1045959486+1044734888+1041982208+1037867802+1032460125+1025842206
975+1019741863+1016487000+1015872333+1014898309+1011728844+1008030113
967+1005762446+1004293195+1002265816+999890623+997395620+993420118+987321921
957+980971374+976582049+974514560+973825150+973335030+971752481+968162015
947+963278277+959500140+958950300+961544541+964903156+966068625+963803401
937+959596418+956093201+954518201+954115922+953910268+954104821+955357022
927+957381441+958910412+958857870+957168906+954610186+952329199+951566897
917+952933876+955526932+957196805+956288051+953154996+949839006+948208504
907+948449457+949423407+950228187+950822207+951186375+950870161+949560830
897+947445165+945045996+943080483+942310336+942950460+944054729+944039336
887+942306784+940157300+939473958+940775889+942830057+944023500+943895179
877+942997970+941517470+938954385+935623669+933412466+933935148+936226791
867+937120079+934635732+930437704+927703524+927490840+928532207+929668593
857+930784999+931663559+931611017+930371323+928609169+927595184+928618198
847+932065024+936633954+939771523+939617154+936943582+934544709+934097806
837+934649126+934915240+935332616+936655563+938063022+938054067+936283403
827+933672142+931692124+931614643+933433853+935787807+937662149+939429335
817+941484761+943093433+943827614+945124735+948560757+952834268+954474391
807+952348736+949389366+948534782+949220121+949168763+947878673+946837899
797+946935212+947723416+949297750+952287610+955859131+958128277+958593385
787+958079806+956773657+954400832+951791199+950549729+951404165+953600271
777+955528856+955722596+953900796+951430584+950022015+949548620+948351181
767+946216719+945106308+946171726+948010842+948658366+947704841+946131024
757+945537744+947023720+949745689+951333566+950623288+949100681+948661993
747+949341264+950052134+950340671+950733330+951684487+952933728+954185706
737+955389287+955878667+955122729+954765814+956918480+960111921+960314171
727+957014758+954553944+955554979+956957110+954834045+950302338+947232333
717+946857065+947579110+948371162+949607008+950596499+949400762+945927665
707+942671691+941603462+942146716+942658741+942348891+941277923+939684348
697+938104611+937342309+937319294+936713507+934808232+932238191+929019811
687+924362743+918759772+914068886+911410411+910636712+911258705+912255596
677+911969945+909566706+905399907+899137275+889571901+877626006+869549937
667+871601367+877876209+879356930+876731979+876187466+880748996+887405174
657+891195003+889593214+883354855+875505383+869396381+866781420+867030143
647+867850242+867673375+866924467+866133082+864269100+860334300+855468914
637+851982200+851150779+852861575+856394393+860778908+864566813+866183181
627+865278424+862830783+859671087+856578290+854491856+852731404+849260157
617+844606272+842225751+844191042+848754348+851543882+850258306+847681086
607+847765301+850623954+853099420+852915301+850492525+847067751
##END=
