##TITLE=<SNM>
##JCAMP-DX=4.24
##DATA TYPE=INFRARED SPECTRUM
##DATE=2/5/2025
##SAMPLING PROCEDURE=Instrument type and / or accessory
##ORIGIN=Admin
##XUNITS=1/CM
##YUNITS=ABSORBANCE
##RESOLUTION=4
##FIRSTX=4497.3318
##LASTX=599.83466
##DELTAX=-1.4281778
##MAXY=1.7704852
##MINY=0.21049339
##XFACTOR=1
##YFACTOR=1.6488928e-09
##NPOINTS=2730
##FIRSTY=0.23396707
##XYDATA=(X++(Y..Y))
4497+141893436+142595951+142328101+140801324+138844076+137722349+137903633
4487+138688457+139169889+139317347+139698621+140401380+140854996+140613245
4477+139860448+139222458+139270535+140035993+140922141+141246617+140868669
4467+140192569+139687578+139605865+140113694+141272084+142603371+143130593
4457+142466116+141451804+141043735+141057092+140692482+139802276+138965669
4447+138693617+139070924+139861324+140638973+141054218+141064168+140774421
4437+140237402+139534363+138860830+138444004+138490591+139107262+140082886
4427+140863093+140916213+140146354+138945878+137816299+136921113+136161195
4417+135689460+135923791+136878034+137933979+138498028+138498634+138125222
4407+137513349+136836779+136405061+136506827+137146164+137852591+137882405
4397+136931858+135593983+134780828+134777611+135137467+135313021+135085603
4387+134536736+133905443+133361077+132821817+132185001+131582726+131098709
4377+130624679+130349862+130785349+131936066+133125164+133865092+134182447
4367+134092628+133567592+132922074+132521235+132252400+131781912+131119983
4357+130586190+130471103+130901141+131789657+132784024+133342117+133027175
4347+131923451+130728253+130208603+130528362+131174539+131493810+131216444
4337+130470000+129467238+128421911+127705587+127657411+128147545+128731593
4327+129271278+129947495+130680076+131085353+131044740+130849720+130700346
4317+130482444+130132303+129772709+129405343+128926125+128517207+128598414
4307+129323937+130406063+131350157+131777357+131776399+131869779+132382904
4297+133002332+133228819+133052904+132812590+132639792+132449453+132313075
4287+132422667+132646570+132476944+131623989+130419917+129487418+129251713
4277+129764512+130678350+131446510+131777610+131782535+131678419+131646509
4267+131885034+132432635+132966157+133007592+132447583+131876774+132134050
4257+133275839+134383486+134736230+134622408+134665732+135027513+135479836
4247+135679266+135374428+134742149+134272818+134134162+134099523+134131451
4237+134478836+135197527+135951065+136271240+135964666+135364089+135031155
4227+135171166+135596134+136146636+136752518+137227479+137420592+137369045
4217+137032929+136281144+135307770+134602463+134402988+134512743+134624559
4207+134666174+134902268+135592637+136476743+136981743+137014231+136945405
4197+136830020+136428439+135996287+136213746+137232187+138416947+139093417
4187+139082004+138532242+137694994+136867126+136321178+136322624+137140082
4177+138708872+140359891+141304002+141367958+140973182+140538047+140210291
4167+140080428+140305515+140895039+141533092+141865693+141935432+142006436
4157+141988805+141500532+140547708+139661379+139264092+139293390+139498396
4147+139745722+139954921+140020711+139883086+139500953+138821709+138020898
4137+137637057+138069635+138987919+139641904+139808232+140033399+140749108
4127+141502059+141469986+140567111+139545054+139071539+139190503+139606452
4117+140042003+140364671+140638061+140974312+141261085+141233116+140872202
4107+140535797+140582935+141037382+141699058+142343193+142690416+142513280
4097+141955593+141441511+141139573+140857517+140507638+140300029+140457970
4087+140990317+141682556+142185307+142246994+141961296+141721994+141853294
4077+142252136+142473878+142257097+141828306+141565499+141557086+141630512
4067+141622017+141496989+141316465+141120261+140848670+140480716+140173537
4057+140106988+140325730+140855963+141705456+142598030+143032722+142821959
4047+142365045+142240550+142607961+143029649+142930847+142297538+141727236
4037+141648866+141814425+141851170+141942273+142469866+143233227+143609820
4027+143414122+143076723+142986741+143105317+143258730+143380215+143363280
4017+143055830+142512955+142012274+141807919+142025387+142644381+143381815
4007+143747997+143486762+142946996+142809886+143390445+144329975+145055941
3997+145375384+145418680+145228829+144780645+144298309+144131973+144309172
3987+144540132+144690789+144947234+145429886+145893895+146035984+145991658
3977+146228664+146936004+147754031+148137754+147852210+147144110+146545151
3967+146493540+147036343+147838528+148505373+148905643+149123988+149164510
3957+148943138+148542597+148208930+148246488+149038660+150592756+151973096
3947+152214549+151793548+151830365+152199276+151853897+150720459+149867639
3937+150125783+151580209+153843679+156080427+157142445+156534991+155212253
3927+154669812+155284893+155991213+155886997+155613590+156276152+157689658
3917+158358690+157136174+154623271+152453019+151606869+152048556+153788138
3907+157454441+163165020+169222280+173040099+173653517+171734712+167888752
3897+163223906+160096266+160376361+163399695+165903163+165524437+164385658
3887+165568574+168295456+169594499+169551374+170213068+170556585+168493711
3878+165840716+165753472+168452520+172374464+176588378+179747015+179853653
3868+177895392+176892638+177135175+176228251+173223389+170119390+169280605
3858+172103895+179351752+189734135+196117109+191588326+181406294+173001547
3848+168974303+169375024+172994769+177988528+183060584+187801829+191258509
3838+191579035+188716326+185076646+182239909+180061234+178446509+177980882
3828+178725881+180259670+183330684+189062591+195202973+196600140+193333782
3818+190215558+188065946+184435520+179733225+176896362+177633570+181681997
3808+186741961+190031310+192173855+195640620+199411338+200144046+198474971
3798+197152342+195852865+193466970+191281445+191125266+193236326+197038005
3788+202037240+207357996+211789993+215465189+220276399+227288985+234909947
3778+241271015+247463649+256087220+268436378+283899963+299863786+312778158
3768+321513246+327350977+330892641+332850830+335380125+339806266+344966939
3758+349429192+354465551+363138971+377311773+394977800+409815189+418511851
3748+425931612+437015832+450642470+460659702+465545395+470874484+480604120
3738+494947542+511261696+525151276+533787246+538178033+541197138+545357444
3728+552451870+562269238+571159149+574976661+573294501+568485224+563047691
3718+558951765+557618074+559514052+563290174+565123940+561840953+555589866
3708+550665747+548863828+549623990+551225756+552039599+552194061+553058908
3698+554985539+557583553+561185440+566663279+573957677+580813090+583425455
3688+581043572+577897515+577632186+580632638+585241075+589462001+593019137
3678+597037669+600338839+599474570+595514489+592211042+588434269+580983132
3668+571848208+565614255+563265015+562672400+561759294+560710018+561229216
3658+563620497+566019586+567819192+571463445+578729214+587175116+590322150
3648+584590514+574368936+565552117+560746058+559661428+560690281+562587849
3638+564865263+567110831+569381015+573217613+580560667+590308955+596064991
3628+592682199+585261065+580902051+581544949+586141601+592213355+596425643
3618+597841101+599578243+603754852+608192270+610158159+610975255+613302264
3608+616198609+617315664+617616634+619409734+622177318+623509238+623140815
3598+623175517+624688395+626699324+628208587+629807209+632786912+636882946
3588+639363080+638210890+635373972+634105963+635634240+638789479+640839521
3578+639369659+634731401+629990770+628194489+630488170+636500931+644681866
3568+651406459+652202083+647119417+641045927+637505926+636414031+636497823
3558+637170759+637825838+637232428+634557744+630550273+627818764+628995391
3548+633310701+636516258+635936512+633602707+632360435+631925715+630308513
3538+627053722+623660699+621750407+621915533+623787074+626192091+627415928
3528+626467831+624282088+622849315+623213617+624444467+624568744+622780127
3518+620196609+618193922+616992426+616215960+615650457+615109534+614659126
3508+615014898+616740472+619110209+620194874+618409438+614223033+609691484
3498+606500531+605212314+605773047+607359342+608135951+606903295+604603867
3488+602898535+602251553+602216562+602275736+601701087+599709064+596781631
3478+595094301+596411509+599994382+603171635+603548373+600559054+595797205
3468+592033952+591147126+592782691+595065672+596084728+594848204+591783082
3458+588338802+585804265+584684029+584900847+585976728+587179237+587752260
3448+586896630+584222886+580914739+579306032+580351296+582527242+583694398
3438+583391511+582900582+583153764+583489220+582711851+580694633+578480406
3428+577131930+576935970+577521211+578234706+578380094+577547708+575864463
3418+573686854+571231807+568820861+567024219+566129296+565943964+566216883
3408+566713705+567062826+567071682+566946970+566800172+566332666+565254472
3398+563626497+561862172+560519480+559844049+559654199+559792213+560233475
3388+560542796+560064373+559016543+558415795+558699703+559354349+559915009
3378+560373911+560556821+559934926+558143923+555357578+552543217+551353866
3368+552643564+555046666+556366151+556177348+555504267+554724332+553603518
3358+552513141+552190012+552871371+554185939+555297897+555246675+553875534
3348+552238053+551650101+552490766+553889162+554491826+553727001+552161129
3338+550613549+549601542+549472022+550120703+550662783+550197482+548998516
3328+548313325+548831764+549920225+550529830+550365861+549922394+549798731
3318+550124463+550370416+549767137+548085374+545894138+543995124+542679290
3308+541706287+541099465+541457912+542964789+544459159+544366692+542575508
3298+540702268+540548819+542524539+545182016+546478366+545946516+544986671
3288+544836367+545320320+545616013+545427427+545171931+545343274+545822130
3278+546032152+545900500+545986207+546543144+547170823+547453285+547326116
3268+546811979+545813093+544178142+542033826+540160875+539648546+540887853
3258+543077536+544895939+545568044+545197018+544242523+543091091+542194578
3248+541951408+542110967+541760798+540385465+538677241+537862893+538357654
3238+539266024+539202295+537657137+535470888+533861892+533116659+532426516
3228+531080896+529520194+528851668+529496625+530704629+531484167+531586647
3218+531198414+530255739+528694025+526936604+525603745+524990959+524951340
3208+525010551+524754260+524297635+523950141+523430907+522162645+520348615
3198+518952280+518491027+518510909+518275764+517420604+515960720+514239881
3188+512919854+512370111+512105469+511526735+510849027+510423092+509867384
3178+508810806+507576089+506431526+505153359+503659784+502136423+500489327
3168+498535512+496691227+495755528+495895639+496308742+496084514+495104570
3158+493826294+492548742+491377176+490530185+490104576+489666748+488568237
3148+486906392+485738767+485842115+486656535+487074084+486766788+485952258
3138+484609856+482803634+481080301+479956451+479423517+478999389+478098285
3128+476658788+475275754+474413256+473978320+473850536+474009625+473983489
3118+473086253+471327783+469420528+467942858+466936454+466175930+465530502
3108+465099759+465048826+465275765+465366642+464994568+464321125+463803554
3098+463518453+463012811+462048410+461076058+460608227+460521579+460406447
3088+460257263+460283362+460318426+459996598+459263655+458227428+456871723
3078+455399367+454336210+453850703+453504113+452997603+452550594+452266757
3068+451822169+451110121+450529507+450257166+449856137+448940428+447703000
3058+446549798+445708013+445281716+445146304+444797980+443852630+442669424
3048+442016369+442124416+442368562+441927083+440639843+439099564+438018947
3038+437695131+437937578+438278167+438313917+437951422+437291861+436401745
3028+435352614+434333088+433509991+432808534+431946180+430752853+429405751
3018+428247596+427530270+427438959+427964519+428562665+428448617+427421825
3008+425963025+424560797+423364614+422305975+421185523+419880642+418681278
2998+418111437+418298577+418772987+418947800+418596149+417808442+416713836
2988+415429921+414187938+413292798+412868924+412665228+412195336+411172846
2978+409822382+408718595+408297431+408479474+408718992+408462773+407563187
2968+406262427+404945870+403914162+403139794+402286839+401273458+400578869
2958+400575904+400882912+400846041+400416599+400070154+400038669+400045356
2948+399696308+398816314+397440402+395773063+394184635+393106512+392862403
2938+393379179+393924042+393554498+392176128+390720509+390000869+389891484
2928+389768797+389232826+388254509+387043216+385951285+385306146+385165783
2918+385196473+384931976+384344494+383956586+384117157+384442962+384301658
2908+383530001+382339348+380930035+379548448+378477157+377715911+377105655
2898+376750824+376745185+376642162+375879650+374608170+373547399+373147671
2888+373199905+373167227+372769452+372153268+371463414+370591301+369547664
2878+368670995+368226372+368090237+367956995+367672255+367347209+367205508
2868+367229763+367049926+366368422+365386924+364611543+364278401+364142302
2858+363867395+363400829+362830264+362135277+361313410+360540487+359988973
2848+359627093+359297239+358889921+358417462+357944534+357459967+356877871
2838+356150567+355337773+354602120+354093694+353777613+353506827+353264452
2828+353045611+352570586+351555470+350231684+349171635+348627097+348347382
2818+347991683+347508561+347114400+347000497+347109990+347176395+346917754
2808+346206608+345157658+344078704+343247763+342685223+342175749+341515935
2798+340702671+339913409+339363811+339110303+338900606+338330693+337255932
2788+335965836+334914535+334361394+334226236+334184629+333940990+333419370
2778+332677318+331812217+331006906+330401458+329875103+329207950+328438787
2768+327835725+327568915+327550443+327492606+327043500+326004959+324556642
2758+323202419+322341620+321894177+321467771+320824296+320008754+319167620
2748+318471079+318059350+317872969+317679793+317338408+316840683+316143563
2738+315232988+314309471+313658658+313338601+313155799+312941476+312705680
2728+312476862+312114945+311415006+310392226+309355421+308594283+308064638
2718+307543633+306989733+306500358+306045178+305546079+305076513+304728043
2708+304453172+304174107+303835542+303357192+302758793+302208562+301755028
2698+301222564+300536162+299916436+299592421+299482494+299305259+298913447
2688+298381254+297837711+297366229+297015608+296755196+296439477+295920333
2678+295185583+294354082+293552386+292826908+292224858+291894969+291922912
2668+292110919+292158544+292012288+291810761+291581419+291226750+290738676
2658+290240100+289817256+289417582+288964391+288501043+288131860+287877340
2648+287652335+287298715+286650720+285740037+284899951+284476004+284471774
2638+284596142+284582316+284363347+283997852+283540667+283045001+282624886
2628+282355527+282126907+281766184+281289876+280886027+280677036+280594997
2618+280466960+280210127+279926453+279729354+279526852+279140372+278593611
2608+278090391+277739446+277482486+277272247+277160459+277171104+277192847
2598+277077534+276821641+276568097+276393265+276172942+275761448+275255661
2588+274934700+274920440+275031740+274999098+274709804+274234707+273736077
2578+273364527+273145035+272964492+272749518+272593014+272581881+272576892
2568+272348598+271898606+271461176+271199805+271080986+271047621+271128304
2558+271317576+271497613+271571392+271579615+271595882+271578079+271416370
2548+271078257+270623294+270114598+269605558+269196721+268994236+268979650
2538+269002695+268922445+268691295+268345284+268020980+267891695+267940405
2528+267913005+267648417+267324294+267240665+267463374+267766875+267868488
2518+267681150+267355345+267105344+267034836+267099198+267154053+267091788
2508+266990356+267006930+267093107+267033571+266784636+266492901+266193160
2498+265830285+265539038+265507915+265601846+265500920+265164777+264819398
2488+264575379+264356465+264088516+263726057+263227826+262667780+262238790
2478+262053079+262027034+261969142+261730491+261325143+260944031+260777478
2468+260810120+260868644+260845364+260758211+260606948+260325588+259915179
2458+259504787+259233621+259134123+259133328+259134539+259125266+259176507
2448+259277975+259268757+259026292+258615341+258185357+257850389+257679913
2438+257654574+257642066+257555003+257490786+257577921+257730232+257715194
2428+257472368+257204166+257103475+257144033+257207329+257262798+257317744
2418+257306285+257167530+256990204+256952592+257110994+257343572+257508426
2408+257567727+257570999+257593356+257657953+257700157+257688914+257727467
2398+257896875+258103644+258270685+258586314+259402090+260997332+263603786
2388+267602708+273562746+282060611+293490681+308000656+325505788+345723017
2378+368249904+392647718+418347268+444430677+469700243+493112583+514055199
2368+531998954+545830517+554188542+557051161+555996607+552168648+544991226
2358+533340489+516823688+495596295+470849867+446639084+428834464+421306114
2348+424817956+437953049+456795993+475005040+487465859+493421795+495013621
2338+494569395+493253272+491352306+489143790+486916658+484406413+480839011
2328+475695653+469153898+461607691+453111506+443677889+433785405+424045141
2318+414589654+405225152+395927416+386800589+377737816+368520257+359207194
2308+350106105+341389886+333028065+325066658+317702530+311036425+304949777
2298+299323333+294237595+289793434+285830173+282055243+278413828+275092722
2288+272193395+269642122+267411068+265613088+264314335+263365297+262499944
2278+261581705+260697753+260012020+259567956+259242351+258872518+258416670
2268+257952164+257528253+257121278+256739534+256438383+256204485+255938940
2258+255577620+255155914+254753891+254420875+254138882+253841418+253497557
2248+253172132+252955947+252860263+252832682+252824115+252762608+252537676
2238+252127754+251707205+251541013+251769976+252288523+252809420+253104679
2228+253212130+253333426+253561268+253845195+254172735+254590265+255050614
2218+255401071+255558027+255649121+255973570+256753433+257870198+258943043
2208+259716978+260248665+260712122+261222228+261861692+262690481+263693144
2198+264796390+265925210+267012786+267985645+268774942+269376956+269894925
2188+270443945+271027776+271603003+272191913+272806271+273355074+273756827
2178+274070323+274411617+274782661+275055020+275125346+275017209+274796415
2168+274475328+274060382+273596238+273091210+272466477+271630006+270603286
2158+269562559+268718659+268162066+267853505+267702387+267631717+267643646
2148+267772840+267967335+268267764+269106531+271016516+274016570+277683669
2138+281756116+286267729+291218653+296496682+302041376+307867956+314002428
2128+320460608+327229482+334279012+341617005+349251378+357059408+364787621
2118+372251483+379466861+386552792+393670462+401181099+409729626+420033983
2108+432627142+447816470+465739584+486223190+508486628+531114442+552475619
2098+571259894+586944635+599977284+611040177+619985865+626104251+629085906
2088+628790213+624645162+615958440+602303137+583754657+561222203+536067588
2078+509533953+482919960+457524236+434130730+413099188+394706761+378991150
2068+365693787+354541101+345230063+337336181+330599370+325000182+320424351
2058+316605646+313340191+310517769+308163576+306529059+305885801+306289252
2048+307697553+310186796+314069953+319949001+328517265+340266506+355546783
2038+374717772+397892039+424573159+453589748+483205314+511501106+537070161
2028+559333021+578349007+594617506+608602192+620234421+629302507+635927330
2018+640139979+641644037+640348049+636498039+630145051+621004090+608976254
2008+594471430+578033830+560007693+540747996+520714978+500240229+479638816
1998+459584977+440976961+424305265+409297148+395308919+382066610+369847080
1988+358968941+349470365+341235930+334068882+327680938+321870608+316656507
1978+312115198+308198568+304763830+301694353+299014879+296895759+295377513
1968+294057847+292319259+290026392+287712341+285916368+284656673+283668324
1958+282817394+282071438+281323982+280487438+279642743+278972211+278599721
1948+278597660+279126781+280261150+281432553+281518279+280119684+278212627
1938+276917813+276388367+276173972+275986633+275841715+275799729+275825358
1928+275982079+276658431+278116237+279807832+280921687+281573278+282297184
1918+282650696+281792572+280193318+279256806+279658233+280908005+282045718
1908+282487468+282405520+282349274+282590834+283017095+283524996+284248034
1898+285332194+286547083+287372548+287790476+288513984+289782608+290594824
1888+290048298+288722035+287707787+287309704+287275869+287369059+287420769
1878+287383500+287388218+287615102+288449875+290616982+294295613+297829053
1868+298486988+295751575+292037230+289544318+288564573+288375717+288396610
1858+288427517+288460014+288541601+288693261+289004932+289747562+291270815
1848+293926177+297727549+301300861+301984371+299148303+295536457+293581359
1838+293343358+293673645+294076446+295413390+298619164+302758323+305280100
1828+305293366+304449159+303660765+302209123+300094936+298566587+298299053
1818+298773337+299329966+300082917+301575082+303724892+305475951+305862196
1808+305194754+304691787+305406547+307693179+310941247+313633101+314488441
1798+313978389+314090087+316485056+320776435+323914829+322935102+319214215
1788+316460330+316283674+317833351+319825916+321803480+323455421+324290121
1778+324776858+326627324+331261787+337979548+343231785+343703593+340465574
1768+336526423+333673059+333080624+335205312+338489058+340518712+341254510
1758+342168701+343260126+344271663+346747821+352088693+358653619+362589517
1748+362468601+360516160+359193132+359505200+361353860+363742683+365451485
1738+367134115+371252742+378192020+383125827+381378599+376106011+371632588
1728+368848628+367758866+368384340+370249736+373446943+379435846+389122935
1718+399709322+404695291+401670981+395497974+390953412+389769845+392112796
1708+397382673+403784751+409036410+413434572+419763847+428524095+435455203
1698+437448058+435848857+431399437+425758642+422774059+424090724+428468173
1688+435010543+444812186+457105313+464442475+461535719+454859782+451268595
1678+452606804+457802722+463878923+468503518+472756544+477940750+481721066
1668+481577991+480476010+482837108+488920177+495091123+498462890+500752306
1658+505619274+515486382+530860356+546749298+551292052+546482596+545269315
1648+549878040+553637389+550536987+544037959+539961301+540203241+545039556
1638+554096111+563977967+567527982+562976696+557708228+557082501+561061741
1628+567122687+573284307+579347061+584823453+588339561+590855481+595605836
1618+603593992+611015307+613453075+612898054+613588125+616391786+619731526
1608+622071838+623299940+624314767+625813547+627709596+629625817+631648024
1598+634225614+637437244+640784792+643808018+646540250+649105621+651340452
1588+653206210+655062786+657107622+659042061+660819761+663499000+668691339
1578+676592270+683889596+686061385+685173077+687265412+694020948+701916239
1568+706985168+710262733+715084264+723229629+736254940+756941590+784471617
1558+805143592+810491802+811927901+816120596+821450516+825720713+828983891
1548+832635518+838010262+845094747+852648365+859439398+862443248+856295726
1538+843943713+834412495+829950279+827155655+822698210+817776838+815690504
1528+817134845+820303242+823798564+827770248+831374738+832397084+831056344
1518+829301562+827015255+823637487+820671593+820358260+824031070+831813289
1508+841028716+843837799+835692000+824851202+818523951+817501822+820191182
1498+823332974+823113048+819743305+817847111+820526855+826489298+831092059
1488+830402639+825300670+819542104+815957423+815177849+816212774+818144756
1478+821248375+826326269+833333903+839897925+841314432+836069966+829280162
1468+826002669+826793738+828747842+829029293+828956346+832254009+840120309
1458+848349900+848916777+841397428+833713604+829811470+829445793+831181562
1448+832738613+832403663+830936838+830102102+830467416+832055916+835194961
1438+839052417+840570428+838108224+834626710+832980662+832492443+830942043
1428+828021334+825700542+825260690+826181531+827969281+830787112+832993820
1418+831044849+825096432+819425923+816500298+815520679+814668086+813336166
1408+812349246+812219763+812097437+811353361+811263496+813227143+816375008
1398+818542459+818907267+817847327+815559647+812963044+811888500+812881493
1388+814094919+813361470+811473301+811348517+814257658+819005374+824146672
1378+829694204+836147613+842440740+846130034+846436716+845553758+845776720
1368+847391175+849776167+852705407+855484704+856259578+854187269+851118063
1358+849286213+849001943+849290189+849443169+849299009+848761701+847967306
1348+847572784+848163809+849581038+851271910+853000521+854731590+856039001
1338+856385736+856102767+856230153+857210206+858516966+859710944+861079879
1328+862981785+865305903+867845103+870681804+873935366+877442111+880903164
1318+884070622+886784563+889105427+891353200+893729588+895939838+897632229
1308+899066376+900808723+902985717+905321692+907655786+909908764+911745965
1298+912755875+912889552+912440012+911586623+910201710+908116026+905352779
1288+902288055+899761941+898494221+898032029+896958931+894558757+891451812
1278+888577807+886648862+886304007+887600935+889394686+890089600+889271420
1268+888273800+888960328+891927162+895907449+899061170+900718135+901446957
1258+901835117+901970240+901695007+900791010+899334379+898015401+897478165
1248+897440498+897182616+896596580+895931380+895050229+893842081+892667262
1238+891821826+891365056+891549123+892480303+893678546+894764658+895969697
1228+897328872+898168742+898007665+897273132+896648417+896354531+896481701
1218+897298797+898761067+900325059+901533351+902306129+902764562+903309823
1208+904542118+906613920+909019372+911239889+913283207+915724011+919349684
1198+924062480+928126126+929624544+928775060+927788862+928559977+931088550
1188+933891054+935842700+937533138+940185338+943642849+946614816+948720670
1178+950911401+953949664+957638090+961099939+963241002+963545588+962620119
1168+961598858+961263257+962017021+964083691+967119858+970024951+971922157
1158+973219157+974939093+977122305+978621374+978587105+977692869+977541335
1148+979034260+981697521+984542969+987422975+991230474+996294342+1001030129
1138+1003097666+1002382508+1001507141+1002531150+1004655295+1006031967
1130+1006489387+1007121331+1008139701+1008460481+1007577884+1006716181
1121+1007671075+1010973220+1015500142+1019626107+1022309177+1023525206
1113+1023861385+1023509373+1022417261+1021498227+1022157499+1024378956
1104+1026966595+1029412098+1031757616+1033578477+1034499391+1035032433
1095+1036230966+1038349978+1040190721+1040651973+1040675976+1041815803
1087+1043005299+1041671355+1038342098+1036618403+1038489728+1042694424
1078+1047267398+1051597529+1055696238+1058955006+1060578570+1060914677
1070+1061275075+1061948229+1062008018+1061565346+1062068024+1064196146
1061+1065889042+1064148358+1059353432+1055267086+1054749153+1057016229
1053+1059610519+1061679502+1063246097+1063629268+1062450617+1060342016
1044+1058199290+1056893759+1057355734+1059953711+1063745015+1066551423
1035+1066853840+1065525463+1064749793+1065403354+1066239970+1065811613
1027+1063970797+1061584794+1060479596+1062646613+1067658356+1072215932
1018+1073741823+1072657808+1070400420+1067759210+1065384918+1063936167
1010+1063671490+1064359897+1065035292+1064594428+1063240530+1061632799
1001+1059231324+1055696889+1052682339+1052115606+1053624146+1054806051
993+1053324405+1048812376+1043495253+1040318252+1040466533+1042897649
984+1045607397+1046926520+1046031272+1043227828+1040119509+1038577496
975+1039252890+1041243287+1042706353+1041820141+1038110243+1032797457
967+1027093475+1021160746+1015477224+1011328196+1008633703+1005228824
958+1000028026+995159503+993279864+994032905+994218418+991284768+985939955
948+980922646+978181666+977670529+978153543+978408244+977743187+976317138
938+974836865+973435397+971463580+968790125+966691934+966709213+968753109
928+970822815+970838865+968935224+967162079+967058622+968374998+969554951
918+969447807+968369865+967241171+966512856+966158096+966184557+966590936
908+966623542+965105169+962234706+959622053+958281891+957955545+958055459
898+958123128+957790202+957112278+956589573+956233224+955547201+954677329
888+954257648+954263576+954211016+954164963+954430942+954646675+954066929
878+952725394+951568577+951109421+950856239+950572330+950882844+951976040
868+952901002+952810559+952030913+951178392+950148600+948803739+947641861
858+947208154+947676853+948926065+950536109+952036986+952999326+952927029
848+951774622+950379009+949594447+949387823+949346903+949315093+948968792
838+947897574+946527409+945641053+945113939+944501804+944376080+945883319
828+949080707+952610804+955228880+956741830+957274439+956858733+955944543
818+955052621+954303990+954083485+955248689+958158481+962023094+965202263
808+965843534+963324577+959787757+958388312+959960112+962861228+965384162
798+966670751+966252443+964560125+963163717+963370702+964861891+966039168
788+965610233+963525851+960396783+957086612+955165548+956259684+959952304
778+963263631+963264571+959774816+955367400+953450384+955303562+958401325
768+958946008+956347958+953783888+954210510+957090661+959111278+958070569
758+955574313+954784328+956633024+959569782+962037698+963412345+963226977
748+961635512+960227537+960822754+963545660+966754254+968735614+968857361
738+967881430+967841666+970083872+972687778+971748862+966591225+960887170
728+958061531+958881519+962700079+967748332+970888678+970260348+967512283
718+965154042+963442637+961561625+959993802+959427937+958753337+957144377
708+956563474+958564354+960500384+958664919+953741378+949509932+947717917
698+947004856+945287089+941863341+938269912+937056776+938987673+941821770
688+942711886+940851550+936909942+932261778+928252789+924431699+919819467
678+916018764+915256108+916456014+916970187+916129450+914179395+910994297
668+908951847+912612728+919810574+923920779+922252102+916635888+910913108
658+907840359+907787294+908897624+907934923+902719810+894462386+887683498
648+886580180+891276854+897563475+900910227+901207439+901026769+900130653
638+895966299+889310749+884070911+881004380+877219654+872253820+869227413
628+869502936+871098810+872370290+873723465+875408770+875946440+874717326
618+875108739+880681286+889008911+893434835+890095022+881596633+873992769
608+870398039+868531848+864048232+856660318+851682410+854331501+863439061
##END=
