##TITLE=<SNM>
##JCAMP-DX=4.24
##DATA TYPE=INFRARED SPECTRUM
##DATE=2/5/2025
##SAMPLING PROCEDURE=Instrument type and / or accessory
##ORIGIN=Admin
##XUNITS=1/CM
##YUNITS=ABSORBANCE
##RESOLUTION=4
##FIRSTX=4497.3318
##LASTX=599.83466
##DELTAX=-1.4281778
##MAXY=1.6805543
##MINY=0.30063501
##XFACTOR=1
##YFACTOR=1.5651381e-09
##NPOINTS=2730
##FIRSTY=0.30968109
##XYDATA=(X++(Y..Y))
4497+197861825+197906515+197705458+197658293+198229456+199011427+199034429
4487+198131793+197373891+197782366+198985550+199626177+198962224+197562419
4477+196464039+196096370+196095551+196021709+196006495+196368413+196877598
4467+197020198+196823787+196792997+197185268+197844079+198526806+199143479
4457+199800900+200532830+200934336+200427150+198981837+197228739+195970640
4447+195840283+197069763+199011922+200238546+199805356+198228581+196765082
4437+195959901+195283324+194122164+192760461+192082094+192520597+193797147
4427+195500452+197245153+198454525+198705985+198092302+196875027+195344999
4417+194224359+194302009+195436759+196645522+197254369+197384516+197272877
4407+196830566+196145991+195687000+195558966+195247831+194509807+193818245
4397+193644131+193918155+194329010+194701097+195035196+195408521+195853079
4387+196334958+196759732+196873885+196500103+196006285+195955978+196291639
4377+196541728+196571356+196456308+196063162+195326700+194558134+194197453
4367+194484083+195301280+196217301+196783514+196721097+196001506+195130726
4357+194995876+195860352+196870667+197102419+196693240+196410114+196510252
4347+196613647+196499094+196433573+196665477+197078903+197471668+197774616
4337+197859598+197522623+196770814+195869149+195105097+194676134+194704715
4327+195105173+195429828+195177701+194479875+194190103+194957603+196381495
4317+197400073+197359820+196454690+195385519+194915026+195574447+197272591
4307+199048462+199763027+199306054+198620527+198442758+198643072+198837275
4297+198915821+198855212+198637227+198479926+198741707+199482986+200300792
4287+200674364+200404034+199667458+198752046+197921825+197451485+197500916
4277+197977521+198661980+199337510+199780849+199907912+199973929+200372749
4267+201196992+202171375+202901172+202978195+202159760+200771627+199603917
4257+199154047+199312528+199861261+200723929+201712936+202607974+203331659
4247+203673889+203348529+202655653+202374318+202714777+203078485+203007709
4237+202676789+202309786+201771088+201010901+200427360+200459483+201108392
4227+202051738+202970369+203610881+203837130+203798514+203793659+203925958
4217+204114353+204338051+204549676+204493656+203968401+203164685+202431384
4207+201949163+201970755+202906047+204593357+205957840+206107962+205444124
4197+205079216+205455263+206131288+206726729+207332834+207874922+207863535
4187+207223499+206676117+206781606+207188348+207276529+207017262+206833665
4177+207019566+207495066+207979878+208373348+208835538+209359899+209574114
4167+209298662+208948015+208980310+209237234+209244413+209042917+209208310
4157+209936527+210632469+210706026+210320096+209977143+209883669+210093333
4147+210700770+211548224+212217184+212551170+212742478+212878585+212934567
4137+213097808+213487051+213718746+213414180+213024461+213464068+214880934
4127+216368577+217029330+216836194+216308863+215937443+216128389+217011584
4117+218029191+218452346+218487611+219031660+220217897+221104348+220914601
4107+219829092+218553132+217797896+218065826+219267011+220650421+221596623
4097+222166454+222537722+222526450+222124125+221821825+221922478+222145528
4087+222252654+222484197+223090435+223899425+224597024+225108950+225436994
4077+225365742+224750592+223992290+223717657+223969421+224207705+224120153
4067+223937432+223975400+224327646+224997920+225900480+226715639+227127199
4057+227161892+227044464+226958721+227164272+227910883+228985043+229847177
4047+230373175+230856045+231249115+231116187+230370091+229443368+228756623
4037+228445107+228531002+229060009+229944422+230768969+231064166+230864575
4027+230663879+230761104+230998036+231163924+231340037+231791888+232612646
4017+233425502+233623036+233108387+232511156+232437732+232800793+233166768
4007+233452236+233873392+234505774+235293076+236169206+236858255+236984213
3997+236686502+236620200+237104535+237750151+238065666+238045577+238097713
3987+238624662+239617344+240515429+240681546+240105260+239358135+238879854
3977+238676474+238656747+238802813+238998330+239130286+239394104+240087570
3967+241120772+242088225+242728147+243040291+243132623+243159395+243182492
3957+243020298+242490606+241859271+241898592+243229086+245341380+246659307
3947+246377724+245660551+245858086+246466361+246144905+244962686+244073436
3937+244087965+245091120+247199472+250003061+252096047+252338443+251290941
3927+250388895+250178736+249943024+249195537+249008094+250756108+253852077
3917+255655463+254166278+250236774+246384217+244387866+244490232+246418072
3907+250671755+257890230+266635611+273129240+274728979+271837095+265838598
3897+258638536+253302144+252366776+255592283+259374997+260151598+259350644
3887+260558150+263557656+265140962+265050401+265545038+265682535+263239265
3878+260438627+260956247+264570902+268829916+272904781+276198019+276542400
3868+274432315+273594497+275084519+275522184+272278892+267654799+265711650
3858+268673187+276997374+288913728+296561357+291799347+280048710+269812354
3848+264420285+264456768+268948867+275637899+282496455+288938253+294135262
3838+295592839+292421447+287475536+283412305+280413294+278013020+276595506
3828+276367448+276975952+279298577+284985976+292157667+294915519+292472230
3818+290120092+288833488+285045709+278969390+274844846+275313339+280179695
3808+286544833+290582892+292802655+296878281+302258849+303763762+300459652
3798+296329929+292671060+288562701+284755405+282842093+282870065+284051827
3788+286389075+289987431+293745715+296713155+299736062+303479056+306245020
3778+306283178+304975686+305210466+308703961+315263397+322567254+327573449
3768+329649945+330330178+330805107+332382720+336905609+344315888+351246287
3758+354659408+356456454+361224442+371494997+385027104+394641989+396910307
3748+398175337+404264642+412728517+415150613+410794640+408014643+412867404
3738+425967996+442157436+452966555+454468346+450335309+446545360+447239264
3728+453834079+464752457+476509074+487013418+496566190+505465768+513291034
3718+520082431+526997217+536526454+551555743+571581174+589656201+599513368
3708+603834571+609211007+619366666+632883616+644269269+649866889+651827308
3698+653607369+656293797+659832134+664780064+671467153+677461289+677954917
3688+671724287+663632556+658365799+657577716+661172568+668052736+677567768
3678+689735487+701001789+705285481+705886197+710066684+715777486+714506439
3668+706107457+698731605+696372383+697416001+699042664+700862711+704610656
3658+710742576+717191267+723079001+730747785+741225928+750102238+749915937
3648+741129350+732148313+727885491+728329611+731105229+733698811+736235803
3638+741104063+748469938+755040951+759058445+763193461+769698439+774563348
3628+771068882+760890602+750915683+744998321+743858888+746340964+750071010
3618+753495023+757268864+761726593+764915560+764930793+763059029+762270870
3608+763603002+765659162+766564920+765360594+762446127+759308572+757641084
3598+758431223+761008049+763156521+763681300+764535647+768049155+772479388
3588+772543139+766734388+760115391+756762288+756544912+757755865+758775643
3578+758622093+757863486+757920610+759103001+760655175+762355490+764581118
3568+766586551+766306568+762956282+758345308+754905148+753636005+754510612
3558+757969356+763993883+769718013+771306823+768931682+766595158+767038669
3548+768995433+769575737+768216718+767043543+767160838+766729895+763479234
3538+758007896+754487381+756836549+763931427+770504725+772766760+771501120
3528+769260031+766798596+763911777+762091958+763552733+767388877+769484795
3518+767824391+765179244+764611279+765394183+765283895+763611990+761145375
3508+759249467+758991038+759940287+760227964+758393673+755274702+753633263
3498+755381639+759306820+762588708+764612650+766767977+768275975+766614047
3488+762282067+759128821+759495938+761502895+761274552+757306565+752503731
3478+751052096+753906240+758351249+761574872+763634916+766064286+768452679
3468+768407132+765146493+761218113+759997106+762948590+768898550+774382303
3458+775684883+772281130+767447220+765032702+766684957+771203085+775114557
3448+775215933+771838381+767937344+765084190+763152561+762643776+764276304
3438+766943538+768501881+768575152+768553598+768881185+768210320+765499291
3428+761742664+759338048+760161166+763951535+767967124+768663657+765564565
3418+762845843+764786460+770711210+775810327+776269833+773112170+770558117
3408+770558422+771212301+770639081+769645123+769999597+772342976+775814288
3398+778259424+777668686+775121564+774071244+775272828+776226190+775884436
3388+776015288+777044891+776684248+774088990+771199658+769701029+769866917
3378+771297607+772605746+771479794+767459406+763650149+763542070+767723395
3368+774461667+781276638+785635429+786292812+784555861+783214742+784170845
3358+786950499+788855776+787410538+783336073+779789891+778837367+779619509
3348+780177877+780249396+781586174+785396346+789926584+791914424+790256228
3338+786907466+784318682+783449255+783668915+783419398+781867377+780027831
3328+778991982+778692196+779446232+782071576+785257572+785770927+783089830
3318+780700523+780928943+781750310+780539815+778403986+778028567+779325510
3308+780156398+779846481+779251249+778782680+778735229+779938718+782398858
3298+784487007+784475278+782535194+780846456+781673536+785242492+789465022
3288+791798119+791408686+789466089+787510162+786480102+787149215+789595494
3278+791932094+792197378+791683947+792988050+795229216+794908103+791412037
3268+788134185+787921151+789713397+790369943+789266612+788785856+790021791
3258+791186968+790958015+790287760+790276488+791012931+792425265+794133196
3248+794607859+792450704+788435343+785298702+785058095+786504323+786985536
3238+786580336+787474746+789691310+790941031+790697758+791260087+794062134
3228+797440524+798856210+797889443+795936792+794112175+792885303+792512855
3218+792582165+792182526+790999145+789433261+787982997+787476193+789022121
3208+792080616+794335492+794776489+794835365+795616440+795622229+793169781
3198+789589400+787463321+787138552+787241375+787078153+786836404+786864966
3188+787573989+789145432+791021080+792231424+791972081+789837090+786520851
3178+783967484+783654673+785156577+787162544+789054491+790484572+790972030
3168+791174553+792480713+794773518+796049212+794743585+791923259+790251049
3158+790866236+792351689+792825514+792036669+791158787+791601917+793888096
3148+796498892+796629516+793375884+788898200+785503510+783540653+782755464
3138+783499676+785626593+787611310+788090466+787749779+788386978+790323253
3128+791990894+792157543+791587065+791827748+793016155+793946210+793758387
3118+792495032+790719466+789583840+790348997+792495641+793402390+791664906
3108+789142234+788082774+788220328+787899748+786541949+784997087+784206948
3098+784114330+784089348+784148681+784884667+786121440+786728249+786246046
3088+785362223+784992898+785870475+788149723+790676051+791388121+789333256
3078+785831250+783084423+782073175+782272652+782729264+782831706+782502062
3068+782053601+781602321+780922926+780222510+780086326+780353514+780229517
3058+779585158+778880933+778376795+778459967+779560709+780895964+780845999
3048+779393602+778364304+778811927+779755692+779664522+778141368+775995714
3038+774324341+773430389+772459585+770459635+767959127+766777803+767634815
3028+768869608+768561138+767070734+766225756+766693488+767538694+767833073
3018+767602140+767249114+766811239+766155075+765435388+764987993+764826751
3008+764832692+765335688+766629356+768064311+768517343+767756070+766637277
2998+765873491+764921805+762505003+758520032+754740631+752839696+752570985
2988+752707092+752997892+754186909+756378034+758522393+759679649+759814766
2978+759090586+757414187+754989006+752369147+750112368+748935613+749505863
2968+751531176+753744921+755202269+756048695+756753757+757111887+756427313
2958+754447471+751880470+749872447+748929367+748526377+747562656+745329641
2948+742697062+741705313+743170505+745365972+745968820+744844848+743637551
2938+743268683+743053287+741870591+739537190+737116046+735948355+736255454
2928+736806662+736042495+733466736+729873483+726710031+725386049+726412073
2918+728671975+729922153+728648668+725421618+722308893+721113021+721942538
2908+723218536+723396763+722674334+722288557+722397854+721801708+719897498
2898+717785052+716820418+716933524+716973358+716119925+714394780+712314476
2888+710678901+710103853+710233791+709988234+708888863+707581181+706765907
2878+706336410+705726097+704560920+703016210+701616215+700535200+699401098
2868+698045660+696851159+696029182+695320007+694603824+694085366+693803098
2858+693497218+692914400+692040555+691060079+689879668+687921914+685070588
2848+682479443+681495996+681965860+682307462+681227666+678969744+676817159
2838+675724567+675758156+676441511+677102855+677283367+677131569+676819292
2828+675659522+672946207+669533010+667058626+665749953+664361078+662050298
2818+659378493+657493553+656860695+656943030+656872958+656181072+654887708
2808+653260969+651718620+650654895+649991647+649111024+647602340+645808113
2798+644249009+642945743+641805396+641050064+640604497+639749312+638105855
2788+636365362+635463222+635441895+635320945+633981882+631267806+628263083
2778+626265609+625556585+625371427+624970074+624301457+623516953+622495690
2768+621164511+619717217+618353895+617340439+617016051+617042975+616296517
2758+614273870+611855277+610146279+609404238+609212797+608974513+608336210
2748+607487004+606783846+606031560+604534645+602000776+599179193+597277230
2738+596618323+596234259+595114438+593395539+591851477+590782039+589922399
2728+589093453+588453626+588018037+587263200+585693737+583664121+581958969
2718+580739829+579648836+578650727+578011243+577672345+577176357+576069979
2708+574265507+572196552+570503549+569433730+568745500+568138081+567483326
2698+566710971+565713167+564370220+562637839+560652894+558726672+557192283
2688+556193222+555519083+554738693+553645453+552474868+551556809+550861724
2678+550058599+549081169+548409200+548385627+548445569+547693246+546099752
2668+544382947+543003479+542010511+541383404+540868107+540015817+538809624
2658+537724344+537032496+536526225+535920444+535170596+534399498+533679469
2648+532902545+531912243+530692150+529308302+527869462+526631890+525871455
2638+525502891+525004884+523915072+522359356+520997558+520405829+520476282
2628+520473198+519795326+518625312+517636000+517173296+516987909+516598324
2618+515657567+514256582+513047152+512596749+512556990+512085946+511037796
2608+509984696+509232335+508594031+507927775+507286843+506719754+506228221
2598+505735355+505101850+504360266+503749115+503378914+503074633+502569619
2588+501734047+500735595+499944504+499461958+498937560+498122895+497264245
2578+496676630+496323565+495991256+495541576+494924598+494219688+493606100
2568+493068868+492347163+491400123+490602253+490206345+489942623+489419672
2558+488648650+487960839+487596578+487459899+487198347+486596489+485859437
2548+485327155+485048847+484862927+484701609+484594597+484521478+484399004
2538+484164301+483836561+483418566+482752766+481769624+480852022+480474547
2528+480520246+480463084+480114284+479686883+479285301+478823206+478334186
2518+477966422+477690246+477310981+476820438+476470344+476376051+476268391
2508+475791101+474917256+473966598+473260888+472838475+472571364+472468693
2498+472617444+472861135+472832649+472302462+471339084+470240361+469394278
2488+469050544+469158356+469445652+469606589+469491199+469240463+469128081
2478+469212396+469282772+469135202+468773950+468375795+468121365+468053083
2468+468119651+468267526+468362543+468188276+467691907+467069560+466550226
2458+466276336+466325653+466625440+466925721+467002687+466779255+466233455
2448+465407518+464529255+463923740+463730090+463797077+463918485+464064113
2438+464250071+464313440+464097892+463794145+463731575+463858391+463777046
2428+463275116+462523898+461799489+461246376+460883144+460702670+460728528
2418+460936307+461201743+461467179+461807029+462134693+462117746+461685888
2408+461304490+461409180+461817540+461995995+461766052+461458078+461406285
2398+461590339+461801545+461900484+461853833+461698303+461483479+461172915
2388+460664244+459895051+458819558+457310113+455163088+452196714+448396939
2378+444021507+439483842+435106086+431031773+427253096+423625607+420067810
2368+416794832+414135405+412180507+410754768+409667736+409113595+409924223
2358+413020915+418402378+425176067+432668643+440586716+447943565+453014730
2348+454565723+452858591+449789623+447426364+445962276+444252592+441815758
2338+439065846+436403677+433946469+431845448+430403409+429797818+429887427
2328+430411711+431170128+431990200+432848964+434013494+435740467+437910342
2318+440134865+442056136+443520986+444692485+445976633+447690468+449825725
2308+452124966+454268221+456031830+457398160+458530091+459621693+460748102
2298+461805087+462608403+463117111+463530499+464101548+464880034+465678590
2288+466267044+466601219+466891637+467407810+468150460+468767476+468939229
2278+468808910+468800036+469057133+469381635+469665998+470010304+470396995
2268+470604355+470562731+470613457+471225750+472394127+473470115+473829387
2258+473583715+473336825+473446046+473884721+474551282+475267122+475703435
2248+475743841+475756636+476191388+477046459+477933861+478484041+478527722
2238+478160148+477869349+478298008+479524803+480777342+481201012+480779475
2228+480205759+480032026+480265815+480676766+481192367+481916471+482871013
2218+483843302+484559180+484994351+485392276+485919341+486457982+486869008
2208+487277940+487856911+488452219+488738791+488692864+488618755+488721654
2198+488924673+489142049+489484107+490051501+490708542+491272660+491799458
2188+492421843+493025263+493384649+493531382+493704544+494052733+494612625
2178+495374050+496170054+496731507+496983386+497101290+497263369+497491256
2168+497679308+497720933+497716439+497968965+498576574+499233043+499675298
2158+500035179+500525341+501129027+501786030+502510933+503169307+503492514
2148+503450433+503344525+503474158+503890516+504445876+504958278+505348207
2138+505642852+505843205+505902157+505899111+506040893+506394719+506805631
2128+507105075+507249065+507309503+507433309+507650571+507711998+507420894
2118+507079902+507176328+507660549+508014070+508010947+507921072+507982005
2108+508148312+508364964+508692132+509115840+509478235+509597662+509383180
2098+508947743+508620270+508679108+509087506+509602879+510023921+510211136
2088+510043191+509533988+508901206+508412034+508204750+508244965+508344399
2078+508264768+507950206+507633510+507542226+507559135+507445686+507326754
2068+507527678+507940913+508066091+507758954+507441535+507463471+507690063
2058+507769237+507493442+506910244+506289915+505932471+505893322+505939364
2048+505801162+505447374+505112132+505002759+504990649+504745967+504186190
2038+503583227+503220871+503125435+503079584+502787337+502138675+501372909
2028+500852700+500663695+500558320+500297645+499956843+499844423+500088952
2018+500332719+500009092+499031967+497986064+497465665+497435960+497373733
2008+496847926+495866954+494844282+494246003+494122920+494097709+493894614
1998+493644030+493656064+494139448+494962986+495470094+494944439+493507352
1988+492031534+491094814+490501715+489792691+488854525+487972568+487463822
1978+487371547+487484196+487534160+487369186+487089888+487032002+487415038
1968+487969750+488073868+487378326+486168249+484968150+484022138+483361061
1958+483087894+483205493+483372676+483229295+482797628+482311464+481889356
1948+481642504+481930828+483075212+484563864+484976109+483461675+480900006
1938+478771375+477639977+477203511+477034767+476888492+476708132+476588438
1928+476719747+477377359+478595357+479728659+480116646+480198942+480673224
1918+480830505+479432300+476985831+475261447+475111859+475939662+476607632
1908+476414705+475483850+474383337+473473199+472785807+472359015+472386701
1898+473017083+474007880+474758680+475115934+475755265+476963743+477673642
1888+476835861+475048413+473558771+472760139+472427221+472374705+472449727
1878+472480955+472409284+472377485+473011447+475378590+479742293+484062925
1868+485012935+481901809+477520892+474494386+473324106+473255900+473428186
1858+473333550+472980714+472750809+472942974+473631014+474833246+476640383
1848+479441592+483579389+487738664+488676793+485354613+480990719+478568852
1838+478212093+478665620+479416115+481242750+484822826+488959290+491160621
1828+490978243+490274361+489560996+487688129+484876409+482885980+482479104
1818+482831407+483086104+483562747+485198017+487994009+490451331+491099079
1808+490310463+489770832+490815249+493714788+497577856+500624965+501526458
1798+500953314+501182838+504079140+509150495+512745385+511347104+506757837
1788+503530292+503515326+505472242+507697489+509765264+511625145+512860662
1778+513862503+516328584+521731449+529302018+535159590+535678771+532102199
1768+527808644+524816032+524543093+527632893+532211230+535079007+535930422
1758+536733509+537845638+539037206+542030314+548560769+556944251+562558322
1748+563199406+561267586+560014666+561083609+564494331+568799463+572032949
1738+574646030+579882550+589082676+597228827+597969192+593765779+589840978
1728+587966244+588541026+591550509+596250940+602567979+612094474+625989357
1718+641364551+650800295+650828552+646506093+643635954+644843327+650636920
1708+660175944+671062029+680384211+688487747+699152799+713651863+726363479
1698+732048613+732811333+731008499+728328545+728313921+732959474+741227070
1688+752003172+766366205+783408963+794352019+793113038+787531184+785521333
1678+789257700+797775347+807329376+814150668+819181770+824800336+829344817
1668+830279823+830359187+833576412+839312805+843329384+843524672+842941627
1658+845790134+854770334+870645553+887589144+891522475+884691357+881684273
1648+884540321+886034076+880682013+872826624+868378111+868944552+874274756
1638+883025164+890478248+889171098+879389335+869763711+864577917+862537828
1628+861210875+860120416+860231389+860376713+857384405+851473060+846318798
1618+843248421+839636812+833355304+826344055+821018345+817844383+815889371
1608+813570136+810157700+806568103+803838794+801592602+798832065+795714618
1598+793447632+792514607+791977869+790780245+789044513+787583129+786668764
1588+785857755+784918332+784378700+784869129+786512701+789482312+794499323
1578+801598314+807788882+808596387+805656785+805011360+808755420+813589177
1568+815556681+815643433+816840676+820586564+828735114+844120133+863921829
1558+872567129+864995455+854655933+847934951+844608962+843707165+844523124
1548+847353200+853685663+864448893+878608640+893495919+903606793+901284816
1538+890225531+882731090+882851736+886585666+888237540+887891368+890077085
1528+896212508+903562769+909744653+915399245+920650541+923398663+923888863
1518+924732470+925417806+923468354+919781951+918501536+922978230+933873378
1508+947551761+953054022+943320319+929562648+921879240+921040203+924697054
1498+929268955+930467340+927644500+925563054+928312470+935053180+940518196
1488+939846189+934053433+928015425+925413236+926512074+928830547+930451346
1478+932437281+936993949+944124625+949984787+949005300+941259818+933728512
1468+931299599+933019108+934547975+933549904+933339764+938275279+948568797
1458+958215443+957155602+945731561+934939922+929898918+929410318+930756235
1448+931736636+931542871+930513801+929026520+927495368+927425829+930778933
1438+937247275+942456604+942098017+938389450+935889323+935557470+935496843
1428+934599920+934155952+935401941+938074202+942046453+947577657+952639911
1418+953165299+949157936+944730825+941952542+940215515+938634855+937278807
1408+937011543+938229884+939738720+940283759+941010300+943863454+948424311
1398+952405093+954310750+953759541+950815370+946908011+944107183+942682358
1388+940883561+937369444+933468407+931782640+933151179+936237246+939469704
1378+942553410+945729733+948212191+948528201+946637015+944190127+942417302
1368+941568516+942196271+944993824+948846800+950602335+948398872+944046860
1358+940367388+938241004+936976431+935961832+935129193+934245903+932686113
1348+930153234+927159327+924704061+923771264+924733384+926612384+927226581
1338+925142773+921305639+917631499+914824425+912441821+910270194+908783675
1328+908322799+908365299+907911963+906558733+905010596+904400588+905130328
1318+906440372+907032329+906097247+904002091+902040986+901213068+901317110
1308+901488254+901292128+900880378+900431688+899978809+899540325+899051724
1298+898278037+896934404+894983124+892805328+890765315+888559948+885634970
1288+882376311+879856152+878241219+876653095+874708746+872974537+871808446
1278+870867347+869806516+868719865+867990124+868018077+868792907+869753276
1268+870460243+871106430+872005257+873159467+874557025+876138446+877497159
1258+878341985+878958468+879657742+880364404+881132760+882253000+883541641
1248+884324088+884511150+885021534+886763207+889600518+892611182+895256481
1238+897759731+900291924+902502548+904102324+905330415+906573738+908014329
1228+909742216+911782229+913903434+915653104+916784997+917704008+919221679
1218+921593849+924150491+926192865+927760576+929222037+930747629+932468509
1208+934524364+936743974+938832276+940858122+943114596+945660423+948267487
1198+950872342+953753677+957060548+960328803+962764799+964039883+964419643
1188+964301968+964269598+965338197+968253198+972383187+975844674+977241166
1178+977311085+978069083+980326929+982882200+984140147+983742259+982489567
1168+981572689+982084749+984536206+988229083+991248049+992200573+992119990
1158+993089346+995252519+997038901+997617910+997319570+996643526+996387001
1148+997403961+999326679+1000898732+1001642182+1002290425+1003957685+1006981144
1138+1009932856+1010674250+1009176230+1007856589+1008873320+1012406783
1130+1017044338+1020775298+1022354967+1022214671+1021559877+1020943776
1121+1020239856+1019604637+1019536469+1019931081+1020264990+1020905388
1113+1023090724+1027291548+1032249531+1035913542+1037052213+1035916436
1104+1033889904+1032266592+1031550333+1032261794+1034770376+1037701980
1095+1038997096+1039181644+1040609592+1043491689+1045503063+1045397422
1087+1044814833+1045960893+1048737425+1050533251+1049108655+1045659659
1078+1044029340+1046793685+1052319024+1056208789+1056241768+1054223843
1070+1052291909+1050678803+1049878686+1050911565+1053116704+1055096927
1061+1057061536+1059593348+1061696959+1062435001+1062717803+1063739333
1053+1065086241+1065856501+1066251951+1066989917+1068251063+1069277391
1044+1068500885+1065088830+1060947339+1059904864+1063492862+1068584820
1035+1070740375+1069371912+1067767261+1068624654+1071469354+1073741823
1027+1073212322+1069527290+1064251240+1059999309+1058847537+1060648924
1018+1063191399+1064577837+1064744791+1064265254+1063153164+1061160831
1010+1058425276+1055447211+1053043814+1052355736+1054318898+1058396867
1001+1061902681+1062146258+1059724505+1057696907+1057412886+1057461404
993+1056765024+1055963384+1055492530+1054629348+1052598932+1049470136
984+1046109340+1043444847+1041482904+1039659353+1037990418+1036934767
975+1036331308+1035528526+1034446216+1033135715+1030966678+1027645184
967+1023983992+1020562111+1016831761+1012164425+1006723172+1001043979+995656043
957+991100288+987603613+984974690+983065301+981782067+980774476+979571673
947+977527319+973838326+968851476+964766500+963254085+963078067+961801079
937+959157380+957139226+957477553+959918957+962245123+962206278+959998169
927+957741542+956726486+956789399+957579310+958916926+960373588+961177970
917+960554024+958551865+956311537+954768580+953864116+953471408+953867848
907+954566894+954141739+952047573+949221229+946615613+944424793+942539472
897+941155776+941063083+942807878+945247988+945868126+943355964+939074558
887+935457846+933881985+934164559+935065062+934978766+932908821+929211831
877+925452157+923662500+925173316+929262862+933396812+935722140+936517154
867+936569556+935660218+933282792+929716731+926262708+924646632+925340803
857+926797770+927552569+928075520+929142063+930128785+930258800+929829684
847+929516035+929878049+931332959+933281193+933984885+932656256+930901635
837+930759739+932100021+933259333+933505119+933400772+933291628+933054144
827+932856876+932720616+932027892+930801554+930240596+930830344+931330903
817+930600173+929293785+928904351+930015223+931889119+933310974+933994329
807+934914559+936618301+937923014+937655597+936673521+936196574+935798381
797+935055008+935219220+937256796+939858604+941025152+940211554+937966047
787+935317093+934204698+936342811+940479808+942523629+940337608+936897371
777+936298559+938449850+939764083+938132469+934803510+931703885+929730669
767+929244429+930334508+932645517+935366372+937145061+936670779+934357485
757+932661969+933647777+936807877+940075751+942046301+942213027+940369369
747+937254434+934878076+934834661+936636505+938373075+938841035+938534469
737+938604161+939650292+941283734+942417302+942545184+942357360+942228412
727+941421288+939918165+939070826+939327122+939405344+938056303+935326004
717+932500193+931700153+934154505+938105582+939968053+938144198+934097990
707+930119265+927733614+927122539+926826332+925098826+922064551+919329453
697+917541395+915759583+913310486+911027583+909807490+908934483+906731628
687+902693418+898353973+895100418+892292964+888668102+884404138+880805553
677+879137456+880170411+882307915+880469131+870949377+857913982+853425177
667+863683812+876278133+880481927+878736065+876079265+873180184+868815985
657+864029222+859792829+854564916+847898163+842468488+840291453+840565953
647+841852005+843992785+846880365+848952596+848495451+845900955+843540058
637+842795694+842307474+840647298+839128866+839195586+839223768+837271421
627+834454217+832566459+830605125+826325242+821124444+819692307+823437585
617+827655470+827553408+824780000+823703859+824150950+822530685+817925804
607+812447459+807501053+803495517+801533879+802518392+805335215
##END=
