##TITLE=<SNM>
##JCAMP-DX=4.24
##DATA TYPE=INFRARED SPECTRUM
##DATE=2/5/2025
##SAMPLING PROCEDURE=Instrument type and / or accessory
##ORIGIN=Admin
##XUNITS=1/CM
##YUNITS=ABSORBANCE
##RESOLUTION=4
##FIRSTX=4497.3318
##LASTX=599.83466
##DELTAX=-1.4281778
##MAXY=1.8259519
##MINY=0.32964826
##XFACTOR=1
##YFACTOR=1.7005503e-09
##NPOINTS=2730
##FIRSTY=0.35522005
##XYDATA=(X++(Y..Y))
4497+208885358+209642092+210283634+210318701+209855863+209109241+208090665
4487+206860700+205704622+204924597+204637588+204823354+205232916+205329514
4477+204882922+204531579+205078975+206358694+207497843+208081657+208371487
4467+208580264+208580036+208357537+208283213+208570502+208714979+208030746
4457+206713262+205668345+205221840+204772601+203846505+202779664+202230094
4447+202549910+203677230+205202668+206468629+206884937+206351158+205335122
4437+204450192+203977926+203863592+204050076+204586853+205381827+205984971
4427+205778122+204528687+202786534+201509024+201126363+201219176+201305698
4417+201524849+202183793+203108435+203911207+204545879+205183951+205776159
4407+206045976+205839425+205342535+204948501+204868692+204820095+204259414
4397+203098235+201972510+201560881+201897012+202571641+203175065+203274783
4387+202568574+201468436+200955441+201462670+202312234+202509217+201776212
4377+200710177+200170228+200428671+200810561+200471450+199518540+198900394
4367+199230725+200163306+200860928+200758143+199936005+198952234+198303472
4357+198075382+198138333+198453206+198988493+199464668+199375465+198363723
4347+196705778+195323205+195061888+195942735+197197234+197981290+197978276
4337+197408622+196682277+196130534+195984480+196293149+196703377+196681278
4327+196167196+195655954+195455940+195293693+194868744+194387417+194257521
4317+194587186+195243588+196061748+196771935+197032534+196783484+196400175
4307+196318806+196596053+196894085+196882694+196691758+196800519+197310797
4297+197633504+197227483+196426025+196073875+196465561+197158066+197690549
4287+197813663+197236158+196020511+195006193+194877261+195090138+194701782
4277+193921267+193847994+194945749+196522903+197540306+197544004+196952321
4267+196660423+197290170+198626074+199759545+199950797+199322154+198539903
4257+198038299+197842141+197806688+197637097+197044784+196315827+196291011
4247+197336226+198676441+199245026+199033533+199033620+199775949+200587536
4237+200591970+199901060+199336822+199333422+199555816+199399246+198612369
4227+197589026+197124067+197585784+198307923+198272312+197476111+197012082
4217+197632839+198899763+199902567+200258152+200167898+199834079+199184424
4207+198274538+197701204+198054703+198920899+199105701+198153632+197092277
4197+197224416+198485645+199546545+199539693+199011766+198865975+199147095
4187+199355994+199316177+199217336+199157049+198999534+198604185+198126678
4177+198013379+198542847+199443147+200114271+200187175+199780137+199253017
4167+198862295+198695000+198736605+198906598+199177063+199618783+200182689
4157+200574375+200514316+200039281+199494338+199258905+199355311+199416666
4147+199276378+199269000+199636449+200091383+200264846+200193467+200189313
4137+200456045+200847504+200991805+200754112+200421591+200297688+200345111
4127+200336962+200143748+199803691+199478162+199378181+199598735+199945609
4117+200063623+199932360+200037213+200676459+201299634+201048306+199857037
4107+198564385+197995889+198303840+199107418+199844069+200011907+199551084
4097+199029467+199029782+199410918+199553695+199121824+198241941+197233774
4087+196451471+196148585+196351753+196964168+197870479+198838443+199560144
4077+199950797+200142661+200033795+199234510+197767922+196447721+196112904
4067+196733152+197585836+198078975+198160730+198093538+198044871+197922616
4057+197575812+197046817+196566927+196406221+196674355+197145588+197422344
4047+197380459+197256978+197254244+197303472+197284615+197254331+197358693
4037+197655323+198134530+198834640+199734502+200510811+200644247+199979275
4027+199104141+198910086+199646771+200616470+201021177+200885884+200837392
4017+201151932+201355364+200853112+199802569+199040858+199041086+199362952
4007+199390449+199153211+199121211+199576688+200338224+200903023+200957491
3997+200750853+200677878+200684310+200531088+200360463+200452645+200739093
3987+201021843+201318193+201593828+201507744+200859210+200091979+199937442
3977+200614139+201688709+202626056+203147025+203159784+202747418+202217301
3967+201918025+202048219+202652186+203567908+204412390+204869726+204892894
3957+204528179+203923808+203578774+204082410+205395654+206684801+207104492
3947+206770621+206672130+207313356+207847837+207262919+206084934+205683521
3937+206441675+207852604+209716206+211927191+213462793+213179938+211684170
3927+210776703+211158557+211775686+211627389+211424168+212435138+214323223
3917+215034304+213137264+209699014+206994522+206171122+206928996+209122788
3907+213644143+220881415+228747279+233732382+234496933+232084812+227318527
3897+221225170+216434297+215476813+218072982+220583471+220078818+218933395
3887+220679754+224315355+226395409+226888023+227657462+227275941+224031010
3878+220882660+221310325+224772602+228979661+233114062+236274662+236323925
3868+233926455+232435595+232656919+232019689+228919936+225343360+224312743
3858+227700872+236152442+247611074+253627022+247279008+235490010+226261991
3848+222000954+222564123+226552277+231992946+237606465+242903866+246567349
3838+246550420+243219581+239357591+236301072+233508569+231044960+229939406
3828+230185371+230998659+233366371+239159277+246422627+249293730+246956178
3818+243942456+240904251+235638939+229528267+226135898+227092593+231774670
3808+237518156+241463775+244503365+249019865+253090438+252648683+249291942
3798+247132166+245914854+243734608+241458658+241197078+243331934+246927630
3788+251333967+256237544+261128030+266159313+272580827+280659515+288296745
3778+294017623+299833347+308522084+320764667+335338614+349652700+360834698
3768+368072952+371991110+372807885+372063524+372867856+376298571+380028509
3758+381974882+383765352+388651141+397978283+409280013+417143353+420475401
3748+424851875+434123392+445545975+451957430+453665322+458260930+469699251
3738+487060601+505932827+520527699+527956662+530204081+531534587+535560384
3728+544098370+556332050+568953596+578909749+585062568+587209639+586521042
3718+585419589+585579068+587543246+590901477+592840174+589458811+581436553
3708+573019421+567075466+564646486+565025554+565615099+564716832+564031250
3698+565787546+569907803+575363438+582174010+590504148+598018843+600080777
3688+595512613+588668639+583182965+579982425+579294425+581582643+587772264
3678+597776436+606572707+606943328+601798307+599073995+598315158+593328424
3668+583378510+573702444+567766025+565644926+565907487+567654004+570944518
3658+574761486+576584973+576591808+578608387+584828397+592684762+595544158
3648+589160814+576990294+565012025+557140483+554483677+555629574+557835669
3638+559106730+559543946+560556302+563456531+569032529+576897306+582770880
3628+580708946+573559334+568453184+568313334+572507793+578186873+581105048
3618+579539916+577365261+579255379+585226252+591301891+594631170+595577456
3608+594764782+592276637+589466451+588288554+589615835+593328214+598794014
3598+604678663+609306763+611791753+612627561+613423130+615894871+619665643
3588+620932568+617035125+611381596+608068790+606547190+604669340+602990575
3578+603147740+604156906+603784743+602544526+603431156+608097391+614808805
3568+619525652+619382507+615472376+610780555+607165967+605358427+605578262
3558+607088506+608212005+607880220+606594929+605347001+604564891+604446631
3548+605133826+605675912+604292410+600910065+597832096+596952405+597956033
3538+599615661+601104664+601630347+600583046+598695172+597282648+596185367
3528+593890419+590242253+587300524+586544491+586987701+586822018+585768619
3518+584935861+585007784+585327828+584744102+582919177+580528192+578366470
3508+576671162+575299226+573970298+572301277+570282139+568643647+568017265
3498+567911834+567243882+565713520+563892030+562170364+560574913+559410861
3488+559218575+560174780+561878816+563425302+563757262+562664712+561094988
3478+559757823+558077586+555176094+551447102+548480207+547480996+548127357
3468+549071014+549474091+549603111+549862552+550032861+549603391+548227776
3458+545882566+543165859+541095794+540019507+539338692+538760749+538827625
3448+539631782+540084034+539262948+537613065+536094024+535001719+534032090
3438+532881532+531653968+530945253+531327300+532621214+533904262+534154941
3428+532871017+530399591+527617761+525150787+523128705+521571740+520503339
3418+519768687+519241321+519096424+519282926+519077251+517979689+516734145
3408+516509473+517218469+517590842+516997828+516227284+516136258+516445857
3398+516249225+515232208+513885369+512600393+511115526+509224322+507517131
3388+506511400+505648324+504462891+503957432+505012303+506296473+505864023
3378+504250522+503760870+505059130+506461769+506471829+505567008+505190814
3368+505982878+507424704+508620862+508923100+508091990+506429488+504767758
3358+503867002+503716462+503755963+503693188+503660872+503712221+503649656
3348+503369464+503054784+502907257+502864461+502787491+502817599+503195686
3338+503758627+504063914+503968613+503599744+502893903+501710258+500198998
3328+498579573+496824188+494970172+493474545+492845218+492997827+493167715
3318+492559173+491131438+489693924+489225267+490114036+491869666+493421093
3308+493761816+492539545+490359072+488498116+487877061+488225355+488645747
3298+488945497+489695221+490939258+491731042+491211563+489636441+488055011
3288+487273952+487483062+488650023+490624787+492796884+494334396+494901579
3278+494652127+493744677+492439161+491433115+491486987+492618548+493860377
3268+493989362+492642418+490629589+489048124+488349187+488312280+488488302
3258+488470566+487989292+487135959+486513187+486662361+487237325+487264173
3248+486233381+484460577+482722262+481961462+482542910+483396312+482953102
3238+481267362+479957115+479865599+480014878+479128213+477215173+475195474
3228+473754034+473046406+472884754+472789172+472371969+471871768+471795604
3218+472094267+472136082+471315801+469632200+467948668+467266100+467431888
3208+467289479+466292440+464977567+463856906+462978828+462409578+462223567
3198+462173340+461854979+461063019+459945338+458992498+458636984+458662080
3188+458341405+457305251+455962407+454891693+454036959+452825764+451073919
3178+449350711+448197278+447445662+446705927+445960935+445224950+444300641
3168+443262840+442464571+441874255+441144300+440281083+439506789+438729971
3158+437760833+436673014+435603878+434638455+433875867+433165435+432053011
3148+430407369+428741047+427607172+427038728+426740240+426540454+426454897
3138+426381607+426014070+425209107+424190548+423208301+422313434+421598234
3128+421209142+420953906+420337899+419198522+417987607+417243105+416977705
3118+416755452+416246348+415509627+414775010+414194894+413869733+413849860
3108+413962336+413839204+413282537+412423386+411423123+410336602+409373948
3098+408824816+408542942+408025251+407182258+406434146+405972114+405592100
3088+405249589+405135746+405211279+405139952+404700002+404023253+403371914
3078+402786611+402128859+401485617+401195787+401273949+401233221+400739609
3068+400002678+399327856+398710377+397965069+396978581+395900226+395182713
3058+395154988+395493609+395455404+394659554+393342507+391918522+390642169
3048+389670051+389132486+388994003+388932980+388514305+387581724+386490576
3038+385820942+385738539+385691221+384887310+383171742+381284674+380103727
3028+379790869+379822694+379642116+379070377+378254478+377457576+376803644
3018+376148591+375363536+374630391+374162927+373792937+373187024+372345433
3008+371576712+371085939+370792919+370458154+369896650+369143736+368387318
2998+367672609+366840587+365869942+365017205+364479780+364175369+363930368
2988+363619262+363135745+362486019+361831702+361292419+360882191+360642343
2978+360575432+360521104+360306912+359875059+359230590+358520964+358017538
2968+357704224+357172477+356241473+355316709+354834243+354706975+354554998
2958+354177927+353589960+352828810+351984450+351272160+350818996+350471648
2948+350021007+349464375+348858918+348148590+347336512+346611814+346113855
2938+345693253+345082783+344299061+343685296+343420106+343171881+342550370
2928+341763704+341378432+341456944+341413587+340813562+339848911+338876723
2918+338007548+337343697+337101395+337214291+337252461+336934766+336344030
2908+335652174+335022321+334682545+334735751+334942442+334908303+334458574
2898+333728688+332924391+332140142+331475030+331122004+331110157+331117482
2888+330805571+330222686+329657781+329176472+328538663+327649545+326877914
2878+326637890+326781105+326794810+326511324+326171197+325885012+325517651
2868+325030347+324524923+324009861+323420631+322814824+322339963+322036534
2858+321802924+321539171+321240789+320941180+320631967+320295450+319966118
2848+319671065+319351302+318969710+318642727+318501720+318487034+318431444
2838+318252513+317937832+317447900+316758533+315959143+315246256+314768277
2828+314443536+314043999+313505172+312965504+312525168+312220267+312098958
2818+312053392+311797526+311216113+310478026+309759707+309154600+308762353
2808+308561200+308302529+307736083+306862211+305909126+305146573+304717489
2798+304602068+304699122+304845492+304802100+304402668+303725112+303000414
2788+302396393+301938392+301524625+300984045+300240876+299425257+298724954
2778+298196712+297812772+297572328+297423329+297182079+296718294+296145889
2768+295656028+295239070+294734417+294081993+293382601+292765524+292296640
2758+291953621+291623992+291173947+290545094+289763018+288914155+288158858
2748+287646581+287343572+287069778+286749384+286443903+286117586+285623238
2738+284979944+284399880+283970936+283570522+283158752+282879052+282766313
2728+282610725+282238772+281728581+281252775+280868799+280492290+279967746
2718+279228940+278456644+277927000+277665158+277439522+277102707+276725970
2708+276419438+276192190+275972793+275683611+275331760+275014959+274774724
2698+274505223+274091894+273558587+272995839+272450755+271973739+271629669
2688+271361114+271010735+270578741+270266198+270176803+270170459+270057317
2678+269773866+269360501+268879735+268363060+267834555+267404541+267242014
2668+267364023+267544620+267522678+267247814+266845876+266383879+265809967
2658+265171265+264702503+264541833+264512321+264344851+263997170+263625971
2648+263335019+263052550+262654922+262153617+261693688+261401089+261316688
2638+261409816+261550438+261575078+261470208+261357118+261256840+261049833
2628+260677319+260215989+259770273+259421909+259239385+259210345+259209715
2618+259133656+259010594+258908879+258834134+258781681+258764121+258718942
2608+258520838+258143312+257706218+257340452+257091332+256952569+256928016
2598+257027734+257204527+257331759+257292451+257070425+256741198+256443640
2588+256347392+256501560+256686678+256587345+256184566+255824565+255817958
2578+256108542+256398898+256456713+256244029+255893614+255621256+255549789
2568+255609935+255678441+255723200+255738342+255696352+255671518+255844737
2558+256275293+256789988+257140823+257158927+256797822+256192172+255625392
2548+255293642+255137196+254966396+254677319+254322646+254034463+253859019
2538+253659899+253285756+252811351+252474133+252401001+252496039+252556413
2528+252453576+252233180+252038739+251942684+251887726+251781383+251612739
2518+251463933+251386928+251307312+251146554+250985673+250966185+251069794
2508+251121896+250999728+250762824+250567612+250484333+250452139+250406276
2498+250351124+250295903+250230078+250152600+250055966+249937444+249857740
2488+249903919+250069180+250218074+250181289+249897207+249486068+249154475
2478+248999325+248934079+248827159+248676741+248574254+248492657+248258259
2468+247814891+247337367+246979942+246701258+246414109+246125962+245893789
2458+245774759+245788148+245821533+245655255+245195922+244642199+244314356
2448+244325643+244505958+244648192+244704360+244697841+244589308+244323101
2438+243932572+243546652+243315601+243295219+243358923+243287175+243014292
2428+242741671+242722271+242957405+243195151+243224453+243081728+242958141
2418+242986181+243131219+243236878+243174068+242978838+242828596+242868342
2408+243084760+243353104+243569224+243714419+243824512+243953059+244161432
2398+244482282+244886481+245380321+246179956+247732751+250589799+255361675
2388+262732979+273311028+287423189+305151095+326482057+351269566+379054219
2378+408963685+439703631+469746639+497960446+524102681+548160094+569301504
2368+586227356+598422341+606452344+611140310+612571480+609973208+602569622
2358+590035106+572533660+550410492+524053996+496424405+474095318+462947494
2348+465097158+478994917+499126146+517285169+528400643+533162845+534220520
2338+533544717+532405339+531858171+532613433+534227565+535037400+533497644
2328+529398732+523553689+516620617+508581536+499303535+489143846+478726012
2318+468482868+458582656+448933473+439183556+428946616+418091706+406790537
2308+395313626+383851541+372586438+361817016+351806465+342562358+333926126
2298+325781438+318054935+310689729+303722834+297238860+291234146+285663721
2288+280560936+276004549+272053093+268766119+266163501+264110067+262345552
2278+260673990+259067200+257592410+256324101+255313989+254528146+253790689
2268+252909124+251887761+250906460+250096660+249467316+248993051+248610706
2258+248191611+247657165+247061557+246489467+245964818+245477322+245008491
2248+244554398+244185477+244009297+244007597+243985708+243750819+243306838
2238+242848416+242584471+242559936+242627845+242604151+242450526+242262675
2228+242093750+241896681+241668854+241532929+241598701+241814768+242012557
2218+242068392+242002059+241927122+241913329+241926666+241937058+242034603
2208+242338541+242796525+243202003+243450404+243639430+243864242+244075629
2198+244206227+244297988+244450141+244717942+245064431+245395393+245671956
2188+245940073+246206104+246383651+246404611+246294886+246141752+246057123
2178+246130448+246354366+246611302+246753098+246707883+246508762+246206069
2168+245816100+245406118+245122369+245044610+245091244+245104406+244990089
2158+244796630+244659250+244628319+244609216+244509814+244371593+244344885
2148+244562424+245021144+245660495+246585067+248019111+250006476+252383896
2138+255040019+258011681+261404436+265325626+269791443+274703765+279978366
2128+285575044+291429954+297550001+304067342+311008861+318138740+325109876
2118+331630898+337498023+342567510+346676727+349594937+351107389+351159578
2108+349920869+347638224+344416479+340339053+335753188+331056460+326215781
2098+320849383+314757481+308132851+301324313+294584017+288054408+281914277
2088+276421156+271763613+267934991+264773322+262093085+259801713+257891389
2078+256332127+255055809+254011873+253133095+252337437+251658024+251246219
2068+251173840+251299548+251338243+251088686+250618943+250128433+249696299
2058+249340329+249138650+249077820+249020916+248949361+248969708+249095503
2048+249264130+249468981+249745246+250110803+250489152+250692969+250665174
2038+250630247+250794054+251094942+251381408+251599332+251776406+252003006
2028+252353525+252761194+253096082+253341083+253634575+254203651+255121493
2018+256005582+256261764+255806164+255185617+254905514+255005617+255247761
2008+255404208+255374135+255193942+254968411+254794177+254712632+254660548
1998+254582806+254716137+255470838+256760511+257785221+257884957+257277239
1988+256542551+255915065+255437138+255236072+255317757+255480127+255602908
1978+255754920+256004478+256326537+256655133+256971986+257418070+258176242
1968+259062959+259494147+259168390+258502349+258092296+258095784+258354857
1958+258774654+259327799+259898013+260334318+260621572+260924721+261436577
1948+262263044+263555836+265434019+267346235+268005653+266839637+264929033
1938+263658515+263320561+263450720+263698385+264002393+264343168+264641726
1928+264985551+265852430+267565124+269484456+270667979+271323453+272185811
1918+272753466+271928840+270143505+268998905+269293783+270496233+271526183
1908+271702679+271209750+270699980+270543358+270692549+271070951+271746842
1898+272763351+273872199+274601156+274977315+275771009+277216497+278126296
1888+277418912+275784188+274548388+274097993+274174560+274562057+275035691
1878+275342433+275449283+275634471+276590834+279284214+283864138+288353001
1868+289569944+286810424+282754378+280016028+279118532+279264008+279621485
1858+279856970+280031362+280280902+280625639+281172597+282276153+284307348
1848+287534386+291881120+295838534+296519560+293328238+289417914+287493535
1838+287492431+287940705+288203687+289384879+292761283+297408083+300375749
1828+300468562+299438436+298333373+296481846+294043367+292418545+292206386
1818+292687450+293139002+293821885+295447654+297913927+299961701+300458397
1808+299720170+299078996+299787922+302415987+306296255+309489820+310400530
1798+309710847+309827178+312601753+317516914+321021339+319663669+315136444
1788+311850171+311604610+313252741+315305912+317430831+319352003+320340664
1778+320790604+322688047+327709726+335083975+340841392+341269706+337506540
1768+332818995+329216044+328192472+330438209+334176875+336430954+336947910
1758+337474504+338240737+339092001+341704819+347557363+354868662+359421194
1748+359531672+357544185+356209052+356702769+358820258+361188741+362305616
1738+363191930+367078613+374683352+380546692+378945458+372986677+367414149
1728+363425645+361477099+361814983+363637278+366736628+372814615+383047699
1718+394159352+398646690+394116240+386308491+380301445+377811654+379209982
1708+384089917+390400568+395351200+399232274+405254847+413907447+420271654
1698+420997018+417868787+411809552+404588683+400320198+400711744+404363625
1688+410304496+419776359+431993461+438794358+434387776+425991077+421110931
1678+421677378+426384376+431833036+435594344+439223618+444096614+446808203
1668+443953960+439522421+439223128+443303358+447285517+447879548+447473737
1658+450562852+459935979+476169870+493862551+499515308+494627171+493623578
1648+499272340+504171624+501452043+495214963+492341371+494951946+502982160
1638+515751933+529681552+536802458+534530118+531097581+533080301+540770528
1628+551206448+562011061+573412474+585485343+596010115+604200298+613071436
1618+624942382+636895976+643690599+646401593+649658739+654830678+660352769
1608+664597349+667594843+670389817+673463300+676392446+678921038+681644930
1598+685335507+690057121+695120615+699800028+704058699+708308537+712660511
1588+716981852+721287980+725410376+728782907+731329796+734411691+740219931
1578+749581071+759303649+763948784+764865557+768691568+777855305+788710145
1568+796366303+801608482+808445797+818815402+833587033+854713968+880141774
1558+895005447+893183607+888075249+885880755+884821889+882704365+879192404
1548+876045736+876141003+880610466+887710727+894487054+896069852+886557575
1538+870905483+859684298+854772992+851887379+847167377+842037849+840226734
1528+842367882+846178681+850104725+854754626+859360224+860708746+858370266
1518+855056619+851516828+847534423+844739169+845429027+851022059+861653839
1508+873474803+875160158+861462255+845593973+837088058+836040057+839811740
1498+844218463+844400023+839979911+836363781+837909144+843615178+847762740
1488+845535509+838789115+832464024+829141895+828368687+828549196+829326049
1478+831780545+836340157+841659166+845165449+844233955+839183360+834173072
1468+832574012+834067922+835401512+834121689+832679793+835749000+844849016
1458+855046735+856053026+846523715+836063611+829550440+826597320+825734243
1448+825127875+823417845+820933206+818600264+816727881+816032135+817939006
1438+822295187+825573083+824648037+822064556+821587173+822791708+822611830
1428+820279589+818272054+817993124+818440224+819283953+821649562+824452247
1418+823515144+817822710+811379500+807371859+805957022+805658534+805337334
1408+805245152+805809320+806125123+805372174+804929700+806651156+810155967
1398+813463305+815270424+815023390+812411869+808791042+806736048+807095453
1388+807894668+806698123+804160769+803297061+805621381+810194452+815463480
1378+820782630+826180643+831178172+834511587+835644690+835614898+835523697
1368+835842444+837488962+841424610+846555050+849841778+849806167+848228417
1358+847163872+846662163+845844162+844798684+844573311+845420475+846117553
1348+845461203+843685840+842111665+842095892+844207527+847664249+850642956
1338+851725447+851021498+849734595+849197836+850190318+852469422+855168850
1328+857923516+861001765+864314851+867346064+870270303+874061404+879117957
1318+884621612+889508943+893290440+895870416+897626642+899619947+902805661
1308+907045895+911246873+914402023+916371985+917708029+919038675+920766020
1298+922894128+924707486+925112316+923911566+922272688+921461556+921440105
1288+921059320+919596114+917664987+916130700+914620596+912256319+909467514
1278+907723626+907609222+908270550+908686245+908679866+908759921+909528221
1268+911185956+913406457+915721734+917850683+919421424+919731758+918533742
1258+917063105+917322126+920129788+924511205+928882036+932031438+933249363
1248+932741976+931765407+931523771+932328103+933802385+934917052+934240232
1238+931409086+927785525+924799107+922591014+920647270+918652492+916592731
1228+914914457+914320637+914760026+915196541+914875481+914130805+913506560
1218+912851893+911896774+911150906+911571789+913453354+916045948+918344821
1208+919948579+921094791+922225090+923784754+926152817+929363486+932779690
1198+935236920+936056043+936082822+937072710+939762533+943121675+945609889
1188+946682005+947138850+948384674+951203693+955017857+958475280+960732022
1178+961804909+961993550+961533691+960611800+959558822+959277439+961029388
1168+965239970+970742994+975551181+978323723+979082630+978885788+979073517
1158+980426385+982504442+984022537+984352289+984353131+985044741+986056290
1148+986478295+986446049+986774119+987989730+990403638+993932563+997463732
1138+999654791+1000687791+1001886998+1003712694+1005522126+1007012180
1130+1008444402+1009478524+1009561312+1009370289+1010288183+1012812710
1121+1016192812+1019354411+1021549466+1022175532+1021384379+1021328509
1113+1024799742+1031389111+1036558176+1036584324+1033134472+1030423969
1104+1030083070+1030685163+1030474301+1029067035+1026923504+1024193233
1095+1021080143+1018921471+1019302116+1022308513+1026362490+1029745957
1087+1032328667+1035408529+1039981320+1045793626+1051652760+1056008449
1078+1057178355+1054268837+1048790069+1044437253+1044689334+1049981145
1070+1056564906+1059821281+1058860625+1056504971+1056432487+1060624352
1061+1067717112+1073410388+1073741823+1068897533+1062700376+1058531784
1053+1057547434+1059318661+1062367048+1064319275+1062849900+1058238484
1044+1054552464+1055691175+1060593788+1064741069+1066558563+1068194216
1035+1070148335+1070381349+1068630731+1067336046+1068225481+1070602726
1027+1072388464+1072129583+1070628803+1069788790+1069706983+1068737845
1018+1066503604+1064765674+1065433030+1068693681+1072186996+1072257096
1010+1067896079+1062573073+1060272938+1061442283+1063557844+1064149492
1001+1062741805+1059906453+1055923908+1051792119+1049211372+1048794906
993+1049402536+1049764254+1049926046+1050201751+1049850898+1048524458
984+1047998214+1049886930+1052116754+1050102419+1043321395+1037248525
975+1036316049+1038643664+1039390794+1037368817+1035548309+1036169960
967+1037925275+1037254554+1031878342+1023378175+1016018542+1012847900
958+1012840329+1012452534+1010300661+1008502866+1008872295+1009849074
950+1008175777+1002935631+996594977+991760151+988723191+986471565+984515063
940+982917194+981662256+980756628+980178160+979587073+978612186+977597833
930+977262473+977206813+975742626+972377385+969247962+968427436+969320025
920+969987171+969964388+970472196+972199260+973827272+973264716+970239112
910+966769632+964933772+965211229+967057814+969603721+971570599+972091515
900+971661309+971037976+969687702+966630272+962424597+959099874+957935857
890+958215628+958420040+958050822+957898774+958735282+960082192+960346400
880+958398450+954908360+951833966+950874922+952157409+954233363+955603265
870+955749495+954412750+951618056+949038151+948941412+951211194+953234362
860+953185362+951910025+951002785+950952453+951759028+953419848+955255357
850+956063755+955397170+953954433+952201853+949742379+946890554+945458052
840+946716915+949302009+950263576+948505808+946326596+946835245+950437706
830+954353305+955439090+953575050+952005992+954081315+959830040+965295700
820+966171885+962894410+960052749+960671105+963332468+965188867+966227966
810+968402831+971449325+972706857+971230402+969084628+967707715+966009252
800+962947266+959506667+957440177+957706348+960295437+964079458+966856065
790+967049052+965212140+963060548+962123025+963452550+966485725+968423090
780+967638666+966472055+967387356+968550322+966763393+963006220+960434797
770+959328542+958376158+958147911+959626399+961558436+961832249+960164840
760+958209249+957827692+959750196+963395067+967430188+970705490+973085259
750+975050735+976307074+975737088+973575541+972207181+972960971+973825519
740+972720106+971316485+972525647+976195685+979569478+980451762+978755542
730+975999544+973874029+973003031+972904750+972922696+972986417+973646132
720+975486899+977767476+977721841+973005765+965685038+961049577+961091848
710+962662939+962748671+962228386+962886980+964065999+963795902+961341476
700+958198383+957157041+959311648+962287130+963534147+964099226+965897022
690+967264470+964987889+959130438+952414257+947071974+943436917+940172270
680+935737717+930153868+925754716+924953188+927850859+932222041+934656909
670+932548078+927178386+924393226+926341106+928205918+925179682+916846705
660+907141863+900031507+896782913+896565321+897415499+897543853+896513517
650+895286199+895387915+897075652+899477994+902468548+905468285+906061475
640+902756731+897006393+891513885+889268849+891796390+896437318+898521053
630+896504264+892342963+887842866+883531059+879579989+875482900+870728199
620+865158370+858357017+850885013+845841147+847173967+855275192+865321283
610+872000872+875192684+877385706+877924498+875673573+873983031+875456823
600+874857674
##END=
