##TITLE=<SNM>
##JCAMP-DX=4.24
##DATA TYPE=INFRARED SPECTRUM
##DATE=3/5/2025
##SAMPLING PROCEDURE=Instrument type and / or accessory
##ORIGIN=Admin
##XUNITS=1/CM
##YUNITS=ABSORBANCE
##RESOLUTION=4
##FIRSTX=4497.3318
##LASTX=599.83466
##DELTAX=-1.4281778
##MAXY=1.7330672
##MINY=0.17951974
##XFACTOR=1
##YFACTOR=1.6140446e-09
##NPOINTS=2730
##FIRSTY=0.20479973
##XYDATA=(X++(Y..Y))
4497+126886042+127627091+128655649+129127728+128580785+127353735+126122319
4487+125392496+125403362+126131412+127277127+128376468+129006500+128990565
4477+128418880+127473975+126476447+126051766+126654166+127776579+128291587
4467+127792440+127012874+126770409+127039776+127191461+126746848+125780783
4457+124858931+124676577+125438814+126500210+126990790+126793739+126510837
4447+126564586+126774139+126747550+126315825+125569421+124684839+123873746
4437+123502012+123865871+124607714+124869640+124368775+123740867+123546381
4427+123595044+123459756+123084458+122639042+122163769+121596211+120951694
4417+120319234+119809137+119658855+120212159+121460766+122640408+122643464
4407+121076097+118840450+117422543+117516729+118523305+119408248+119688574
4397+119447189+118898197+118282881+117878465+117842930+118099142+118379754
4387+118436541+118284681+118078720+117709137+116802887+115206291+113272259
4377+111710192+111223535+112017725+113536272+114932973+115805405+116234979
4367+116349181+116248495+116141392+116124654+115951209+115366184+114601906
4357+114202513+114335604+114628163+114821143+115195148+116035840+117011064
4347+117441182+116984909+115836065+114507147+113594361+113412958+113692130
4337+113854792+113598765+113075189+112688268+112788880+113328686+113907655
4327+114397109+115097075+115949409+116245226+115588282+114514459+113724239
4317+113366372+113402913+113911920+114646304+114955425+114600041+114167237
4307+114230292+114575068+114755198+114886073+115278210+115759733+115984629
4297+115983642+115956397+115981075+116164685+116577114+116989193+117152076
4287+117166405+117177114+117048528+116676619+116194468+115668750+115088840
4277+114689677+114734656+115089726+115479721+115879456+116255880+116341694
4267+116073018+115896065+116290316+117167346+117958111+118245924+118108891
4257+117791313+117383343+116998010+116860330+117052646+117524641+118264167
4247+119104010+119685647+119953445+120222157+120579803+120732743+120498698
4237+120008109+119486647+119154325+119145933+119344509+119553239+119884074
4227+120598683+121474217+121781150+121170229+120220837+119815248+120257516
4217+121184576+122067219+122565554+122583917+122258639+121886000+121657735
4207+121481372+121285917+121326124+121784751+122376211+122798999+123126022
4197+123379103+123308283+122838513+122160215+121420744+120829718+120743443
4187+121205708+121755503+121926973+121665545+121266133+121137095+121513214
4177+122242547+122911290+123207486+123153903+123043689+123113475+123272647
4167+123314672+123354084+123738937+124486661+125127357+125221589+124812197
4157+124231013+123666215+123139676+122763889+122736229+123086489+123605246
4147+124054179+124384101+124671840+124846172+124650302+124054355+123533106
4137+123616906+124262725+124943701+125224267+125032773+124599331+124315515
4127+124417900+124712831+124835841+124757912+124769028+124988440+125168818
4117+125063553+124815032+124769692+125020439+125438177+126026867+126787027
4107+127371249+127494222+127571717+128228864+129272119+129822579+129427746
4097+128483764+127555246+126796564+126170806+125812726+125911889+126465460
4087+127280580+128036326+128406011+128323235+127976576+127508615+127071221
4077+127032981+127516960+127949664+127744478+127107181+126578084+126289052
4067+126172579+126286901+126546722+126664793+126525359+126227233+125877112
4057+125648412+125723811+125953019+125945310+125625590+125315804+125239057
4047+125276106+125169695+124802457+124380436+124333232+124840457+125513622
4037+125762199+125461432+125089846+125224479+125987907+126959659+127607685
4027+127817200+127948140+128326309+128766315+128779702+128260096+127721610
4017+127714160+128161764+128457009+128123838+127298748+126605688+126507725
4007+126785236+126896271+126858826+127288427+128397665+129511611+129937058
3997+129821120+129681244+129535541+129068651+128383780+127986870+128148728
3987+128716886+129405432+129892014+129819985+129128817+128312387+128041229
3977+128541272+129486204+130365967+130800425+130666558+130185543+129821693
3967+129883124+130292368+130813941+131291134+131586592+131556772+131268930
3957+131085662+131342262+131998587+132814297+133771250+134885455+135662177
3947+135535069+134943544+134923953+135591339+136012927+135683495+135154324
3937+135118411+135823584+137188461+138681906+139261419+138345919+136774277
3927+135915795+136143562+136746682+137134767+137589932+138543275+139620358
3917+139820881+138631267+136697447+135159199+134596091+134896755+136010932
3907+138346436+142035239+146081254+148926624+149940198+149311541+147087793
3897+143867127+141397729+141195535+142919812+144316125+143807016+143057547
3887+144357420+147012228+148548113+148817056+149205694+148831661+146456450
3878+144042852+144098901+146407788+149420989+152457861+154735543+154838002
3868+153431958+152846278+153427702+153157412+150881945+148083356+146952274
3858+148880804+154543865+162900609+168235816+164980954+157285002+151034535
3848+148065085+148062971+149989534+152810531+156122984+159897139+163272925
3838+164474679+163044078+160625226+158515893+156702673+155162264+154444480
3828+154723911+155751536+158104193+162517178+167080482+167966033+165609001
3818+163814190+162937003+160745355+157602220+155962215+157075746+160450018
3808+164069423+165969832+167161375+169756930+172613147+172734458+170924100
3798+169996136+169862565+169151003+168301753+168738435+170850002+174109297
3788+178021141+182203395+186212491+190189699+195095849+201306876+207591282
3778+212795299+217741702+223954299+232009770+241418845+250673190+258070849
3768+263587247+268447476+273374417+279136170+287072305+297541162+308975687
3758+319755540+330605871+343911742+361549355+382629539+401954612+415490143
3748+426640335+439666138+453081725+462100537+467437221+473782023+482731484
3738+493510025+505434983+517492773+527350865+533416486+536687117+539253887
3728+542235994+545195944+546918781+546830262+545106059+542006519+538294219
3718+535209746+533618301+533927136+535963166+538267298+538883639+537837078
3708+537007474+538252379+542745352+549723408+555611254+557193392+555808823
3698+555231811+557505145+562115921+567522732+572643236+576224401+576417723
3688+574017354+573118582+575753375+580158864+583744350+586065838+589284880
3678+595224574+601147576+601150936+595870089+591207243+588624188+585149451
3668+579582923+573970566+570017528+568262415+568825098+571523002+575345644
3658+578269404+579084274+579864541+584011234+592475229+602356032+607258102
3648+603994745+597474421+592238146+588228607+584450206+581828228+582106338
3638+585310239+589768832+594189350+598681142+603857075+609248561+612487840
3628+612124351+610621683+610716590+612855392+616357715+620174818+622665440
3618+623067151+623192266+625191957+629334551+634470084+639180863+642465305
3608+644383606+645992001+648033644+650290581+651939154+652085023+650922653
3598+650201878+651346152+653752799+656162030+659006209+663452208+668399848
3588+670590240+669016780+666865754+667125068+669502836+671448833+670750067
3578+667668290+664486582+662874716+663043776+664931131+668475257+672474418
3568+674295375+671953058+666189219+659636139+654789315+652690802+652594418
3558+653313051+654650684+656706138+658797192+660107719+660746365+661481099
3548+662635418+663530276+663160397+661341213+658715949+655905006+653198351
3538+650993778+650010366+650601004+652140637+653624508+654924696+656531022
3528+657994878+658057583+656489145+654350749+652381265+650334305+647894053
3518+645434894+643677381+642820043+642153036+640730245+638685205+637566559
3508+638613711+641068956+643006755+643308315+642240262+640713553+639632575
3498+639327987+639173403+638359863+637247347+636870231+637409243+638390218
3488+639387368+639798016+639287144+638286522+636846744+634496599+632043422
3478+631276707+632312559+633188804+632420834+630862736+630575356+632518990
3468+635551505+637280214+636219399+633105271+630138785+629050495+629612993
3458+630317298+630381998+630039225+629464244+628626183+627426073+625344695
3448+622117344+619264746+619258616+622540547+626578041+628263543+626782257
3438+623879362+621786462+621334233+621757658+622057962+622278944+622969733
3428+623710745+623198470+621114728+618932904+618216893+618819939+619327525
3418+618752175+617211507+615422014+613934155+612974118+612652099+612767871
3408+612913481+612980839+613135423+613185757+612663621+611917956+612103375
3398+613327859+613817386+612101861+609488746+608677458+610095116+611281194
3388+610314916+608145943+606577690+605838672+605264060+604818810+605010581
3378+606164494+608097714+609981893+610594614+609321016+606793538+604262590
3368+602725357+602499648+603012773+603123412+602301932+601417636+601717054
3358+603115435+604265470+604531837+604886205+606264682+607920087+608245651
3348+607025414+605858613+606159582+607475132+608137339+607181142+605098250
3338+603068240+601940768+601578424+601052078+600084988+599937642+601875035
3328+605117269+607177819+606425248+603525159+600206373+597680890+596326676
3318+595976813+596188230+596405555+596069393+594956951+593501072+592507985
3308+592528775+593518540+594831431+595609224+595623368+595514243+595775108
3298+596045020+595890547+595649513+596017877+597201739+598647943+599525259
3288+599550186+599146592+598793479+598833104+599717732+601519707+603375229
3278+604175622+603545655+601808748+599606650+597669479+596315228+595283919
3268+594429018+593888123+593446529+592872545+592636940+593206935+594046695
3258+594254271+593791997+593283119+593025910+592738605+591967791+590765723
3248+590150527+591097860+592934696+593983879+593833911+593395826+593042861
3238+592366732+591242104+589907610+588529872+587394682+586874098+586816083
3228+586389408+584920899+582951231+581863014+582131006+582611339+582126280
3218+581007966+580340848+580510241+581050213+581269311+580755817+579579969
3208+578123203+576783354+575914089+575614375+575368688+574482730+573064703
3198+572060315+572060795+572427461+572071283+570835795+569487268+568501196
3188+567535473+566096359+564239397+562528230+561591458+561649547+562321281
3178+562973517+563205356+562927319+562053511+560320777+557706554+554965592
3168+553128017+552277733+551553560+550609809+550001408+549981540+550090185
3158+549874262+549274244+548456161+547569687+546541812+545325010+544412759
3148+544417633+545033383+545221203+544432922+542849639+540710615+538392487
3138+536793989+536478580+536549373+535463705+533165998+531283112+530884023
3128+531209476+530968110+529988095+529048590+528605704+528140919+526763624
3118+524433014+522268472+521360099+521640351+522220391+522444290+522257652
3108+521874406+521378083+520603835+519489252+518329763+517318137+516183132
3098+514759676+513499778+512921511+512899132+512836316+512297599+511343915
3088+510450165+510105066+510309836+510559880+510411205+509887999+509332516
3078+508994988+508733421+508135360+507000688+505600054+504416340+503726548
3068+503477205+503380858+503062237+502317716+501281939+500243982+499411571
3058+498905980+498654458+498213640+497131221+495509828+493924920+492893204
3048+492518045+492450946+492180886+491498184+490605764+489780997+489111184
3038+488518551+487914877+487366965+487029251+486843500+486573145+486171877
3028+485778253+485483156+485317863+485140494+484516435+483128763+481255663
3018+479508195+478325958+477848543+477795550+477448494+476328704+474917730
3008+474161282+474249172+474454348+474178527+473523965+472761424+471849468
2998+470691493+469533851+468843025+468725518+468651402+468081480+467203499
2988+466516735+465943934+465014806+463665947+462263393+461096962+460263000
2978+459737504+459282689+458567527+457564025+456634824+456102459+455864527
2968+455607466+455217757+454661684+453737505+452396659+450988382+449823427
2958+448885548+448142652+447687579+447496731+447380517+447116624+446526059
2948+445605500+444541656+443468470+442450935+441727870+441538500+441646922
2938+441475647+440816284+440047945+439527471+439059436+438199808+436870743
2928+435407330+434188239+433427469+433084291+432761275+431985623+430840094
2918+429994130+429854539+430029877+429987261+429854059+429984824+430042396
2908+429312610+427812564+426243905+424946450+423686404+422374363+421269861
2898+420502186+419900654+419301706+418767643+418468188+418402750+418291299
2888+417853213+417164751+416545419+416117193+415712380+415198590+414662163
2878+414268244+414102065+414088660+413940760+413312122+412145063+410795391
2868+409726414+409125177+408877681+408873176+409113213+409370384+409077872
2858+407969640+406529308+405388062+404595165+403814602+402913097+402072968
2848+401505152+401231547+401193843+401461318+402038329+402479517+402117726
2838+400836077+399274360+398114982+397397309+396667634+395722738+394904877
2828+394457042+394018144+393194337+392219640+391593439+391444875+391557323
2818+391630959+391349377+390539493+389397951+388389833+387869027+387779106
2808+387664996+387061802+385974545+384866314+384062781+383397768+382708862
2798+382347072+382624406+383007505+382596193+381307638+379902167+378936443
2788+378268919+377491015+376411772+375156675+374023110+373220279+372683446
2778+372191518+371632085+371035907+370393642+369646647+368887614+368318099
2768+367906565+367337050+366422251+365343857+364385815+363625526+362949102
2758+362214478+361383397+360578572+359944099+359420486+358814966+358089131
2748+357364663+356645402+355746150+354542309+353216530+352203907+351767963
2738+351635906+351285452+350580446+349822557+349259135+348838147+348327275
2728+347518757+346474966+345538231+344909446+344374828+343607855+342564655
2718+341501254+340691776+340115725+339498719+338742382+338053956+337546112
2708+337073165+336528946+335955591+335410818+334985583+334750901+334531618
2698+334019859+333203808+332405482+331845421+331392490+330803772+330053933
2688+329312404+328703486+328236854+327869192+327478116+326913919+326212827
2678+325595009+325174206+324840924+324444235+323933917+323335819+322704189
2668+322098558+321557293+321079768+320638802+320211240+319758531+319184584
2658+318428394+317631361+317067422+316854602+316830340+316712426+316321166
2648+315682188+314952993+314253230+313609858+313039751+312554175+312085106
2638+311523679+310846073+310154324+309600522+309259393+309044135+308790527
2628+308455140+308160190+307996448+307880805+307692376+307425215+307094297
2618+306648032+306113340+305639600+305276442+304903887+304458969+304038462
2608+303755606+303640277+303633316+303586749+303369830+303010808+302643367
2598+302338262+302049682+301658551+301055006+300282900+299588769+299204728
2588+299095475+299027157+298878057+298743692+298688132+298552899+298168526
2578+297655383+297316377+297258454+297286871+297180258+296937562+296722452
2568+296657106+296705945+296743427+296754174+296932004+297449247+298136971
2558+298586172+298616269+298450865+298347889+298229736+297804372+296977279
2548+296019458+295304554+294968004+294870974+294813143+294691666+294506265
2538+294300923+294102690+293900505+293699483+293560206+293529537+293559283
2528+293536646+293389799+293164995+292990783+292938714+292939563+292857932
2518+292603475+292179274+291720213+291465442+291552889+291840250+292047808
2508+292056468+291951885+291820198+291652504+291445315+291239050+291011624
2498+290672932+290224026+289783577+289397579+288967987+288427295+287851520
2488+287366000+287025720+286774217+286485083+286103037+285727194+285474029
2478+285344206+285297731+285296956+285198411+284817990+284194762+283595888
2468+283218107+283060994+283061012+283141942+283152226+282934291+282493584
2458+282018108+281687872+281494643+281320690+281158406+281086875+281033957
2448+280804814+280389753+280008685+279810766+279729042+279638512+279489264
2438+279276462+279004334+278713132+278485097+278381420+278382343+278410557
2428+278395601+278312049+278194376+278105304+278059143+278037170+278078235
2418+278225082+278399275+278496989+278559287+278656391+278670609+278418958
2408+277969129+277620208+277533647+277584239+277661309+277898060+278420915
2398+279038401+279382798+279293062+278927541+278556296+278344916+278299494
2388+278283670+278028012+277224295+275679879+273308426+270022949+265857515
2378+261161674+256399417+251719178+246929298+241956380+237167774+233104504
2368+229947244+227455384+225449064+224085858+223667215+224496838+226915911
2358+231192093+237326199+245153653+254608852+265282165+275515417+282830189
2348+285567330+284108810+280865802+278286809+276486384+274094712+270635375
2338+266739798+262985585+259403810+255904867+252805197+250706979+249849383
2328+249787084+249779495+249441357+249074581+249339674+250556679+252446453
2318+254482187+256272733+257717847+258998905+260347100+261779529+263188767
2308+264601587+266123439+267674687+268985749+269865318+270361438+270671879
2298+271002391+271500357+272200526+272986592+273672765+274148333+274428327
2288+274611475+274831423+275183206+275614386+275935961+276015617+275894841
2278+275646089+275268899+274827287+274471330+274220289+273954494+273652029
2268+273394507+273199172+273072525+273104062+273306782+273497242+273474439
2258+273221920+272877984+272582628+272390008+272289709+272243401+272202890
2248+272164742+272194193+272333119+272537926+272751152+272950604+273124022
2238+273276058+273429810+273588881+273759344+273990352+274322766+274743237
2228+275240815+275840814+276549385+277332090+278176133+279102269+280073994
2218+280994277+281868860+282850205+284036541+285367047+286767311+288240971
2208+289805845+291477868+293299360+295296245+297431262+299621968+301785586
2198+303875920+305900797+307914244+309955278+311963020+313827035+315544776
2188+317190801+318766366+320255924+321696367+323032855+324127940+324983727
2178+325716911+326363791+326880868+327198861+327221868+326914731+326345032
2168+325607232+324793507+323967522+323112695+322169129+321062891+319739328
2158+318295709+316916051+315635325+314433332+313393160+312523746+311776493
2148+311244534+311014284+311365624+313385368+318269785+325734489+334227067
2138+342697266+351068681+359344782+367343844+374980156+382325357+389676948
2128+397423233+405599553+413869081+421877413+429320734+435868497+441183393
2118+444988383+447308506+448580775+449308899+449929265+451224726+454443398
2108+460714749+470461944+483420685+498823850+514980916+529053539+538475207
2098+542500773+541642032+536767622+529226845+520322770+510523949+499684992
2088+487332695+472940639+456697012+439438288+421895323+404827484+389121281
2078+375138432+362826757+352339916+343715650+336587811+330755690+326246875
2068+322793816+319969911+317516180+315221834+313006036+311006972+309271524
2058+307796368+306775694+306266742+306042825+306067161+306526277+307515211
2048+309209705+311969261+316130577+322166839+330764664+342377241+357195418
2038+375503104+397230576+421238693+445649851+468648152+488682035+504379005
2028+514707163+519447928+519453209+516020830+510295249+503426354+496319380
2018+488959997+480762923+471527745+461590108+451355970+440922860+430013961
2008+418441857+406591016+395131804+384443517+374539300+365296995+356620216
1998+348576101+341459377+335561635+330750336+326396990+321958672+317530509
1988+313568830+310336678+307824489+305881391+304293953+302925928+301734274
1978+300629292+299554739+298615069+297863162+297188511+296600753+296270222
1968+296143243+295872278+295267792+294540831+293984702+293650996+293452208
1958+293390371+293499200+293679911+293753141+293609322+293269337+292879425
1948+292669780+292879646+293564896+294264733+294133285+292925881+291465460
1938+290610744+290394896+290430975+290509301+290577933+290598115+290596600
1928+290725002+291241155+292241628+293349731+294112605+294680957+295347115
1918+295660289+295023545+293898067+293319375+293634599+294356446+294841966
1908+294868961+294703428+294685850+294814861+294864622+294811389+294912869
1898+295365247+296010909+296510647+296893229+297593952+298599965+299079245
1888+298490028+297447622+296758901+296456971+296235269+296090841+296208810
1878+296607770+297073220+297420091+297949687+299414355+302056920+304663831
1868+305272565+303484493+300936834+299198561+298566027+298553915+298666344
1858+298691271+298675078+298758555+298993348+299409535+300159964+301444125
1848+303463462+306255165+308928289+309602498+307734826+305237944+303900551
1838+303790300+304068651+304386570+305403828+307825671+310946962+312832987
1828+312764300+311958589+311199481+310111302+308748409+307942218+308057454
1818+308592718+308994724+309424870+310511425+312367833+314126528+314798077
1808+314440163+314019804+314497588+316272568+318902855+321175672+322080352
1798+321991760+322413228+324529245+327939541+330333078+329669247+327165958
1788+325579019+325978772+327636504+329601076+331542421+333165291+334043383
1778+334576080+336171328+339963024+345351630+349578606+350240443+348262576
1768+345874357+344330070+344464233+346571498+349384619+351056236+351684431
1758+352562670+353799672+355143029+357570578+362035854+367430369+371094660
1748+371910934+371216821+370715808+371336101+373141953+375186735+376288578
1738+377102562+379871331+385016651+388820053+387661709+383793054+380450226
1728+378383140+377638619+378161383+379487752+381717879+386095709+393375916
1718+401507885+405865181+404627441+400805463+397556989+396442922+398165316
1708+402485795+407729419+411926851+415565625+421019964+428408151+433976895
1698+435441489+434359071+431475453+427797497+426044526+427497414+431268689
1688+436710952+444716735+454795588+461415841+460491404+456653325+455019782
1678+456986644+461771428+467223256+471619513+475744934+480668570+484656986
1668+485457859+484959100+486585073+490690368+494634542+496478690+497752474
1658+501284191+508932689+521238419+534755337+540360494+538375610+538419666
1648+542743432+546571798+545467038+542131744+541059333+543512104+549214456
1638+557529259+566058064+569972918+568093909+565601293+566412617+570655546
1628+576742068+583480974+590811773+598397270+605100614+611154934+618707011
1618+628836899+638706180+643585133+643460831+641462764+638988981+636123679
1608+633256605+631300489+631080172+632853195+636396804+641478643+647927732
1598+655112515+661714341+666405622+668967517+670549249+672384681+674485632
1588+676111605+677145683+678168240+679503805+681194551+683821293+688480815
1578+695520985+702905553+707124884+708652479+711586837+717928315+726252055
1568+734227704+742008813+751158501+762358547+776520722+796206551+821656663
1558+842159947+849444290+852054488+856494800+862474082+867942490+871336169
1548+872603563+873662754+876482559+881288983+886582276+888121983+880581354
1538+867878825+858830913+855040768+852854660+849090512+845129535+844185119
1528+846843177+851220636+855638201+859928066+863307859+863915484+862374374
1518+861164440+860439529+859008540+857336333+857118084+859634852+865342559
1508+872452894+874518319+867439964+858237985+853371293+853568049+857270009
1498+861302332+861830413+858809051+856518878+857688264+860909041+862496608
1488+860307989+855880601+852180488+851024619+852217048+854199088+856058893
1478+858449070+862050804+866049892+868215394+866508473+861897919+857943220
1468+856767704+857684127+858425583+857819139+857649710+860235978+865523141
1458+870089528+868974427+863026092+857889008+855596324+854867867+854028477
1448+852264538+849739129+847068516+844763940+843232948+843048452+844584614
1438+847034984+848087897+846328242+843568409+841945317+841243744+840006114
1428+837906124+836003481+835105743+835544900+837752131+841365018+843925732
1418+842600433+838107164+833356429+829861123+827948066+827621763+828437224
1408+829562591+830101750+829318418+827387044+825822225+826095720+828053460
1398+830061203+830665505+829527065+826932304+823839743+821830449+821590856
1388+821676900+819950776+816935765+815630482+817802483+822677595+828526148
1378+834207710+839274777+843423575+846438216+848600099+850571429+852756503
1368+855295650+858459336+862245936+865533481+866537056+864954586+862777119
1358+862077910+863118784+864721639+865638432+865430080+864583082+864125018
1348+864674961+865749588+866595994+867530587+869624300+873195826+877220469
1338+880299440+881977040+882918353+884166028+886406421+889444180+892356750
1328+894635180+896833549+899639838+903127537+907348197+912481293+917917574
1318+922513504+926221372+930065433+934152633+937150066+938151057+937924388
1308+937794694+938299289+939352201+940934376+943062358+945411027+947148598
1298+947101699+944776074+941351597+938761046+937784723+937683465+937175916
1288+935338563+932448445+929980054+928954469+928631786+927609746+925740634
1278+924074187+923139594+922245993+920666107+918798989+917620519+917544298
1268+918421947+919865639+921040269+921245519+921206744+922431079+924942456
1258+927087942+927659599+926775008+924799172+921931877+918718337+915692691
1248+912695701+909465765+906443369+904015082+901499053+897927378+893467124
1238+889226079+886023618+883957159+882852694+882598550+882949964+883337568
1228+883286238+882962816+882841689+882956242+883033423+883213636+883949773
1218+885199147+886443572+887633120+889327781+891576594+893527170+894706010
1208+895938470+898327095+901901502+905764471+909089166+911656600+913754079
1198+915787228+917994386+920551849+923586875+926691180+928871527+929637872
1188+929747181+930253844+931460306+933336065+936170420+939905468+943334893
1178+945269220+946408694+948680255+952915539+958005650+961834718+962992878
1168+962291822+962087015+963451828+965100253+965709356+965679370+965843629
1158+966401696+967629356+970083345+973573038+976819075+978763816+979909494
1148+981830232+985098943+988029756+988457760+986778684+985524067+985998675
1138+987210677+988277622+989983361+992975919+996219075+998245208+998627642
1128+998133905+998238930+1000159816+1003824108+1008070840+1012234482+1016596063
1118+1020813326+1023346933+1023463776+1022666927+1022995593+1024325619
1110+1024552140+1022732513+1020545149+1019736631+1019887596+1020268627
1101+1022387377+1027939983+1034839086+1038732114+1038661064+1037594709
1093+1037923301+1039825058+1042570784+1044733258+1044784441+1043213861
1084+1042042186+1041840038+1041911015+1043023826+1046734426+1052119893
1075+1055565124+1054587177+1050895336+1048290235+1048371847+1050029800
1067+1051872323+1053701256+1055646663+1057028906+1057628850+1058213358
1058+1058488699+1057142794+1055136824+1055676501+1059480236+1063539666
1050+1065897418+1068143351+1071483482+1073741823+1072585658+1069286887
1041+1066447435+1064283115+1061989397+1060810927+1062836838+1067716012
1033+1072272280+1072948224+1068546982+1061468258+1056202662+1055510396
1024+1058012097+1060127228+1060112235+1059229194+1059249431+1060410914
1015+1061560949+1061430295+1059910899+1057908549+1055986850+1053913670
1007+1051508944+1049664206+1049456666+1050527452+1051890714+1053026125
998+1053179158+1051526522+1048784489+1046874386+1046459455+1046119267
990+1044354812+1041540324+1039104209+1037559996+1036246662+1034606509
981+1032819748+1031151160+1029407163+1027503338+1025991327+1025142852
973+1023933214+1021101075+1017058928+1013314500+1010105466+1006113173
964+1000642622+994851899+990308998+987282023+984997167+982698648+979737480
954+975713206+971598384+969404964+969620037+970109786+968448288+964570178
944+960375885+957463905+956158548+956006549+956208402+955947168+955037022
934+954348449+954962426+956840917+958845705+959727047+958704859+956132476
924+953703229+952915465+953513120+954145119+954050286+953432837+952870708
914+952800395+953000549+952802537+952131099+951573401+951221027+950444489
904+949035805+947610651+946470882+945102893+943433714+942603408+943650633
894+945862739+947195202+946298794+943631135+940761328+939254783+939797783
884+941409206+942031973+941002325+940060938+940697515+941791788+941346427
874+939303234+937045484+935266921+933850039+933091006+933546928+934953027
864+936516738+937933177+939110170+939080701+936506102+931700860+927019255
854+924821551+925688490+928609554+932428430+936468140+939688917+940612653
844+938952632+936083564+933248470+930893745+929877244+931081196+933601435
834+935109974+934462835+932963897+932663740+934141776+936062440+936524641
824+934985820+933158659+933703210+937319790+941408615+942882885+942084559
814+941958558+943714742+945570854+945847451+945050750+944419785+944537957
804+945622850+947329697+948127210+946752722+944303977+943022475+943394348
794+944408337+946286755+950179267+954805626+956452353+953697247+949597861
784+947495507+947130134+946335501+944552950+942972843+942354508+942275333
774+942069271+941759365+942121414+943705362+945919462+947903348+949869508
764+952033681+953326113+953269686+953459574+955251430+957496255+958140514
754+956994541+955280604+953378183+950510074+946403450+942240251+939814549
744+940011896+942174222+945187756+948212442+950654318+952473354+954316394
734+956340976+957050230+955025279+951856718+951119325+954507242+960089983
724+963871043+963370068+959825425+956176569+953771031+951975924+950526175
714+950378682+951764175+953001214+952367369+950463470+948804114+946792457
704+942595875+936952276+932751261+931081860+931281866+932889892+935077403
694+935993531+934000487+929523024+924954716+922291710+921680540+921674483
684+920702740+918291810+914835648+910997791+907805818+905699107+903613888
674+900619041+895131281+883890466+867805854+858037536+865342116+880233486
664+888016367+887977370+886705692+887445079+888414902+887324396+883804052
654+879534572+876694604+875119962+872991684+869328796+863916001+857446602
644+852581978+852486702+857430575+863907582+867397127+866000925+861487641
634+857402066+856856628+860940061+867265734+870396406+866713132+858931876
624+852840331+851284819+853102378+855332726+855004208+850629998+843295801
614+836778985+836267226+843906972+854664094+860705342+859677172+854083501
604+847202641+841308517+837716310+837552642
##END=
