##TITLE=<SNM>
##JCAMP-DX=4.24
##DATA TYPE=INFRARED SPECTRUM
##DATE=2/5/2025
##SAMPLING PROCEDURE=Instrument type and / or accessory
##ORIGIN=Admin
##XUNITS=1/CM
##YUNITS=ABSORBANCE
##RESOLUTION=4
##FIRSTX=4497.3318
##LASTX=599.83466
##DELTAX=-1.4281778
##MAXY=1.8452759
##MINY=0.38137746
##XFACTOR=1
##YFACTOR=1.7185471e-09
##NPOINTS=2730
##FIRSTY=0.40157723
##XYDATA=(X++(Y..Y))
4497+233672524+233940243+233040302+231713480+231039101+231043089+230852835
4487+230052868+229340059+229683492+231049471+232346656+232669591+231973274
4477+230513009+228635471+227162546+227013079+228369399+230605232+232715927
4467+233680622+233213284+232307481+232202547+232866678+233202602+232589161
4457+231612223+231234870+231663762+232268636+232455162+232281139+232177870
4447+232430849+233100390+234041501+234782870+234779905+234000124+232944663
4437+232094683+231675381+231723191+231897873+231635096+230976550+230708310
4427+231233604+231899781+231905642+231406066+231269986+231926712+232766634
4417+232908922+232406918+232033085+231993286+231756140+230953728+229669203
4407+228166728+226992356+226865589+227857146+229000372+229160140+228209024
4397+227086209+226753979+227419531+228637188+229671613+229900678+229359898
4387+228745382+228607985+228897554+229289543+229404119+228896982+227774253
4377+226353909+224865914+223562434+223005301+223617771+225041411+226366030
4367+227040531+227256122+227361628+227236682+226464565+225059446+223760267
4357+223448136+224325256+225695657+226573089+226472300+225571058+224413368
4347+223705000+223987511+225087453+226091461+226222459+225643424+225105610
4337+224948373+224836832+224495672+224182188+224118960+224000171+223592470
4327+223325167+223681467+224347678+224517470+223913966+223112022+222899795
4317+223528636+224458578+224739061+223922428+222633498+221918539+222192120
4307+223081154+223956192+224291717+223930700+223324491+223108692+223262859
4297+223176220+222629006+222123517+222189588+222854846+223834246+224856342
4287+225678766+225998007+225591521+224661648+223791083+223257292+222752045
4277+222208993+222244769+223080096+223817824+223662235+223051257+222785809
4267+222891003+222964497+222897940+222826527+222921958+223404401+224315718
4257+225256880+225738491+225790047+225881021+226220743+226511318+226525278
4247+226472300+226506532+226329752+225638239+224688024+224048692+223899069
4237+223880514+223682577+223520433+223822922+224633190+225591157+226314491
4227+226535562+226207806+225747456+225745028+226237200+226710972+226883625
4217+226940748+227024802+227008224+226770748+226377840+225992111+225685477
4207+225351374+225020896+225092742+225668899+225961607+225225371+224007107
4197+223579897+224377957+225669662+226486121+226370175+225469540+224335609
4187+223564082+223421187+223773950+224290052+224580073+224325395+223652611
4177+223254205+223669709+224607542+225411758+225935890+226475560+227145586
4167+227785369+228197717+228203041+227716090+226854317+225818834+224829497
4157+224206761+224174245+224564049+224994467+225303373+225613995+226013806
4147+226321549+226259293+225872142+225579832+225600608+225614550+225365144
4137+225252614+225787845+226728799+227364905+227512482+227626729+228029678
4127+228607794+229133174+229328614+228849848+227745622+226614379+225897877
4117+225526490+225495344+226039696+226960430+227492054+227185333+226394505
4107+225646910+225020410+224439450+224172459+224534048+225286066+225851887
4097+226009331+225919086+225680795+225310778+224908800+224509059+224119619
4087+223992644+224299504+224665723+224707534+224757547+225311506+226074969
4077+226361140+226182019+226167955+226586216+227056676+227098712+226567713
4067+225717923+225108714+225192161+225770659+226180077+226076565+225585382
4057+224807872+223849264+223179151+223292166+224102746+225105800+225986857
4047+226791489+227581935+228116975+228012284+227274278+226413824+225868795
4037+225661407+225693229+225949538+226378117+226876428+227360258+227733587
4027+227890112+227762877+227465435+227471400+228182214+229160591+229514446
4017+229111775+228470067+227647365+226465190+225518096+225661477+226709272
4007+227669111+228139866+228654928+229658537+230869882+231708416+231859912
3997+231361723+230497991+229670070+229179667+229147811+229529360+230029266
3987+230264782+230207780+230141865+230153466+230097262+230033254+230284725
3977+231012204+231938019+232579068+232733599+232588207+232286550+231731273
3967+231054431+230874945+231659357+233058164+234204165+234549782+234196413
3957+233643945+233533427+234360672+236077454+238065441+239485924+239574748
3947+238269430+236828518+236765689+237926864+238628331+237897939+236373232
3937+235168807+235262764+237291972+240597520+242989218+242954050+241689519
3927+241399342+242420345+243138581+242645456+242259849+243465210+245555183
3917+246198503+244181469+240794659+238160057+237244907+237803878+239749551
3907+243945416+250999433+259334317+265427472+266994006+264519727+259415129
3897+253340668+248641759+247217460+248750300+250300845+249443321+248117609
3887+249617448+253494887+256380803+257387187+258125158+257855600+255191205
3878+252742158+253876835+258197125+263073665+266956566+268793247+267362515
3868+264288720+262844981+263209276+262494733+259230215+255439433+253871927
3858+256122483+263112510+274038971+281777964+277998574+267336537+258089920
3848+253584647+254054482+258153182+263695880+269036532+273809334+277502674
3838+278486202+276363246+273136307+270246212+267424268+264695050+263180523
3828+263344800+264624661+267548104+273502804+280601337+283226384+280513121
3818+277225712+274471765+269806568+264026359+260718348+261899726+267142606
3808+273462919+277102674+278607090+281504886+285404747+286095115+283315780
3798+280604684+278834872+276833428+274856922+274205554+275326861+278019107
3788+282154727+287112581+291601587+295443372+300255036+306740822+312864273
3778+316866605+320329823+325867718+334640546+346551992+360238175+373245054
3768+384311653+393850459+401905103+408787872+416093810+424330437+431255485
3758+434786820+436458583+439949235+447827792+458742895+466322553+467150475
3748+466953405+471340131+479358184+485555857+488883706+493899412+504024155
3738+519644930+537628218+551499089+556405092+554235903+550982553+551377941
3728+556613676+564499830+571756344+576811866+578769280+576218680+570272842
3718+565121699+564084845+568077744+575969689+583076443+582878402+575212417
3708+565996581+560036800+559191398+562157294+564682714+563818826+561513783
3698+560885046+562567076+566116134+571907355+579911916+587191114+588862149
3688+584615959+579968519+578585598+580148178+583112860+586714429+591751811
3678+598867478+604488647+603441146+599749123+600264931+602139001+597236328
3668+585740317+575184151+569359322+567348045+566806468+566576068+567176086
3658+568365476+568218142+567026116+568878683+576933188+588702121+594416796
3648+586720602+572088436+560284716+554089297+551156524+548563368+545808068
3638+544463645+545660075+548841770+553003888+558170291+563964252+566697355
3628+562903190+556369091+552886242+554522871+560434686+567484211+571196662
3618+570226505+568087594+567867981+569775936+573247651+577604307+580266552
3608+578186776+572790596+569040930+569704454+573595939+577978850+581495203
3598+584512672+587195970+588770932+589143360+590090488+593585093+599032639
3588+602631710+601428898+597412241+594030286+592030525+590664008+590112060
3578+591179747+593727572+596715665+599744615+603979567+610675845+618561617
3568+623013547+620204766+612728603+606164398+602740962+601433546+600847470
3558+600603162+600738703+601138323+601730642+602588703+603823077+605557998
3548+607793466+610022414+610843920+608650834+603382601+597156418+592481683
3538+590308506+590476511+592655377+595722131+597586143+596928203+594471664
3528+591985159+590478453+589382188+587423838+584518915+582250845+582060920
3518+583483762+584574616+584229172+583674727+584633092+586406928+586641317
3508+585038885+583642264+583277397+582570138+580708901+578704769+577428220
3498+576549419+575770296+575640234+576464237+577342588+577143368+575743139
3488+573671028+571435282+569641400+568760101+568447814+567923925+567082754
3478+566481556+566354789+566174090+565299797+563855139+562442216+561164177
3468+559882599+559189248+559751705+560944701+561481840+560924134+559630626
3458+557938226+556158113+554847506+554314703+554214226+554110558+553995133
3448+553845822+553313851+552380007+551537172+550955223+550222992+549094124
3438+547747724+546284892+544705352+543340257+542819386+543458215+544782245
3428+545697811+545264514+543542148+541575474+540385703+540007275+539679519
3418+539136173+539078807+539844264+540487880+540175107+539562186+539463096
3408+539071142+537026119+533696084+531020799+530238936+530610011+530498540
3398+529373765+528235463+527992959+528330495+528637719+528996898+529447467
3388+529200869+527576691+525079781+522930293+522099527+522798011+524250611
3378+525209739+525192779+524808108+524722822+524870122+524612114+523457303
3368+521861635+521109010+521955002+523798620+525519217+526475154+526547538
3358+526074980+525685696+525490881+524898943+523775729+522962652+522998480
3348+523169780+522572605+521499716+520940311+521144318+521591661+522168720
3338+523416967+525397098+527039484+527132782+525683546+523940266+523092644
3328+523016550+522526234+520977422+519122671+518028140+517669655+517086735
3318+515704160+514058617+513215643+513766342+515408521+517359171+518900560
3308+519403154+518506802+516812287+515659419+515720773+516507353+517293967
3298+517607745+517122042+516145364+515650783+516018598+516625206+516960904
3288+517065127+516951609+516634501+516505480+516954800+517804364+518491750
3278+518716531+518660691+518676992+519026737+519713464+520404838+520727322
3268+520577976+520052353+519147088+517856978+516624478+516099132+516345417
3258+516616327+516008643+514368928+512497528+511395263+511459982+512486464
3248+513975586+515112223+515073551+513863213+512394034+511481797+511000846
3238+510226302+508930227+507718952+507139015+506978605+506674746+506017049
3228+505340866+505092882+505142860+504787635+503681034+502449296+502102291
3218+502999059+504314869+504503060+502860361+500579007+499440740+499759062
3208+500336502+500116160+499150685+498000973+496829861+495419991+493882140
3198+492802973+492445598+492334265+491960346+491419947+491110019+491202657
3188+491461290+491254162+490007857+488044686+486487724+485874595+485471230
3178+484400249+482771805+481230555+480051397+479049192+477879468+476378138
3168+474904728+474049788+473859065+473724356+473030172+471697195+470185737
3158+469011122+468158021+467206454+466024209+464945701+464349463+464281380
3148+464490901+464740203+464869155+464522948+463334599+461580117+459973974
3138+458742965+457673232+456823494+456339422+455980104+455473071+454864069
3128+454298456+453945278+453926687+453920757+453401307+452553130+452119591
3118+452146678+451778933+450575705+449247374+448671218+448759764+448667853
3108+447768796+446144549+444336308+442900078+442103094+441894891+442119707
3098+442592369+442980058+442948912+442494181+441787165+440831054+439700141
3088+438889595+438874785+439386709+439674891+439498250+439286579+439273919
3078+439079659+438306363+437080244+435827488+434829446+434112995+433548978
3068+432980660+432396769+431942315+431602559+430995708+429791855+428308595
3058+427308853+427176363+427631302+428197193+428560256+428527897+428028945
3048+427171889+426132920+425078414+424216572+423660184+423221338+422656662
3038+422115292+421962582+422152993+422197353+421788196+421063838+420237581
3028+419311714+418215448+417060187+416185270+415835178+415778055+415507595
3018+414880385+414277731+414146836+414545242+414939867+414493494+412960429
3008+411126384+409913444+409367081+408911517+408216120+407406788+406661100
2998+405936847+405155470+404513172+404312634+404476269+404599741+404475645
2988+404161103+403665897+403005599+402356157+401803966+401178386+400340753
2978+399419777+398664967+398209785+397980911+397778188+397420050+396779278
2968+395802600+394694577+393950173+393899397+394239881+394281258+393690916
2958+392785269+392048183+391624216+391363295+391078164+390589132+389744874
2948+388623602+387597015+387016974+386879802+386893572+386851882+386812031
2938+386822749+386661437+386091419+385256734+384508688+383909398+383219688
2928+382310088+381301189+380393219+379795177+379639103+379712007+379497977
2918+378762451+377858019+377214056+376838958+376558614+376383464+376350029
2908+376278305+375982735+375557172+375215994+374958818+374587050+373998685
2898+373317611+372717385+372207265+371659271+371021101+370386919+369851029
2888+369431537+369119180+368842617+368457425+367940299+367461047+367139188
2878+366920372+366731903+366525712+366198026+365698345+365153681+364731344
2868+364477741+364344107+364187443+363729382+362777329+361546493+360541514
2858+360083592+360097362+360289333+360343785+360061881+359520789+358981153
2848+358540920+358113728+357787082+357793220+358029101+358036488+357583769
2838+356888892+356188639+355458211+354612705+353701544+352885900+352351849
2828+352120027+351910193+351458792+350916001+350579713+350382608+350020239
2818+349420324+348781668+348302659+348043784+347918855+347750954+347400828
2808+346827827+346089700+345363365+344825221+344436978+344029104+343599276
2798+343314007+343228790+343161748+342841310+342162318+341349622+340805720
2788+340703336+340790911+340685058+340294491+339836153+339449089+338978230
2778+338253838+337415442+336746646+336269857+335751066+335105612+334521375
2768+334065638+333497701+332716948+332040349+331690778+331384734+330836358
2758+330302168+330173077+330325961+330286734+329833078+329131022+328438191
2748+327902683+327525850+327152729+326596550+325878712+325240577+324853062
2738+324630361+324369613+323963890+323451724+322948020+322543302+322215442
2728+321854009+321417487+321014156+320740714+320499736+320084266+319419598
2718+318639921+317940014+317394205+316917347+316420892+315987561+315770513
2708+315728443+315633376+315346477+314927955+314486473+314044332+313557693
2698+313036509+312622600+312468087+312510123+312462468+312088341+311445072
2688+310825041+310452128+310278365+310157391+310124233+310275001+310415433
2678+310168108+309492202+308769717+308289806+307955461+307561009+307055953
2668+306490063+305952092+305565756+305384329+305339171+305331888+305252810
2658+304965044+304432727+303782313+303167277+302695759+302438965+302338003
2648+302206449+301962765+301698029+301420876+300982064+300381734+299905430
2638+299766593+299797843+299707493+299485313+299316718+299242843+299146042
2628+298929099+298552891+298045372+297549645+297222202+297062520+296914493
2618+296620622+296197453+295868414+295803140+295843928+295698779+295342617
2608+294980802+294729072+294578166+294535193+294579206+294579067+294399582
2598+294023408+293518387+292958358+292421046+292020317+291854809+291874856
2588+291860185+291611368+291138983+290635609+290293269+290141947+290039701
2578+289843429+289556391+289255549+288981257+288792321+288774147+288871398
2568+288855860+288564383+288093837+287716709+287614307+287682616+287637389
2558+287342513+286965940+286773466+286832063+286950263+286886498+286586004
2548+286192991+285878831+285720988+285692340+285703785+285690346+285655784
2538+285616609+285573377+285542353+285517173+285425973+285219816+284948022
2528+284694158+284509332+284420352+284454030+284632579+284897627+285041805
2518+284859875+284410416+283966853+283695474+283559430+283512000+283566366
2508+283681341+283784246+283894452+284045427+284134025+284037415+283797946
2498+283519700+283217679+282915172+282704680+282602382+282528299+282468748
2488+282471089+282483870+282370213+282084858+281735997+281477070+281402640
2478+281531609+281787033+281973230+281902788+281608536+281335961+281285983
2468+281431236+281586010+281613496+281543037+281465035+281368009+281164817
2458+280818992+280369914+279930548+279694876+279799116+280127219+280357168
2448+280260714+279929195+279657071+279609226+279690245+279743103+279726056
2438+279669002+279593826+279495430+279351616+279191502+279123419+279218711
2428+279438879+279699939+279899628+279942617+279868586+279841273+279913328
2418+279968110+279952624+279985885+280165075+280398285+280526352+280547787
2408+280591487+280689641+280742550+280704919+280638015+280600314+280624246
2398+280735752+280901936+281051507+281177581+281310175+281425010+281487596
2388+281517840+281498019+281261133+280529561+279034699+276616416+273304954
2378+269359987+265197661+261189883+257445680+253802578+250120909+246567480
2368+243509206+241157514+239431628+238194740+237603149+238160282+240307152
2358+244023540+249027609+255325793+263194241+272181671+280421835+285689097
2348+286978964+285124438+282368167+280602170+279709547+278631386+277186485
2338+275833305+274703206+273572934+272350109+271201126+270286513+269612966
2328+269162449+268909627+268713042+268509608+268580466+269304824+270662167
2318+272181064+273344493+273964767+274259886+274641227+275373701+276382686
2308+277380711+278163926+278721788+279078747+279208167+279163668+279107048
2298+279132037+279219699+279381062+279661389+280011273+280302923+280448333
2288+280419736+280246199+280055633+279989995+280012296+279928397+279633799
2278+279197068+278717175+278271652+277948301+277754353+277579324+277353381
2268+277110633+276883112+276703661+276648307+276705777+276737182+276687586
2258+276653527+276672134+276648376+276524748+276353725+276201536+276108394
2248+276123481+276266185+276453422+276550067+276509834+276407259+276324210
2238+276268093+276213207+276177968+276239757+276449659+276726587+276902031
2228+276889580+276733419+276522598+276371587+276404814+276626942+276894314
2218+277086719+277179150+277132987+276909922+276603635+276382287+276309556
2208+276347170+276457341+276574172+276584958+276483475+276430965+276524297
2198+276616468+276505135+276218062+275982147+275958736+276117325+276347378
2188+276567859+276696915+276659353+276504771+276391166+276387472+276435526
2178+276526101+276725061+276993872+277157282+277098546+276893517+276724506
2168+276704355+276805317+276938588+277045429+277099812+277088558+277015185
2158+276906003+276827064+276851515+276942732+276960611+276877146+276861730
2148+277055713+277394983+277723519+277956400+278079716+278093381+278023165
2138+277942197+277916202+277947313+278025679+278188707+278439137+278657225
2128+278706440+278614304+278564708+278702053+278993669+279303095+279534258
2118+279656967+279689326+279734935+279917316+280210198+280470218+280649443
2108+280818888+281023466+281252496+281479775+281650174+281726355+281775206
2098+281902268+282109066+282308321+282466078+282636094+282838627+283003805
2088+283090652+283152821+283212702+283208887+283147532+283154417+283309520
2078+283555129+283798969+284013432+284212028+284369091+284432231+284470955
2068+284697332+285172855+285621361+285743359+285588533+285431314+285443991
2058+285619592+285856148+286044305+286162071+286276283+286434733+286634248
2048+286866937+287118095+287384236+287699316+288025251+288195961+288136601
2038+288019146+288046667+288215020+288382002+288439836+288368284+288228147
2028+288146971+288258547+288585384+288970904+289260370+289593623+290264257
2018+291163921+291701475+291511134+290928370+290553792+290653246+291081375
2008+291513284+291690411+291624513+291571482+291733279+292058642+292361912
1998+292571849+292904426+293743619+295119431+296362163+296674104+296031598
1988+295090887+294401177+294097943+294076023+294161205+294264699+294450774
1978+294772391+295147039+295454436+295640580+295803140+296264218+297258584
1968+298388562+298826263+298339797+297606665+297262330+297230144+297191091
1958+297176871+297373836+297692193+297856522+297795341+297760901+298070552
1948+298847420+300101043+301810056+303516849+304163932+303164814+301331254
1938+299922043+299365448+299362846+299595952+299935049+300279661+300513703
1928+300720068+301370793+302832758+304600455+305820400+306619188+307594860
1918+308175352+307230236+305225792+303909393+304192581+305447140+306366764
1908+306202227+305328281+304621715+304467375+304625565+304853468+305298453
1898+306229349+307460012+308342594+308770515+309617408+311266697+312467393
1888+311944718+310368958+309207245+308850113+308866518+308979689+309147556
1878+309316914+309474514+309807923+310943380+313843656+318700269+323540721
1868+325054536+322387887+318255596+315417890+314502046+314721486+315145211
1858+315284672+315177154+315165466+315505915+316291177+317615207+319619338
1848+322622310+326868327+331119165+332279004+329204099+324947123+322603963
1838+322454756+323087516+323710980+325233502+328842423+333623913+336642943
1828+336718796+335685931+334636315+332790720+330238039+328502216+328286764
1818+328768132+329068523+329500432+330979669+333485527+335612437+336074764
1808+335267617+334664963+335443704+337972627+341547801+344396572+345049413
1798+344127257+343945136+346394738+351092330+354569213+353282120+348781703
1788+345482953+345240032+346842845+348664162+350351844+351776420+352380150
1778+352619846+354405057+359271937+366383754+371882561+372198351+368365307
1768+363416505+359313245+357743866+359611728+363156590+365240805+365540814
1758+365877068+366419686+366817605+368758995+373984464+380883986+385052347
1748+384526203+381711942+379586107+379407350+380939548+382784380+383380514
1738+383657216+386896138+394041112+399749648+398008796+391732740+385863516
1728+381704763+379563320+379577055+381030903+383813013+389659554+399919492
1718+411594780+416972265+412890508+404883346+398400265+395443248+396452875
1708+401008473+407075113+411888546+415727764+421867863+430905427+437654979
1698+438238800+434448451+427529126+419475488+414560017+414598030+418138487
1688+424037711+433548492+446101230+453403110+449031367+440045203+434211045
1678+433718440+437551970+442471776+445862610+449082178+453613845+456101634
1668+452781692+447356899+445726132+448503975+451453535+451123941+449542771
1658+451161018+459002984+473791572+489993290+493967113+487398296+484697206
1648+488353436+490823848+485525752+476865818+471619123+471741311+477180568
1638+487308814+498339030+501955963+495815934+488529314+486365327+489054313
1628+493446450+497510484+501545835+504996289+505779990+504866505+506332493
1618+511625628+516472843+515725664+511656739+509404553+510360525+512826047
1608+514778016+515869182+517038664+518810973+520661008+521922157+522833041
1598+524289422+526691508+529419859+531557972+532849122+533655436+534345388
1588+535118059+536130426+537443461+538946144+540653353+543292499+548219068
1578+555733591+562470032+563281237+560035968+559319206+562973944+567110431
1568+567702923+566115753+565619471+568084369+575827246+591628755+611728202
1558+619022695+609399436+598287853+592177720+590181427+590533669+591864601
1548+594323082+599953962+610322493+624576093+640298039+652820186+654035554
1538+645256344+638419946+638860838+643570257+646901921+648094606+651338591
1528+658728463+668298518+677722418+687514029+697984668+706187374+710322786
1518+712280997+712781891+711528095+710870641+714258284+723102976+736766060
1508+751778180+758144968+749326358+736506769+729963721+730762613+736407922
1498+742773461+745447810+744072206+743246470+746741908+753803955+759711537
1488+760338956+756823054+753030520+751412551+752220946+754403765+757201448
1478+760973449+766349201+772975072+778397160+778521256+772980760+767403014
1468+766510547+770243357+774819661+776646284+777231320+781002281+789608838
1458+798977245+800460644+792519380+783155620+777352087+775667109+776788485
1448+778041241+777279321+775061472+773124140+772155509+772570111+775362175
1438+780216153+783518475+781980277+778127325+776014218+775988483+775994380
1428+775244460+775046073+776116603+777756700+780001880+783838601+787876622
1418+787842772+782871634+776978618+773162499+771623677+771292175+771255550
1408+771458516+771985422+772019551+771010062+770427663+772223141+776314020
1398+780826021+784087001+785280588+784208878+782031330+780807639+781405716
1388+782502952+782040556+780389430+780502150+784123419+789902951+795569070
1378+800804979+806730805+812981196+817130134+817970923+817293353+817033021
1368+817574009+819271195+822741315+826922162+829053164+828034381+825941252
1358+824986148+825240791+825515759+825168304+824653952+824571198+824880017
1348+825209438+825392218+825608572+826405036+828311916+831038082+833399866
1338+834393400+833980393+832695937+831276702+830665723+831547161+833737958
1328+836389901+838772565+840707816+842509676+844803898+848061063+851912628
1318+855243945+857409423+858954280+860671929+862581307+864354865+866088884
1308+867871876+869215710+869888979+870699386+872521431+875112749+877524963
1298+879165962+879977131+880098176+879866908+879837428+880308702+880801134
1288+880354762+878398909+875025000+870697721+866301214+863037668+861399929
1278+860583903+859639134+858732100+858567910+859147119+859847857+860293120
1268+860544573+860770360+861167066+861776935+862078609+861586593+861051918
1258+861732887+863418974+864812890+865694883+866832907+868189643+869201490
1248+870353942+872691517+876033517+878893838+880205138+880501263+881122716
1238+882556865+884024864+884734066+884976778+885664684+887389131+890304389
1228+894151515+897961044+900452960+901245400+901304917+902029171+904178694
1218+907488716+910871504+913220663+914376514+915095150+916139182+917720457
1208+919590642+921436064+923332470+925695919+928496168+931211513+933857977
1198+936983276+940326733+942720634+943773407+944463671+945763318+947719310
1188+949966085+952189276+953925237+954857451+955434093+956330098+957580079
1178+959117931+961441147+964632206+967713944+970013160+971920664+973339553
1168+973038780+970865117+969010400+969798749+973122575+976778249+979022943
1158+980021472+980795530+981780047+982660860+983362015+984875172+988527655
1148+993903476+998434762+1000127369+999577502+998285693+996910159+995995911
1138+996404756+998118798+999723727+999630151+997804569+996461082+998448496
1128+1004233231+1010677848+1013816952+1012918935+1010587117+1009551547
1120+1010803193+1014019640+1018339774+1022308777+1024136440+1023051967
1111+1020618181+1020128177+1023467957+1029136296+1034060888+1036296010
1103+1035461949+1032056548+1027793988+1025141073+1024925482+1025823291
1094+1026510988+1026784638+1026917683+1027579022+1029990819+1034624906
1085+1039333630+1040785121+1039196632+1038845083+1042357516+1047221760
1077+1049877034+1050887701+1052519474+1053985809+1053051445+1050516106
1068+1049448281+1051158785+1054308501+1056921669+1058025149+1058038190
1060+1057991992+1058186425+1058010929+1056895518+1054779290+1051925976
1051+1049180943+1048079683+1049552330+1052590436+1054959643+1054925237
1043+1052873867+1051712259+1054236499+1059634031+1063624884+1063656445
1034+1062225696+1062611789+1064437233+1065640808+1066273151+1068173511
1025+1071521476+1073741823+1072662275+1069365155+1066646481+1065389979
1017+1063794831+1060306676+1055851000+1052485762+1051413290+1052607223
1008+1054799060+1056166617+1056182640+1055923072+1056350299+1057142324
1000+1057628651+1057786529+1057696283+1056876165+1054848449+1052018025
991+1049549486+1048375669+1048486516+1048558657+1046600654+1042461705
983+1038823927+1038228972+1039885231+1040821469+1039780904+1037760957
974+1035349368+1032432028+1029636288+1027636734+1026193499+1025541455
965+1026806905+1029352164+1029868249+1025864702+1018388608+1010431181
957+1004680436+1002753439+1004411086+1006970565+1006762327+1002386769+995930221
947+990294832+986809590+985314261+985013003+984981372+984718265+984512941
937+984523346+983815601+981528316+978660990+977260692+978034265+979458841
927+979190532+976316894+972213598+968992296+967573685+967847335+969681936
917+972607738+975139192+975669012+973823313+970441705+966836599+964240633
907+963235030+963108298+962407628+960619711+958799886+958241002+958711166
897+958891658+958270482+957405900+956956476+957462781+959013187+960458296
887+960330246+958637291+956401615+954106353+951970841+950689576+950887200
877+952418462+954370846+955482719+954968853+953244199+951524261+950887270
867+951515382+952382600+951860549+948946331+944347968+940252442+938352220
857+938508364+939492256+940297530+940594764+940556890+940917456+942394127
847+944333123+944640971+942033352+938107912+936099133+937453302+940422112
837+942250122+942172571+941806178+942865956+945125981+946809293+946973483
827+946548406+946175354+945588307+945436742+946637611+948383978+949503065
817+950603423+952227011+953038805+952311568+951632403+952227011+953229978
807+953455488+952867609+952233184+952512453+953596302+953655055+951661190
797+949691811+950209283+952198848+952554767+950704073+949262156+950399486
787+953467836+956022389+956635796+955969324+954923349+953641806+952653059
777+952974017+954133752+954134446+952912766+952892789+955118962+957510297
767+958087147+957928645+958674472+959086785+957353113+955404266+956682548
757+960291886+961618240+958906225+955384913+954688544+957478874+961847912
747+965138927+965933310+964722036+962950975+962014529+962915529+966215146
737+971083968+974284044+972680919+967651029+963624869+962649231+963284904
727+964005343+965057561+966285414+965660423+962303093+958773388+958227891
717+960702049+963558693+964857508+964603072+963536288+962498082+961847634
707+960803116+958864674+957147927+956288132+954707204+951034188+946657173
697+943617055+941786547+940140554+938780974+938011146+936662804+932900444
687+927185838+922768521+922372995+925508699+929332379+931242173+930162833
677+926793849+922294195+917512150+912839426+906866847+898118575+890149980
667+890172385+897324747+904762550+908727946+909031493+907728238+906496362
657+904790574+900966478+895614451+892262739+892877880+895093440+895524274
647+894017152+891701774+887821283+882298059+877569080+875007936+873569071
637+873203926+876182100+882471128+887173471+885736409+879129683+872148379
627+869270093+872372987+879361158+883611302+878566567+865206752+851994619
617+846391068+848241138+852133421+854973555+857318137+859038838+859319771
607+857179404+850943233+840681249+830827694+828753779+837815518
##END=
