##TITLE=<SNM>
##JCAMP-DX=4.24
##DATA TYPE=INFRARED SPECTRUM
##DATE=3/5/2025
##SAMPLING PROCEDURE=Instrument type and / or accessory
##ORIGIN=Admin
##XUNITS=1/CM
##YUNITS=ABSORBANCE
##RESOLUTION=4
##FIRSTX=4497.3318
##LASTX=599.83466
##DELTAX=-1.4281778
##MAXY=1.7072674
##MINY=0.18419722
##XFACTOR=1
##YFACTOR=1.5900167e-09
##NPOINTS=2730
##FIRSTY=0.20385052
##XYDATA=(X++(Y..Y))
4497+128206531+127192916+127290710+127944695+128443448+128634424+128609936
4487+128263211+127582498+127063165+127289079+128140986+128742415+128361886
4477+127279426+126486431+126535116+127087072+127579874+127755246+127533437
4467+127006841+126562313+126529662+126834177+127282360+127846377+128460233
4457+128966642+129317293+129402229+128871603+127640265+126290028+125540385
4447+125601620+126174297+126645393+126371618+125354966+124493716+124618322
4437+125449424+125967632+125647598+124834171+124017615+123345036+122927236
4427+123006221+123511365+123900825+123698612+122912935+121930191+121257246
4417+121217838+121676517+122188493+122435410+122411277+122344129+122487001
4407+122803811+122918530+122529098+121789184+121196396+121091882+121304555
4397+121454174+121515924+121715129+121936151+121799811+121279354+120733584
4387+120420859+120307012+120252412+120183596+120008017+119449220+118273803
4377+116805107+115846091+115847019+116372181+116620578+116393193+116259749
4367+116687830+117393959+117806614+117777721+117556905+117431221+117554553
4357+117864831+118215820+118696682+119484795+120358378+120806158+120594048
4347+119913728+119140666+118641520+118567259+118670685+118520297+118030785
4337+117604607+117605731+117917875+118245987+118561026+118908004+119103367
4327+119008357+118748554+118392589+117882478+117455475+117644174+118635016
4317+119915565+120746807+120833833+120409051+119845043+119429933+119379954
4307+119742076+120313506+120798108+120990499+120890878+120784247+120994810
4297+121372415+121370053+120871460+120546965+121066495+122249559+123305122
4287+123709239+123578804+123293464+123022041+122636151+121976243+121192947
4277+120731381+120872885+121453846+122154596+122833463+123422868+123763455
4267+123753333+123558064+123541711+123920121+124485291+124826196+124843225
4257+124826046+125070010+125655161+126443621+127050982+127009849+126178223
4247+124957878+124074201+124068363+124826487+125686678+126144504+126200416
4237+125969778+125465637+124878734+124527511+124455911+124544492+124909108
4227+125699957+126673893+127380706+127613537+127455802+127119480+126872076
4217+126906629+127288845+128062816+129136682+130063806+130307226+129741119
4207+128749921+128024495+128223766+129370750+130571152+130823195+130138779
4197+129423625+129260501+129348136+129218638+128945049+128883009+129137263
4187+129542673+129853945+129850590+129517482+129098895+128850630+128898903
4177+129300021+129963707+130641534+131260450+132050625+133098100+133993960
4167+134217990+133777923+133160413+132650517+132111963+131545219+131332275
4157+131684398+132276689+132636703+132635382+132531234+132639908+132947450
4147+133164499+133177094+133135446+133144162+133256098+133612738+134219687
4137+134817114+135165994+135166069+134762608+134196407+134112596+134847094
4127+135825631+136202073+135885282+135470106+135411973+135702552+136134269
4117+136481134+136555386+136372610+136162300+136049352+135900464+135642142
4107+135519307+135810720+136436188+137070989+137521168+137800361+137987251
4097+138090940+137966530+137484056+136892177+136686637+136967863+137386469
4087+137803088+138379176+138955310+139056703+138631705+138233464+138391387
4077+139120552+139996919+140469046+140211353+139424767+138734119+138622465
4067+139015748+139479891+139703284+139737904+139875724+140337842+141029699
4057+141601101+141766343+141533437+141165279+140955878+140973066+141059276
4047+141113932+141124475+140906077+140283365+139606803+139571631+140406293
4037+141567138+142312085+142468845+142571147+143145670+143955328+144286018
4027+143966275+143613224+143759872+144187737+144333570+144047368+143670382
4017+143509048+143531325+143603252+143746424+144056608+144517799+144937858
4007+145063738+144900080+144860044+145326137+146103350+146597380+146514309
3997+146120697+145809604+145654577+145510928+145404718+145530093+145856612
3987+146094654+146138288+146177434+146275321+146223533+145995332+146013729
3977+146679288+147795299+148725000+149049373+148831799+148292908+147580003
3967+146943636+146773033+147214553+147927458+148399042+148436913+148275177
3957+148294763+148722835+149522850+150492118+151424537+152102982+152236576
3947+151720298+150946852+150517712+150638326+150981255+151136901+151008452
3937+150767421+150761489+151444658+152905013+154369125+154827383+154322145
3927+153803515+153812212+153981296+153788370+153425536+153644459+154767844
3917+155965707+155930807+154465804+152695855+151746942+151904359+152958309
3907+154795875+157287079+159793560+161420075+161903636+161425154+159912205
3897+157703539+156125429+156328786+157865445+158756712+157910391+157138510
3887+158505082+161216859+162942058+163545145+164367475+164605910+162762196
3878+160277177+159668298+161324896+164098282+166949622+168710077+168317216
3868+166794445+166185603+166689220+166860628+165866572+164335667+163430717
3858+164433302+168493104+174963214+178946206+176095840+170058646+165364249
3848+163287236+163773065+166239941+169675887+173316119+176847807+179357811
3838+179306491+176839147+174118955+172465768+171523799+170781973+170461986
3828+170796593+171784689+174109995+178526522+183375122+185107199+183859264
3818+182786391+181893362+179046127+174925596+172313253+172812183+176231561
3808+180506556+183116350+184569282+187036570+189675698+189525657+186961184
3798+184694395+183316211+182083551+181115136+180915125+181355445+182155638
3788+183493561+185579739+188167210+191066327+194503473+198210768+201030320
3778+202551234+204069543+207040729+211918793+218139710+224205431+228856569
3768+232792402+237532665+243283853+249609414+256774866+264866806+272728145
3758+279319243+285718260+294287481+306543848+321613544+335610067+345594977
3748+353929531+363841567+374632031+382613872+387365212+392435415+400465313
3738+412206255+426736291+441251707+452889672+461264412+467691787+473074030
3728+477358772+479954808+480916532+481853852+484257544+487891589+492062746
3718+497022550+503247609+510739647+519342082+528476191+537005077+544757535
3708+552388912+559911351+566854282+572437417+575968674+578297055+581228335
3698+585166099+589290660+593484834+598585513+604615378+609619154+611555048
3688+611690338+612653112+614328322+615660078+617393880+621193168+627305017
3678+633385301+635042668+631048974+627310077+628140260+630685727+629960207
3668+626418191+624182291+624382021+625264872+625834147+627551043+632136841
3658+638845554+644910170+649145504+653300916+658915540+664906831+668100707
3648+667242034+664701703+662747516+662126585+663272106+666489149+671142686
3638+675874121+680023610+683936033+687640029+690532586+692553499+694056870
3628+694135668+691830529+688536938+686733598+688404235+693654037+699670819
3618+703193379+704722691+706799010+709253496+709475118+706961403+704598985
3608+705430142+709957648+716029461+720309330+720924713+719717488+720085908
3598+722931607+725809993+725342233+720670477+714935671+712922555+717008991
3588+724165147+727659967+724707581+719324026+716719218+718698821+723084103
3578+726630654+728459711+729296941+728958135+727517667+727314789+730475976
3568+734877901+735512103+731540976+727073374+724871549+724175044+723525997
3558+723450274+725174592+728224069+730885632+731783441+730676455+728687331
3548+727425150+727604712+728893133+730234936+730007616+727464811+724292677
3538+723276935+725441798+729262528+732627119+734761767+735923858+735953698
3528+734555815+732281865+730152090+728888785+728752183+729562947+730295739
3518+729664761+727811714+726103515+725486257+725973136+726940221+727503497
3508+727273103+726849577+726895836+726800320+725593545+724176993+724396591
3498+726695282+730216342+733901220+736713780+737308696+734714534+730267474
3488+727676161+729639195+734555665+737345058+734693766+729092113+725561156
3478+725677140+727174963+728155768+728830380+729560548+730403027+731942985
3468+734080107+735171123+734001835+731218590+728260656+726332409+726176539
3458+727682084+730051175+732625544+735021701+736788379+737829238+738253063
3448+737854279+737014200+736714980+736996881+737013075+736709207+736390044
3438+735106121+732533927+731392453+734755919+741307638+745797958+745208965
3428+741656341+737928353+734085805+729456860+725137405+723141758+724123762
3418+726845379+729457310+731081238+732495315+734863881+737787027+739047034
3408+737542089+735747071+736589324+739319488+740947540+740434346+739361848
3398+739661218+741942515+744740980+745347141+742643293+738436824+735307200
3388+734354661+735033172+735739798+734675698+731476499+728093615+727194306
3378+729924395+735235825+740493050+743060521+742178382+739008273+735325044
3368+732866584+733009184+735767538+739303594+741586690+742643368+743969501
3358+745845866+746873679+746192619+744246979+741604684+738991104+737431128
3348+736914859+736450848+736200586+737504827+740414553+743197798+744264372
3338+743477075+741942890+741039683+741376314+742409300+743126798+743156637
3328+742947536+742834251+742683854+742504142+742402403+741806213+739983679
3318+737720076+736610467+736691963+737161223+738457067+741083392+743853667
3308+745113599+744408247+742012165+738655972+736529720+738001527+741999645
3298+744048299+741759204+737899563+735930156+735891920+736505878+738264384
3288+742162712+747286709+751447894+753042808+751412132+746872554+741355921
3278+737582799+736682441+737365301+738010299+738654547+740063526+741991622
3268+742983598+741724566+738828861+736886070+737871898+740767303+742765050
3258+742619451+741475579+740787246+741011268+741941165+743082713+743608578
3248+742814008+741227791+740295569+740470483+740846850+740916351+741207773
3238+741953536+742730188+743148765+742682054+740970332+739225321+739385315
3228+740936744+740861320+737727199+733842816+732092932+732629368+733685221
3218+734184695+734282386+734011806+733278115+732890876+733711387+734964871
3208+734946577+733320850+731424767+730201198+729167611+728032211+727840654
3198+729289219+730962930+731198422+730789291+731614225+733774665+735750819
3188+736546439+736306524+735354734+733754047+731643390+729214845+726478233
3178+723839237+722640109+723928456+726903109+729509491+730449735+729933242
3168+728382413+725938873+723450724+722115369+721632089+720353114+717810009
3158+715463560+714697030+715473457+717028934+718591459+719153686+717765400
3148+714548207+711033670+708993713+708717435+708973245+708773365+708289261
3138+707881854+707450756+707037501+707058044+707585183+708000612+707899548
3128+707831547+708186547+707952479+705962829+703112633+701474384+701478958
3118+701712276+701021469+699465766+697528823+695745126+694836671+695134616
3108+695917790+695815226+694059269+691495247+690185533+691385186+693907898
3098+695231332+694368611+692596909+691421698+691226916+691839826+692947186
3088+693763424+693321154+691302865+688324313+685658626+684538821+685165600
3078+686454621+686974488+686181342+684738250+683651433+683122569+682441734
3068+681193273+680059372+679812109+680160512+680473826+680841497+681337597
3058+681113876+679577292+677769753+677222821+677970233+678596787+678038609
3048+676814365+676129481+676073475+675363325+673117041+670153559+667889731
3038+666682431+666040582+665764379+665884937+665953687+665475431+664740390
3028+664216549+663580323+662362751+661000106+660276311+660195189+660059037
3018+659300229+658026653+657066391+657169330+657743927+657057094+654308786
3008+650874020+648779483+648543091+649137182+649414809+648853182+647436630
2998+645595204+644038751+643200022+643014462+643257826+643668682+643786390
2988+643143267+641580817+639202354+636397216+634051442+633139838+633817524
2978+635211359+636346834+637024146+637424280+637250116+635959595+633805004
2968+631799010+630366339+628862818+626865934+625094795+624424343+624785716
2958+625588458+626334596+626297296+624627109+621470758+618256414+616437142
2948+616325769+617134472+617725788+617282732+615803015+614288211+613918366
2938+614607636+614949666+614117421+612902999+612180066+611480674+609960022
2928+607896673+606372647+605829801+605502091+604389445+602570885+600990292
2918+600008662+599139381+598210908+597601185+597251695+596551742+595283975
2908+593860676+592600520+591370990+589934383+588275630+586552361+584924759
2898+583610997+582840755+582431849+581797872+580753415+579788730+579267663
2888+579058712+578977778+578707498+577591740+575500239+573434079+572461971
2878+572571995+572959309+572850035+571941429+570552768+569326575+568588984
2868+568129546+567556448+566649155+565354360+563721510+562005027+560720017
2858+560320482+560638820+560955884+560876187+560696587+560568832+559883799
2848+558094703+555713242+553841263+552985514+552802279+552726705+552314800
2838+551248901+549609078+547932968+546655830+545698904+544788050+543925666
2828+543269534+542656363+541562835+539732579+537707542+536335412+535769137
2818+535367953+534581817+533520303+532556555+531778029+531121035+530721501
2808+530661260+530496618+529634946+528296405+527440244+527446241+527479305
2798+526570587+524812344+523012002+521666301+520666790+519619484+518286303
2788+516949974+516136135+515791444+515266966+514225583+512878832+511424981
2778+510009629+508964609+508361034+507662655+506360176+504554849+502662440
2768+501053319+500087846+499974936+500427889+500740679+500308344+499053848
2758+497436967+496072072+495202828+494451330+493135281+490958647+488398449
2748+486249030+484822320+483850137+483097627+482656707+482500725+482112961
2738+480946784+479181006+477604048+476680373+476112936+475395251+474355479
2728+473066608+471672174+470384127+469283215+468183352+466987673+465939616
2718+465212297+464537947+463562503+462347293+461192475+460113905+458869455
2708+457512283+456510111+456104728+455907510+455408898+454575417+453649568
2698+452672774+451528564+450269720+449135669+448282657+447606657+446842526
2688+445851975+444803844+443988731+443473137+443046087+442446523+441495633
2678+440142322+438596629+437277618+436428692+435913098+435430868+434764465
2668+433891810+432994226+432215587+431454680+430602118+429760464+428980851
2658+428088065+426979168+425832671+424956867+424586123+424692285+424886242
2648+424665220+423768048+422262953+420519966+419154097+418659309+418903423
2638+419157509+418759998+417691625+416418685+415295281+414370406+413711800
2628+413453741+413407145+413095105+412339483+411398715+410461882+409480327
2618+408539783+407898497+407564077+407252149+406823712+406401836+406044812
2608+405645240+405146853+404606930+404067008+403501182+402853485+402128415
2598+401503960+401215649+401206502+401069188+400477121+399534216+398631009
2588+398080515+397885171+397743246+397349035+396749996+396244186+395894997
2578+395441369+394761733+394100728+393736956+393676190+393708691+393601404
2568+393259674+392785991+392331126+391895642+391398492+390908952+390636948
2558+390654154+390743148+390624689+390287946+389974143+389865094+389905205
2548+389941305+389942917+389974593+389943667+389585593+388887326+388301295
2538+388227408+388457990+388428825+387920166+387305908+387104304+387344519
2528+387499864+387165520+386585224+386241057+386191275+386164210+386066819
2518+386017711+386009576+385886470+385637857+385450086+385419834+385392919
2508+385135234+384590401+383990912+383694429+383788596+383944466+383820872
2498+383457100+383095127+382845428+382716248+382754522+382959650+383139549
2488+383015393+382544034+382025629+381741404+381602928+381347867+380942822
2478+380596519+380486346+380587897+380692636+380586285+380255877+379868488
2468+379574179+379416847+379373775+379374300+379308735+379090262+378750782
2458+378450062+378306338+378262403+378208797+378104359+377882400+377457824
2448+376927573+376532762+376386976+376412392+376468847+376389300+376022267
2438+375404259+374824076+374587160+374681027+374779842+374669406+374482234
2428+374356278+374140204+373680804+373133009+372752555+372590837+372514627
2418+372375963+372143170+371947526+371934706+372053576+372118429+372086940
2408+372124389+372344924+372611155+372708471+372654752+372684254+372931068
2398+373254841+373370076+373118352+372647667+372249070+371989474+371681820
2388+371218633+370643098+369888676+368743304+367028095+364591416+361307159
2378+357326548+353143433+349182689+345470858+341826991+338185298+334657902
2368+331464214+328808086+326679698+324934387+323759476+323826240+325781514
2358+329730674+335188715+341535494+348684490+356757760+364797930+370812051
2348+373291691+372307737+369549308+366989409+364984727+362499577+358968132
2338+354895079+350928187+347167549+343555658+340411864+338179937+336895152
2328+336227437+335869700+335695687+335763275+336303685+337548172+339441443
2318+341541379+343266634+344331784+344996051+345848650+347259579+349017410
2308+350578398+351671026+352491162+353291018+354049489+354644554+355090160
2298+355470051+355811406+356121347+356432675+356760047+357069876+357310278
2288+357444594+357462100+357382441+357264545+357198643+357254123+357409394
2278+357530101+357451191+357137727+356758885+356536438+356526954+356601440
2268+356593081+356398787+356022119+355629745+355466752+355580225+355716977
2258+355625696+355354892+355131883+355093009+355258401+355596194+355968176
2248+356165394+356105490+355899463+355724549+355731147+356004163+356484219
2238+356963863+357252436+357346978+357419927+357629853+357946505+358194105
2228+358271403+358277775+358399495+358690168+358992086+359110357+359046630
2218+358987213+359081118+359321670+359614967+359886259+360148030+360484136
2208+360932478+361416171+361820578+362093295+362285677+362572301+363147049
2198+363960250+364642585+364869718+364768016+364791783+365209985+365871365
2188+366476327+366918859+367304373+367758038+368309207+368910495+369500163
2178+370042709+370547582+371071834+371689617+372419598+373189202+373928479
2168+374707267+375695794+376958837+378392445+379936114+381707591+383816973
2158+386205295+388797208+391643656+394775753+398052325+401262732+404277946
2148+407015795+409373827+411357517+413229795+415321071+417650052+419913655
2138+421900868+423785480+425971260+428696026+431805144+434963370+438046585
2128+441140596+444231420+447170423+449831986+452036323+453473829+453907852
2118+453309900+451783212+449579700+447106358+444649660+442161211+439485628
2108+436641879+433689006+430513161+427017329+423370651+419801494+416321069
2098+412907559+409723654+406879605+404211032+401529301+398898402+396494073
2088+394369246+392478824+390776961+389210125+387758298+386514036+385552013
2078+384738849+383899632+383117957+382579796+382177413+381594830+380795462
2068+380144016+379949909+380053373+380008164+379599483+378993958+378447888
2058+378085353+377888323+377719707+377444779+377114445+376912991+376926636
2048+377086255+377285835+377475443+377672399+377889972+378086103+378254756
2038+378492235+378886896+379436603+380104243+380861139+381672728+382470710
2028+383142586+383609821+383863045+383799242+383229443+382256810+381324438
2018+380656048+380000329+379093261+378006556+376938482+375985830+375153773
2008+374384019+373598070+372805562+372099760+371517178+370979280+370389687
1998+369768718+369311829+369243940+369493528+369599503+369156446+368286602
1988+367442924+366906451+366657538+366540729+366401166+366161213+365833353
1978+365464521+365121741+364868331+364655443+364382127+364149634+364195517
1968+364475844+364614470+364386700+363955752+363543284+363185660+362874857
1958+362670254+362588533+362556294+362514422+362450544+362328899+362118411
1948+361944210+362120285+362845280+363771017+364096215+363405858+362188699
1938+361217266+360791903+360725889+360734173+360712056+360718016+360759289
1928+360794752+361006815+361656124+362544748+363185848+363563977+363936933
1918+363992751+363212276+361966889+361229336+361405562+362038977+362405185
1908+362198933+361678803+361224838+360937427+360723527+360547302+360475064
1898+360584863+360827328+361018773+361193312+361719514+362611213+363094530
1888+362529829+361373248+360501305+360175957+360102446+360013377+359919623
1878+359962133+360181955+360560797+361341497+362993128+365475842+367584999
1868+367696785+365698476+363154659+361441062+360828678+360906350+361139481
1858+361194661+361109716+361118376+361279494+361511425+361907960+362789200
1848+364508982+367036155+369289712+369495552+367476513+365205637+364233042
1838+364449341+364932021+365242636+365960209+367774083+370138975+371523850
1828+371488425+371046156+370626116+369724671+368431976+367607791+367651576
1818+368169681+368729172+369446894+370686170+372317071+373552561+373760126
1808+373244270+372888857+373384845+374963077+377331156+379605293+380827326
1798+381062030+381581598+383587367+386787952+389107748+388823186+387092870
1788+386239558+387052497+388879829+391008030+393253039+395376367+396956886
1778+398211719+400205080+403865929+408781686+412764321+413856087+412835434
1768+411573928+411032319+411739620+413888176+416562110+418423142+419565665
1758+420873205+422288969+423681191+426047358+430221177+435150579+438526453
1748+439494850+439288598+439339355+440352998+442386769+444816439+446790045
1738+448684590+452093340+457343480+461624173+462191686+460766325+459738512
1728+459560374+460331028+462228835+464959037+468463003+473666322+481296723
1718+489763531+495013408+495210776+493067693+491649117+492285793+495267306
1708+500249677+505983659+510954297+515475055+521452064+529137196+535628074
1698+538950455+540185457+539940968+539088331+539894822+543381920+548612341
1688+554918071+563273768+573602620+581332024+582924838+582266682+583646984
1678+588112787+594869446+601961312+607900984+613619709+620235493+626067015
1668+628968456+630745556+634488463+640387986+646100001+649976811+653202551
1658+658083708+666363793+678858820+692983098+700685587+701152523+702357798
1648+706857040+711514850+712966414+712570404+713265259+716114931+721296357
1638+728511667+735335765+737039915+733107925+728963308+727850325+729022463
1628+730480174+731259750+731461879+730543377+727883688+724983934+724007403
1618+724444799+722687268+716602334+709240526+703962459+701123208+699287329
1608+696945379+693696172+690261631+687588747+685981088+685016402+684281661
1598+683807753+683580808+683206240+682348692+681033579+679445264+677824259
1588+676406883+675202057+674054286+672962146+672212259+672416113+674320068
1578+677963635+681576013+682662756+682056519+682838494+685955222+689703828
1568+692283669+694293937+697297230+702219547+710044618+722035072+736778632
1558+746747199+749032994+750309870+754621002+761916834+770642787+778970481
1548+786170947+793454258+802317113+812439825+822021677+828586741+829391283
1538+826199357+824320518+825408310+827203628+827074599+825864825+826496102
1528+830064471+835392471+841035959+846890798+852959837+858062466+861615016
1518+864347129+866176185+866650168+866881912+868710368+873009505+879567147
1508+886617290+889525141+885770613+880667309+879022688+881378584+886219030
1498+890694430+891911251+890087968+888542762+889562553+892449937+894471600
1488+893931340+892301414+891740312+892523261+893461856+893709494+894077689
1478+896258446+900873522+906630220+910878825+911307899+908659606+906289016
1468+906178205+907758423+909387750+910261417+911200837+913354604+916797467
1458+919892527+920023731+917214845+914099091+912136582+911766438+912977861
1448+914581697+914859174+913521645+911685841+910402518+910353635+911984836
1438+914928674+917525310+918213343+917564522+916902655+916408054+915834656
1428+915692506+916607334+918149616+919443135+920541199+922047044+923451225
1418+923181170+920937959+918053425+915660492+914241017+913739818+913625483
1408+913438649+913038515+912198510+910780010+909439931+909162904+910021727
1398+911027348+911150679+909870205+907205418+904295692+902800793+902817513
1388+902205278+899144630+895271419+893745031+895408920+899109318+903869167
1378+909067987+913376271+915233367+914779477+914242966+915618956+918860291
1368+922579281+925693835+928120281+930041630+931051299+930592311+929137223
1358+928085493+928421750+929963432+931941986+933889575+935615543+936818494
1348+937319993+937411536+937701459+938657672+940273053+942089139+943610129
1338+944774994+945726934+946396448+946749424+946870056+946578259+945805056
1328+945429213+946690869+949639581+952970809+955493971+957081387+958096305
1318+958660856+958702691+958226684+957309757+956064595+954795666+953993524
1308+953906255+954182757+954191904+953729992+953164616+952840355+952666791
1298+952454616+952292972+952176988+951675415+950355804+948147831+945163732
1288+941602635+937879821+934498136+931802085+929966956+928909228+928067200
1278+926702305+924585500+922165127+920004313+918203822+916505819+914725421
1268+912803772+910592051+907889402+904760304+901781077+899838061+899320893
1258+899539142+899416710+898520325+896848789+894340621+891516515+889867846
1248+890408181+892228990+893467179+893455408+892992071+892782070+892811385
1238+893030308+893568618+894391229+895263846+895811829+895644937+894994091
1228+894899025+896061641+898022500+900085249+902199355+904230915+905432892
1218+905567919+905659387+906870211+909345990+912515499+915817262+918758476
1208+920868909+922202614+923564960+925673742+928314913+930735735+932737156
1198+934883425+937476913+939896986+941394134+942107733+942750406+943602931
1188+944516260+945777091+948126164+951778728+956021335+959742575+961967642
1178+962473939+962455720+963633406+966212423+968580914+969388080+968967553
1168+968472877+968711668+970079637+972745398+976388216+979994147+982525781
1158+984142437+986123014+989018045+991534160+992040756+990711774+989122409
1148+988137330+987574803+987836761+990160868+994577863+999065034+1001741817
1138+1002816263+1003717746+1005518312+1008244503+1010684369+1011402466
1130+1010583529+1009788359+1009813176+1010444453+1011948874+1014838282
1121+1018406576+1021544446+1024781882+1029064449+1032839745+1033026130
1113+1028972607+1023191991+1018673707+1017532308+1020801458+1027297921
1104+1033637764+1036767538+1036406240+1034892673+1035003409+1037350907
1095+1039641801+1039907807+1039811916+1042325331+1047364983+1051968512
1087+1053538984+1051326213+1046510958+1042356520+1042284471+1046441008
1078+1051177466+1052651822+1050529619+1047879526+1048131963+1052369396
1070+1058598578+1063233597+1064010548+1061742897+1059188996+1058503137
1061+1060011081+1062709381+1065097591+1065847702+1064775879+1063068205
1053+1062118364+1062741020+1064951767+1067788618+1070124271+1071798582
1044+1072998310+1073264241+1072473794+1071320850+1069857740+1067792442
1035+1066237115+1066382713+1067250233+1067197227+1066228718+1065187484
1027+1064437298+1064499301+1066382713+1069901600+1072955125+1073741823
1018+1072538347+1070601478+1068492321+1066625028+1065910904+1066397858
1010+1067077944+1067636047+1068244983+1067942764+1065758933+1062712755
1001+1060395996+1059080284+1058355289+1057817353+1057013186+1055876212
993+1054481103+1052020844+1047642010+1042444689+1038807270+1037642255
984+1037841385+1038253515+1038723824+1038982408+1037862677+1034768591
975+1030981449+1028259832+1026787801+1025201809+1022209087+1017685704
967+1012461918+1007456005+1003078821+999022524+994660634+990051182+985926209
957+982275894+978072348+973189617+969219464+967406752+967037582+966681608
947+966112333+966131001+966808238+966897982+965509695+963503401+962331264
937+962236422+962419958+962165872+961196313+959803679+958826473+958713937
927+958894024+958707040+958230133+957735082+957221588+956618125+955817257
917+954985500+955044729+956534155+958205991+958376781+956929640+954582292
907+951689660+949016326+948078706+949429355+951561455+952574198+952288399
897+951612137+950602243+948643107+946101802+944160735+943078191+941964008
887+940317288+938660221+937596870+937213455+937356055+937652801+937361978
877+936139683+934821122+934557290+935421211+936558336+937291953+937469340
867+937212706+936700036+935788207+934129791+932045225+930480825+929770150
857+929292868+928511418+927657544+927529789+928871442+931482698+934211362
847+936214882+937617863+938602716+938751539+938086298+937385295+936669222
837+935376602+934334619+935100024+937259114+938810918+939194858+939464688
827+939538087+937897590+934412216+931449409+931353443+933845266+936580303
817+938087498+939217725+941153693+943408525+944841045+945535301+946473071
807+948038220+949532894+949592798+947309027+943916846+942292468+943739758
797+946159606+946150010+942737436+938437325+936579029+938075802+940994674
787+943169734+944480123+946005686+948192291+950760362+953206601+954266953
777+952218824+947326496+942722891+941126778+941923073+942590338+941825982
767+940190432+938784602+938503976+939700855+941929745+944474799+946770791
757+947958898+947148133+944754451+942639370+942580291+944620998+946688395
747+946564314+944504564+942462058+941117256+939874269+939384691+941379664
737+945920665+951192960+956064070+960473343+963271658+962491333+958001388
727+951879943+946479969+943522934+944087561+947469845+950680215+951230521
717+950109891+950443224+953674286+957422592+957510161+952952665+947208262
707+943811958+942877187+942627075+942113506+940720346+937400664+932104604
697+926217976+921123219+917912099+917298215+917954309+916570971+911614466
687+905650090+902462363+902972558+904591313+903595814+898271713+891434344
677+888254639+890482479+894413871+894446709+888223000+878478155+872435282
667+875266210+880700823+881086037+877487454+875115738+875827238+876919603
657+876619259+876368772+877527265+879346574+879727590+877028840+872664251
647+870485443+871751972+873088152+871087931+866618529+862776807+860877350
637+859691568+857921516+856720139+857442659+858243602+856639317+853008870
627+848904290+844787864+841785770+842216944+845375957+845887277+840028614
617+831271621+825913632+826512746+831998341+840511669+849309372+855666459
607+859475569+860830717+856963353+847549891+838142203+832146713
##END=
