##TITLE=<SNM>
##JCAMP-DX=4.24
##DATA TYPE=INFRARED SPECTRUM
##DATE=2/5/2025
##SAMPLING PROCEDURE=Instrument type and / or accessory
##ORIGIN=Admin
##XUNITS=1/CM
##YUNITS=ABSORBANCE
##RESOLUTION=4
##FIRSTX=4497.3318
##LASTX=599.83466
##DELTAX=-1.4281778
##MAXY=1.8555764
##MINY=0.38847679
##XFACTOR=1
##YFACTOR=1.7281402e-09
##NPOINTS=2730
##FIRSTY=0.40869716
##XYDATA=(X++(Y..Y))
4497+236495373+235461723+234493037+233922613+233764094+233895780+234141611
4487+234135593+233716618+233549183+234527286+236563268+238615840+239767085
4477+239828444+239125646+238143008+237351034+237015905+236808841+236011245
4467+234661006+233841250+234179586+234863242+234819473+234083650+233478063
4457+233560910+234130281+234485587+234138007+233175305+232104026+231723128
4447+232737757+234853239+236576098+236620315+235347594+234310650+234512662
4437+235434062+235819529+235120456+233854822+232944011+233229541+235034470
4427+237514985+239059544+238865069+237534886+235958681+234481396+233374971
4417+233156542+233874137+234727469+235022106+235091690+235534567+235933555
4407+235289442+233588916+232013557+231525980+231973065+232605433+232949357
4397+233052535+233145470+233334600+233577707+233663209+233260307+232367620
4387+231595289+231511597+231776848+231438667+230117452+228413908+227097504
4377+226446648+226424298+226860984+227337593+227445428+227216738+226922671
4367+226740681+226919843+227692019+228786200+229648258+230094740+230127057
4357+229622132+228911073+228847938+229659209+230541290+230793158+230588094
4347+230395429+230263726+229863049+228925007+227629004+226598976+226271884
4337+226340434+226112348+225393408+224794720+225022996+225954329+226749028
4327+226967940+227017675+227291858+227569353+227586857+227579027+227847572
4317+228230366+228316334+227927193+227241002+226640313+226499885+226912841
4307+227464536+227507908+226916945+226348057+226510042+227345802+228127342
4297+228187908+227393675+226149167+225215005+225304577+226442630+227740926
4287+228187649+227658459+226804057+226166222+225878070+225967970+226380150
4277+226805334+226940571+226861502+226824683+226833685+226770274+226840514
4267+227393106+228257406+228772334+228598777+228047669+227501303+226977304
4257+226412089+226029657+226167947+226757133+227214841+227139186+226882299
4247+227053614+227763035+228757831+229852098+230833391+231355545+231172796
4237+230348936+229268672+228405613+227853125+227251418+226421953+225754387
4227+225767752+226575488+227727872+228375295+227981619+227104264+226908995
4217+227682206+228518190+228708854+228694006+229249133+230370509+231407418
4207+231970616+232324059+232827967+233252374+232990331+231992673+231016916
4197+230666905+230682046+230500004+230098878+229967573+230438335+231270905
4187+231897013+231955250+231420663+230294889+228633544+227029506+226514422
4177+227559144+229429208+230825889+231086362+230588180+230081478+229965382
4167+230286576+230984287+231788626+232241367+232222570+232114821+232163470
4157+232120598+231739632+231178797+230774412+230718140+230917910+230991461
4147+230595699+229857634+229236182+229031997+229292625+229974885+230838496
4137+231335368+231057701+230401103+230313807+231105988+232008935+232337855
4127+232468057+233004731+233671263+233731794+233007680+231958527+231147583
4117+230873624+231068479+231488540+231971116+232357584+232374105+231865023
4107+231046922+230431006+230547395+231558556+232973810+233938375+233908196
4097+232957565+231591133+230420762+229814227+229664866+229557841+229281588
4087+229150283+229626219+230635967+231549468+231856142+231545916+230951142
4077+230581006+230796245+231284649+231327021+230792278+230229132+229991112
4067+230050902+230452890+231119129+231531016+231338110+230956402+231043525
4057+231694812+232409095+232581204+232002485+231109695+230659851+231032902
4047+231985292+233009146+233631616+233521625+232777973+232028457+231805440
4037+231932090+231904118+231657165+231549830+231787609+232181354+232415597
4027+232452502+232604674+233097321+233699114+234100602+234415605+234851653
4017+235225238+235248036+234919375+234382960+233809656+233455075+233447591
4007+233642687+233964571+234604907+235592839+236487837+236802978+236539124
3997+236125392+235973840+236184043+236566630+236828949+236770867+236460313
3987+236190527+236099834+235961837+235580768+235190454+235205820+235827289
3977+237044446+238653934+240135307+240919383+240908035+240429426+239754893
3967+239072496+238847082+239663096+241486909+243378013+244230017+243667165
3957+242097151+240335508+239350042+239906048+242032654+244642353+246061125
3947+245761746+245210069+245903072+247204145+247304305+245901554+244388554
3937+243986824+245154263+247837599+251040348+252731165+251716864+249437051
3927+248432459+249474749+251046849+251642882+251811006+252969857+255033949
3917+255964644+253871252+249484544+245533004+244011554+245025078+247993325
3907+252969115+259979767+267503071+272816111+274342425+272187157+266922938
3897+260264712+255438076+254948567+258268428+261576304+261662444+260612981
3887+262105683+265429114+266958636+266484959+266474784+266145571+263372490
3878+260344333+260723058+264654472+269846674+274665723+277630865+276989029
3868+274169851+272635121+272794623+271866894+268451287+264760496+263733831
3858+266990695+275182409+286879596+294201147+288913405+276769289+266682280
3848+261958702+262717064+267535371+274141086+280668662+286382448+290389518
3838+290898289+287638718+282781920+278163038+274370897+272013583+271703564
3828+272787759+274095868+276562017+282463571+290380551+294014139+291426996
3818+287463161+284011959+279175510+273512632+270142483+271008784+275893365
3808+282058168+285915083+288052019+291852852+296698061+298305290+296288278
3798+293758770+291194874+287844351+284964090+284216954+285503093+287910194
3788+291307900+295867803+300784856+305090184+309270310+314151873+318918271
3778+322400307+325551302+330634497+339367559+352076321+366667169+379351098
3768+388741414+396355186+402898024+408742703+415804073+424869349+432905528
3758+436723537+438248299+442008675+450318778+461840304+472250232+478957383
3748+484680241+492351923+500547414+505189405+507375490+512885644+525031968
3738+542371132+558594559+566670471+566259516+563198231+562252256+564274649
3728+568292738+573280394+578458576+582905246+584663095+581778644+575346865
3718+569602244+568746945+574624045+585197355+593245537+591785410+583446680
3708+575164513+570239631+569226089+570842217+571889318+570518901+568928332
3698+569763005+572902859+577115476+582516950+589987483+598259923+602729563
3688+600494915+594813067+590044668+587862722+588418849+591286262+595815847
3678+601359527+605869039+606028109+602848142+600501055+598749069+593761930
3668+585641249+578491445+574704546+573953478+574844958+576541207+579095825
3658+581853143+582839989+582200740+583893333+591161544+601658560+606520911
3648+600326463+589505718+581359996+576914775+573874564+570777650+568490783
3638+568179781+569415719+571148218+573657928+578494480+585775901+591063521
3628+588864813+581825620+576704175+576808992+582189841+590337149+596557603
3618+598430996+599060519+601610894+605265108+608591867+612413429+616264859
3608+616510571+612329134+608099755+607281223+609108812+611255992+613159737
3598+615493028+617933240+619539469+620542250+622487176+626799816+632739999
3588+636136360+633330341+627074292+623049098+623076207+624793979+625544288
3578+625092529+624665122+624912971+625754336+627614553+632047496+640005933
3568+648237053+649959101+643773276+636232037+632949840+633673246+634985339
3558+634728177+633453679+632712131+632853887+632801461+632412545+633623925
3548+637624700+642334465+644128598+641630580+636708215+632299899+630186382
3538+629950190+629880243+629283693+628969828+629973988+632078676+633233146
3528+631433425+627465140+624122998+623044614+623943509+625361211+625006165
3518+621628497+617067732+614561367+615543040+618965614+622320655+623168573
3508+621559240+620328408+621498951+623803270+624563029+622969424+620717945
3498+619772212+620121947+620171889+619326593+618971270+620129673+621536752
3488+621105068+618762602+616628460+616062675+615605537+612961554+608582692
3478+605190884+603913489+603204223+601702915+600136627+599857942+600689925
3468+601093190+600505401+600334879+601871643+603993921+604085045+601634279
3458+599522487+600518024+603734275+605862071+605259382+603018871+600648330
3448+598976431+598626489+599483857+600223405+599800550+598530743+596889334
3438+594543419+591465268+588754581+587405238+587301352+587673920+587601214
3428+586589466+585333179+585050977+585752930+586051688+585074430+583460752
3418+582267859+582017526+582510949+582852061+582176114+580821115+580193178
3408+580917344+581716768+581170367+579745007+578522866+577054841+574592693
3398+572219462+571440319+572026487+572618243+572363943+571409725+570524903
3388+570512003+571498918+572774002+573400594+572863023+571368199+569482872
3378+567562468+565833901+564692158+564236502+563905702+563163499+562172790
3368+561699302+562512488+564414198+565949617+565842455+564408162+562928100
3358+562291851+562571570+563101415+562981423+562164167+561552303+561488220
3348+561216571+560217067+559011447+558261173+558082856+558594801+560002950
3338+561815294+562879192+562504072+561061571+559516356+558749560+558976302
3328+559490039+559382498+558520680+557366555+556242505+555358579+555105694
3318+555787712+557174614+558450457+558688719+557646515+555992069+554527838
3308+553712307+554029000+555756118+558075820+559308205+558541375+556657289
3298+555290598+555254969+556257543+557527212+558342743+558298492+557543699
3288+556868579+557207243+558623876+559952835+560110974+559506940+559250088
3278+559609412+560315711+561413685+562556429+562531182+560810341+558553446
3268+557130811+556656048+556458003+556176352+555960510+555898047+555724525
3258+555312258+555008327+555008948+555018157+554957522+555086966+555197508
3248+554673837+553405823+551894237+550782880+550689997+551806113+553484255
3238+554907373+555854624+556339044+556085124+554791898+552647098+550513784
3228+549502795+549784100+550057369+549049933+547166399+545746006+545271622
3218+545274588+545340638+545206918+544488340+543172867+541949933+541509763
3208+541777997+542069029+541835320+541133609+540312697+539500477+538767137
3198+538342075+538106366+537613357+537008771+536847975+536955931+536685283
3188+536108462+535700127+535173766+533899268+532119689+530635074+529653333
3178+528747126+527587379+526263249+525147891+524608561+524642776+524739867
3168+524292420+523202240+521924259+520857877+519926596+518909571+517833463
3158+516875934+516136352+515585709+515147195+514789148+514478559+513949611
3148+512785725+511086958+509800595+509773624+510501514+510509723+509114439
3138+507099324+505479850+504476725+503881210+503339465+502188134+500256934
3128+498735311+498971262+500559107+501670809+501338802+500385584+499873433
3118+499731814+499257810+498344601+497646028+497518206+497329025+496255745
3108+494561703+493495012+493873512+495129212+495906597+495482879+494256323
3098+492883700+491567641+490340671+489421220+488952251+488786489+488712437
3088+488586547+488302965+487931535+487687341+487533444+487071615+486003992
3078+484513789+483074047+481981901+481201171+480737514+480941112+482021427
3068+483339245+483697155+482550445+480567647+478829458+477821848+477417929
3058+477506294+477989852+478344071+477982885+477001109+475936418+475001929
3048+474126246+473401184+472897276+472367397+471583873+470751545+470301649
3038+470392842+470777103+471074619+471045578+470589887+469644223+468190754
3028+466430214+464886586+464027079+463700384+463339715+462737130+462182003
3018+461876899+461635775+461222749+460749883+460512725+460382454+459740342
3008+458310568+456619975+455291051+454378808+453638605+452908955+452148334
2998+451481733+451062396+450742185+450294669+449926447+449965353+450175125
2988+450002637+449343452+448500225+447565288+446398056+445145735+444283366
2978+444057383+444178480+444091012+443468008+442615606+442326506+442912674
2968+443528090+443113409+441808629+440534717+439525970+438399954+437368340
2958+437093311+437367305+437081481+435697510+433913655+432683615+432259656
2948+432284731+432211852+431557393+430245783+428810869+427971022+427978369
2938+428452787+428729540+428296924+427099306+425692261+424899770+424913152
2928+424982892+424457565+423714120+423471789+423685251+423687907+422999439
2918+421622953+419940293+418535524+417834812+417811876+418084904+418231593
2908+418068452+417721200+417327110+416765361+415904820+414997510+414546441
2898+414771665+415278712+415289162+414352259+412870507+411717554+411343676
2888+411473223+411574625+411322498+410670798+409794529+408946439+408187335
2878+407375046+406559584+406076577+405991247+405865115+405414564+404971118
2868+404890582+404918968+404582960+403907116+403315395+402943931+402416328
2858+401393232+400139187+399316896+399218564+399418057+399315758+398855343
2848+398458321+398334672+398198124+397748159+397114842+396582514+396098162
2838+395365719+394352315+393427000+392937302+392792200+392563182+391985051
2828+391245020+390683547+390327120+389909853+389279502+388544541+387838311
2818+387143842+386380806+385549616+384780337+384272877+384094008+383996331
2808+383592790+382793987+381931446+381354728+381030619+380676125+380197878
2798+379789302+379593533+379468677+379164021+378602927+377932085+377347675
2788+376876085+376338859+375607657+374826272+374220824+373777412+373317273
2778+372796947+372318907+371943580+371665275+371474576+371331509+371156124
2768+370855331+370344732+369656403+368990871+368506244+368132020+367707785
2758+367133448+366313502+365223391+364106653+363355137+363129499+363215105
2748+363204620+362808322+362096298+361409693+360967557+360654003+360231217
2738+359631390+358960789+358299293+357618310+356938362+356433005+356208023
2728+356086099+355815623+355389698+354937733+354394299+353531653+352359696
2718+351293694+350754364+350681486+350654445+350437258+350139259+349873577
2708+349567231+349133995+348606184+348089549+347716947+347571293+347533112
2698+347287711+346625560+345730839+345039163+344744441+344573574+344174104
2688+343573415+343030809+342612610+342253217+342063346+342153574+342276085
2678+342063967+341509599+340854001+340214787+339651968+339316513+339227423
2668+339182551+339102947+339129470+339220387+339032758+338379333+337490751
2658+336695018+336074807+335513507+334929270+334412462+334152023+334195896
2648+334329029+334265222+333902967+333347633+332774399+332319398+332011328
2638+331735093+331303477+330637290+329918574+329491443+329485786+329622197
2628+329567287+329356550+329223519+329164471+328998571+328740168+328550021
2618+328395468+328108127+327701793+327305909+326876190+326285331+325612109
2608+325077987+324759983+324538795+324278322+323977839+323768136+323756996
2598+323872091+323906996+323727299+323388981+323048938+322782118+322514195
2588+322147801+321696663+321275119+321028752+321032270+321136363+321037030
2578+320638663+320172867+319837687+319562073+319249484+318981389+318824698
2568+318654831+318325515+317887346+317509846+317265514+317093337+316928161
2558+316757053+316553214+316273771+315979945+315839430+315890407+315915516
2548+315727025+315462517+315389948+315536602+315697467+315676393+315379567
2538+314832511+314219509+313806552+313767923+314062473+314411897+314463082
2528+314105207+313589089+313251771+313194482+313260945+313235043+313011750
2518+312624765+312184906+311841000+311724215+311810752+311915500+311943127
2508+312002830+312128238+312107440+311827170+311562592+311624261+311882148
2498+311954923+311768984+311596496+311571215+311500647+311214306+310831770
2488+310585162+310562709+310696532+310834495+310783862+310463479+310056938
2478+309854650+309924218+310077943+310134611+310046591+309810192+309447557
2468+309083061+308868943+308797788+308717115+308576738+308505515+308562700
2458+308604434+308533901+308471749+308498927+308464368+308266495+308104596
2448+308197858+308418185+308449985+308214276+307915794+307729200+307654286
2438+307665530+307787351+307971014+308062931+307958080+307675774+307280994
2428+306857587+306539928+306435560+306523925+306725453+307014830+307363496
2418+307658839+307808666+307844709+307825118+307747894+307651354+307668496
2408+307872094+308166989+308401871+308498341+308443294+308275842+308124221
2398+308132499+308294294+308471852+308623507+308866735+309236475+309514987
2388+309416171+308861286+307971290+306799298+305147783+302705743+299368705
2378+295392005+291224847+287203808+283386489+279687903+276163754+273025038
2368+270354290+268039434+266019560+264394016+263418380+263591488+265474004
2358+269208977+274436877+280809366+288320563+296674159+304465075+309745832
2348+311405315+309923425+307161967+304923284+303448050+302058078+300531867
2338+299122166+298007878+297047865+295919642+294627244+293686512+293457563
2328+293580315+293459874+293025534+292720809+292964658+293821922+295069828
2318+296383231+297477653+298252140+298843827+299469763+300232937+301131487
2308+302133302+303132978+303946026+304448554+304670226+304739448+304795668
2298+304914833+305062936+305175031+305290954+305525214+305887021+306217441
2288+306338400+306215061+305942827+305605853+305219730+304819294+304491012
2278+304247578+303987656+303687381+303509892+303584564+303770020+303774263
2268+303470814+303013848+302682151+302659836+302911617+303222344+303388864
2258+303390968+303359996+303388416+303395831+303208030+302792625+302392740
2248+302339797+302706743+303218584+303542279+303593325+303496234+303332334
2238+303063618+302700293+302395534+302294960+302380082+302529082+302659939
2228+302761825+302846085+302910859+302932277+302878920+302758203+302651179
2218+302670562+302859123+303134530+303350925+303407317+303304259+303139325
2208+303037957+303038095+303079276+303135462+303256386+303434426+303573079
2198+303634920+303670377+303670722+303544107+303277184+303011537+302918309
2188+303042509+303285668+303506719+303602913+303536450+303367618+303240969
2178+303248384+303346406+303470918+303611984+303710076+303657477+303484507
2168+303362479+303369377+303428667+303485955+303566974+303653752+303666100
2158+303614088+303662203+303950096+304378435+304674572+304701543+304614351
2148+304650359+304834056+304981124+304986470+304992023+305187033+305539528
2138+305860532+306065993+306205714+306280800+306224512+306058577+305906542
2128+305850495+305917821+306185813+306720073+307391847+307933453+308218829
2118+308349514+308453055+308552595+308669138+308907779+309349190+309899902
2108+310346314+310589301+310740473+310936070+311176090+311424802+311725871
2098+312109441+312504152+312841367+313159991+313523350+313888019+314126074
2088+314174326+314123556+314146078+314341123+314638777+314854447+314864449
2078+314732867+314642950+314713311+314909528+315111954+315260125+315466828
2068+315924139+316590533+317075160+317033082+316594913+316196098+316094764
2058+316234831+316442671+316590671+316655065+316715320+316854213+317074850
2048+317363330+317748797+318233114+318712879+318993978+318905992+318495174
2038+318079148+317965846+318133988+318304303+318288368+318154131+318080183
2028+318159684+318360902+318592990+318774583+318933688+319276249+319960647
2018+320711853+320953632+320521464+319917533+319672960+319810198+320038837
2008+320164383+320192941+320232122+320380260+320674154+321092215+321519278
1998+321808275+322115690+322950674+324426080+325707820+325838160+324915433
1988+323798005+323043833+322692925+322621806+322688166+322780359+322901456
1978+323078220+323236670+323282991+323242051+323323414+323865986+324962340
1968+326037861+326218454+325364604+324285254+323774827+323940624+324463295
1958+325022802+325405544+325530504+325462247+325336908+325327837+325602486
1948+326258049+327464842+329395834+331461996+332144048+330693131+328345215
1938+326752680+326284055+326394977+326636791+326854599+326983456+327034778
1928+327264451+328243365+330250547+332483160+333810877+334418188+335171325
1918+335585282+334417808+332122560+330574103+330742797+331964559+332933711
1908+332943437+332315363+331765686+331569951+331531011+331537703+331846808
1898+332769087+334092424+335089617+335583212+336439028+338047809+339128815
1888+338399131+336600272+335305149+334989318+335223578+335598526+335907838
1878+336069634+336153135+336402054+337480956+340418626+345389623+350235280
1868+351497982+348505161+344272333+341583202+340826788+341036008+341358116
1858+341429857+341220119+340993412+341144688+341955943+343533854+345917053
1848+349330833+353928744+358361066+359444796+356054264+351338049+348488295
1838+347910508+348339606+349019417+350728669+354506393+359405960+362558093
1828+362822843+361949506+360848944+358631542+355538939+353423180+353177607
1818+353841207+354228364+354561440+355933305+358423908+360502313+360731228
1808+359528608+358608778+359514881+362745377+367140139+370238673+370529533
1798+369259105+369128834+371944511+377143353+380977642+379487612+374273318
1788+370338627+369944986+371755261+373768755+375567407+377224613+378141374
1778+378470483+380032254+384625509+391729820+397548596+398248377+394578160
1768+389458922+384882223+382772810+384333718+387874837+390073890+390451528
1758+390815991+391371945+391943800+394476412+400657685+408328125+412506769
1748+411391894+407951350+405338305+404660599+405634545+407100880+407767894
1738+408500096+412323934+420009067+425965979+423946000+417057256+410573431
1728+406009010+403772258+403923672+405549181+408429217+414405374+425058702
1718+437507302+443617042+439538076+430870374+423639482+420240844+421217895
1708+426135879+432900941+438503530+442893911+449247154+458187022+464579136
1698+464801704+460885362+454039110+446203563+441804559+442768020+447392283
1688+454033109+463682242+475785073+482291593+477470458+468726704+463526931
1678+463679276+467905930+472828191+475848639+478488966+482491638+484913605
1668+482209160+477639255+476580496+479534963+482495501+482338224+481153540
1658+483219597+491447544+506643461+523385799+527644081+520759786+517585820
1648+520953382+523333994+517980531+509290824+504140855+504401501+509850020
1638+519896762+531015368+534902635+528702840+520778515+517674392+519542543
1628+523548492+527561442+531473645+534496542+534679204+533299062+534569214
1618+539763261+544272808+542953196+538450548+535951495+536637272+538797351
1608+540623803+541806797+542965371+544285604+545308285+545818781+546352765
1598+547625435+549774891+552233038+554202660+555319156+555864522+556338734
1588+556997126+557871946+558992478+560344993+561981539+564656426+569781526
1578+577489389+583922029+583793931+579698583+578735811+582587449+586859596
1568+587175186+585210875+584706967+587492638+595471631+611153003+630888611
1558+637991197+628314713+616866100+610134909+607566874+607721668+609328863
1548+612462750+618979548+630071735+644344372+658959500+669244193+667939274
1538+657691211+650501363+651018378+655650883+658408823+658694750+661072534
1528+667783928+676900285+686140601+695811360+705513850+711713748+713381990
1518+713829127+714115468+713006594+711728303+713636945+721057811+734257307
1508+749559144+755485945+745318176+731986237+725874428+726891694+731745423
1498+736831894+738949619+737662980+736657786+739815679+747185913+754131084
1488+755470355+751715291+747239856+745063083+745625211+747956985+751538216
1478+757111074+765386135+775380278+783665273+785514040+780396872+774253332
1468+772555979+776124724+781659160+785042277+786794608+791003361+799529997
1458+808811357+810951638+804588945+797133864+792915315+791861695+792486321
1448+792915798+792017800+790331277+788970139+788503343+789751490+794037916
1438+800770763+805249027+803387912+798431609+795245571+794249689+793623408
1428+793201449+794454701+797515813+800754484+803542775+807104140+811066699
1418+811723125+807445804+801596952+797410755+795386845+794612461+794571900
1408+795685189+798092359+800473454+801405943+801769543+803651007+807397655
1398+811425126+814209830+814980903+813621351+811622688+811321861+813268167
1388+815303459+814927098+813007970+813002037+816639212+822679763+829105851
1378+835201725+841130457+846189129+848810348+848878708+848446679+849201955
1368+851058033+853525148+856673108+859917090+861367214+859913779+856999183
1358+854972099+854807303+855724409+856301092+855911969+855038735+854340093
1348+853839082+853140923+852400823+852790498+855381365+859365240+861956314
1338+861003752+857382649+853655730+851377624+850520256+850522670+851163989
1328+852533543+854499233+856379179+857415691+857710586+858174968+859342614
1318+860948843+862823270+865062816+867237243+868777319+870092999+871922175
1308+873930840+875282666+875924261+876296138+876647598+877076592+877428121
1298+877265463+876709267+876604899+877008784+876597104+874541048+871851814
1288+869925857+868776905+867400798+865235821+862786296+861070457+860519986
1278+860315457+859253076+857367542+855989642+856062693+857099619+858010517
1268+858426543+858797938+859497063+860399131+861364386+862579629+864130327
1258+865659228+866848051+867908845+869196242+870547723+871374050+871519186
1248+871802768+873285934+875998277+878796709+880531864+881214020+882036483
1238+884131306+887156617+889506740+890353209+890736538+892046975+894366677
1228+896923260+899412449+902050361+904775880+907224508+909186197+910629078
1218+911625650+912569935+913942179+915638980+917237000+918982433+921665459
1208+925290907+928795707+931370226+933359024+935680865+938428112+940526453
1198+941205505+941120313+941398859+942506146+944502395+947129546+949477807
1188+950906960+952186080+954528821+957776045+960585859+962331568+963914895
1178+966525008+970134728+973495150+975457598+975886524+975533891+975394480
1168+975762495+976268335+976670013+977097145+977612987+978056674+978530368
1158+979630482+981798838+984607480+987015477+988273972+988301219+987669006
1148+987703565+989599102+992832184+995450230+996365542+996515577+997275198
1138+998957099+1001161741+1003211450+1004689235+1005864745+1006712318
1130+1006502822+1005404778+1004887074+1005765136+1007490150+1009306151
1121+1011078280+1012935600+1014214168+1013710329+1011907090+1011395456
1113+1014272388+1020239888+1026962457+1031629936+1033043845+1032345547
1104+1030596872+1027059306+1021995254+1018326486+1018101124+1020393233
1095+1024051103+1029490620+1036487113+1042487310+1044565854+1042596094
1087+1039298031+1036674949+1034366077+1032734947+1034140785+1039188144
1078+1044479420+1046483878+1045949480+1045696043+1046163184+1045416324
1070+1042158546+1037752368+1035543726+1038248550+1045859942+1055386806
1061+1062155316+1063016341+1058971348+1053339304+1048785644+1046386821
1053+1046429245+1048761777+1052594514+1057119546+1062227333+1067850616
1044+1072492779+1073741823+1071112533+1067106860+1064538412+1063996702
1035+1064275938+1064442597+1064384446+1063461753+1060759688+1057232469
1027+1055279264+1055389772+1055292716+1053402422+1051115969+1050592540
1018+1051932225+1053741051+1055526286+1057656497+1059248032+1058579811
1010+1055998601+1053943994+1053830037+1054556410+1054205847+1052569749
1001+1051386307+1051843722+1053300192+1055011203+1057555646+1060716091
993+1061572770+1057743482+1051202955+1045853251+1042871467+1040522379
984+1037296815+1033783117+1031923106+1033088889+1036707715+1040024403
975+1039786349+1035459017+1029979076+1026490832+1025642845+1026210699
967+1026813802+1026458066+1024428913+1020758696+1016548977+1013166136
958+1011074693+1009492607+1007117169+1003480684+999680851+997384879+997046043
948+997329831+996350504+993609327+990481993+988411382+987163304+985147120
938+981149656+975742215+971097637+969243490+970344086+972706901+974240562
928+973753209+971551879+969177130+968143308+968507736+969062966+969008954
918+968616382+968346803+968188008+967848344+967263452+966861774+966873363
908+966382837+964297051+961210829+959049784+958872985+959810096+960179697
898+959244174+957969469+958185380+960524880+963395535+964410939+962553274
888+958883333+955451377+953816107+954308909+955795179+956217759+954181087
878+950327518+946773258+945147991+945413155+946252243+946232238+944974779
868+943621711+943744567+945388873+946905771+947045113+946439872+946750287
858+948744122+951374653+952729169+952278860+951494888+951827653+953142298
848+954238479+953859151+951185231+946635296+942324174+940431466+940710219
838+941107620+941143215+942093432+943744084+944349671+944034012+944730585
828+946561210+947669670+947669739+947764726+947842330+946471741+943610398
818+940973590+939679846+939281962+939080123+939164694+940046689+942162344
808+945853807+950951660+955829808+957879103+956480715+954065336+952986538
798+953316131+954108726+955146273+956665723+958378459+959121663+957674574
788+954758460+953410704+955885890+960637250+963781347+963286475+960142310
778+956758917+955684189+958041002+961852700+963413884+961419705+957948292
768+955314380+953954828+952856026+951097762+949145524+948571186+950131266
758+952115236+951343129+946824166+941692788+940590951+945436470+953602541
748+960294896+962567277+960986295+958823733+959649783+963881577+967916636
738+968010174+964774056+961848906+960981605+960862543+959767258+957367538
728+954926154+954143216+955505389+957732380+959214719+959699174+959251968
718+957239095+954585524+954715485+959350681+964966514+966507624+964424873
708+963773759+966617098+969038823+966295783+959197887+952319766+947684087
698+943345648+937432230+931239230+927552665+927106356+927641788+926947078
688+925823442+926566026+929568366+932495172+932125087+927536316+921527565
678+917539138+916271883+916903889+918966429+920498572+917679584+909618226
668+903431435+908025725+918583583+924079803+921077532+913297618+906325199
658+901934542+897343770+890246702+883016293+880429703+884678052+893932922
648+903867880+909622158+909175919+904568453+897941148+890247530+883717212
638+881542922+883884974+885572738+882316133+876543022+872994557+874294302
628+879473967+884140688+883392379+877119292+869961934+864243043+857996652
618+851650445+850798319+857994306+867631126+874165859+878254585+880753363
608+880105284+877932305+877833248+877968796+874110950+869081181+869728709
##END=
