##TITLE=<SNM>
##JCAMP-DX=4.24
##DATA TYPE=INFRARED SPECTRUM
##DATE=2/5/2025
##SAMPLING PROCEDURE=Instrument type and / or accessory
##ORIGIN=Admin
##XUNITS=1/CM
##YUNITS=ABSORBANCE
##RESOLUTION=4
##FIRSTX=4497.3318
##LASTX=599.83466
##DELTAX=-1.4281778
##MAXY=1.841681
##MINY=0.39251724
##XFACTOR=1
##YFACTOR=1.7151991e-09
##NPOINTS=2730
##FIRSTY=0.41423452
##XYDATA=(X++(Y..Y))
4497+241508126+241125762+241039146+241393969+241917213+242207782+242153779
4487+241795828+241129255+240468450+240506067+241444775+242441065+242545265
4477+241975525+241715571+241996949+242079569+241571668+240983475+240755214
4467+240599095+240127995+239553477+239410355+239872542+240533416+240839867
4457+240653602+240255826+239853898+239342000+238778863+238733635+239631214
4447+240856130+241096015+239806637+237862291+236502143+236102977+236251294
4437+236598941+237218792+238218505+239308831+239858311+239406550+238231172
4427+237323653+237593407+238982607+240442404+240970096+240563198+239922149
4417+239555492+239608487+240147786+240989904+241557594+241344710+240249571
4407+238505617+236740360+235745026+235691544+236072257+236643996+237686313
4397+239192137+240548828+241147169+240933677+240442491+240292523+240403326
4387+240013474+238816481+237510839+236789654+236412069+235804033+235034736
4377+234533802+234221218+233685099+233074822+233060174+233821739+234701457
4367+235046047+234872119+234407865+233519424+232137834+230920303+230762552
4357+231673737+232738798+233286680+233474648+233574296+233364713+232585686
4347+231587763+231080001+231338564+232056552+232913161+233743133+234113925
4337+233543698+232393479+231726610+232002167+232555036+232520233+231716775
4327+230529599+229446293+228846459+228945481+229773664+231082816+232224711
4317+232537573+232163480+232017475+232625632+233504951+233957320+233896419
4307+233640861+233465074+233493239+233595320+233491763+233255926+233313525
4297+233703465+233975147+234043015+234378639+235055812+235326730+234527251
4287+232914342+231338269+230432245+230284727+230555610+230757443+230695639
4277+230679132+231083424+231793488+232339772+232457160+232244971+231972333
4267+231990647+232651261+233958258+235329041+235993599+235729579+235012790
4257+234381610+233953741+233718686+233912700+234757059+235968856+236757492
4247+236449321+235151498+233653319+232720797+232684587+233364001+233998204
4237+233732916+232669244+231931918+232382984+233695455+234786997+234874169
4227+234221392+233954505+234785850+236068904+236533783+235732272+234334749
4217+233180186+232535923+232332022+232555731+233054232+233429559+233518816
4207+233645935+234187040+235019185+235489815+235087088+234146399+233585434
4197+233859340+234538597+234927164+234672093+233896836+233104325+232791029
4187+233067072+233713247+234421452+234937138+235173027+235291336+235556641
4177+236061519+236683612+237231129+237577751+237698771+237588142+237258113
4167+236870589+236660433+236590931+236232667+235240130+233965973+233284491
4157+233574973+234191593+234345400+234139102+234279339+235059878+236039348
4147+236673065+236938961+237093880+237044899+236545686+235830617+235370637
4137+235150230+234693482+233670834+232326306+231516350+232060027+233708730
4127+235249114+235940743+236121690+236189454+235995857+235527068+235287201
4117+235636342+236247037+236420339+235762523+234535227+233426622+232983809
4107+233232712+233765651+234171281+234393686+234646395+235035865+235427264
4097+235682978+235862414+236086001+236331012+236444283+236239444+235609254
4087+234727833+234093613+234135818+234792852+235634588+236327902+236838774
4077+237258200+237597507+237712619+237398437+236713706+236086210+235817516
4067+235713437+235498208+235281362+235251633+235221000+234943897+234685681
4057+234979621+235803251+236387604+236091561+235216552+234565773+234476341
4047+234787031+235382522+236136998+236651676+236633119+236252371+235793277
4037+235287531+234706409+234267054+234387205+235311978+236720222+237826394
4027+238064437+237625760+237258825+237555493+238381869+239012632+238916094
4017+238311985+237742297+237377500+237082969+236869546+236919344+237244456
4007+237579298+237676409+237643656+237854785+238494983+239326901+239971634
3997+240259736+240194613+239854211+239564215+239765839+240373145+240692193
3987+240304356+239602562+239223604+239340802+239651926+239879370+240185282
3977+240976142+242296102+243688273+244586652+244537411+243395028+241732321
3967+240648251+240852186+242167645+243851898+245208762+246027284+246378737
3957+246100487+245137801+244317316+244928792+247437127+250820818+253101013
3947+253153678+252179855+252114089+252782261+252325426+250345357+248384991
3937+247702953+248785251+252004189+256693661+260101539+259754343+256862411
3927+254761861+254792772+255409634+255047791+254590139+255838668+258562284
3917+260070176+258046686+253411425+249160126+247275987+247868176+250525088
3907+255518179+263152682+272094860+279326740+282531378+281181064+275629822
3897+267855707+261657057+259910705+262097820+264309834+263450636+261987573
3887+264014712+268941654+272491072+273556586+274262080+273478292+269217298
3878+264906506+265152750+269661379+275210501+280219073+283754226+283739318
3868+281203217+280108947+281035041+280323951+275968139+270858147+268832102
3858+271828895+280606684+293757157+302456444+296959171+283592669+272333981
3848+266527581+266145079+270113696+276878942+284807472+292450664+297853727
3838+298550204+294411064+288526318+283515453+279814086+277223844+276130617
3828+276640951+278221211+281548259+288283201+296500216+299709076+296741213
3818+293307342+290653158+285271309+277602959+272222153+272242552+277830386
3808+285886956+291827337+295448447+300021243+304699230+305000555+301497251
3798+298169091+295181942+291252124+287718986+286535546+287675305+290335883
3788+294395009+299448514+304056617+307797130+312378892+318630085+324236650
3778+326998475+328704638+332926172+341802481+355317160+370735595+383840388
3768+393455986+401664973+409374973+416656877+424871494+433986054+440518451
3758+442548874+443931889+449517117+460494949+473592062+482551181+485615547
3748+488488991+495568228+504659366+509492307+510181173+513225140+522831390
3738+539479763+559291333+573936527+577674851+573725138+569075194+568025823
3728+571922367+579954646+589060866+595666727+597939572+596025634+591964578
3718+588846940+588767986+591901193+596550233+599005589+595909218+588477191
3708+580784184+576028807+575512930+577874147+579718445+579309184+578100028
3698+577695875+578777774+582450279+590106033+601343210+612016312+615619767
3688+611210231+605449511+602590558+601928554+601962262+603228514+608108299
3678+617627255+627030282+628722927+625055669+622731183+619588177+610121069
3668+597516306+588635099+584259479+581349268+578653331+578054747+581027371
3658+585302560+586743053+585790949+587816994+596183472+607872341+613277351
3648+605935258+591721531+579163890+571618401+568759066+568841008+569969195
3638+571116529+572268590+573723539+576292462+581818752+590732869+597320868
3628+594290801+585566042+579309045+578453479+582678141+589925467+595961900
3618+598017136+598631531+600768848+603386630+604563434+605095330+606184005
3608+606725424+605659337+604287929+604597420+607225558+611229900+615435171
3598+619461614+622916684+624513694+623302279+620815716+620364928+623824515
3588+629058968+631560613+630183228+628039169+627864094+629498636+630808118
3578+630229168+628469315+627287021+627475371+629391325+634298841+642229474
3568+648100632+645210264+635636333+627810786+625567827+626669221+628168859
3558+630108374+633802599+638587584+641803915+641995045+641020005+641405184
3548+642907394+643102068+640525501+636306190+632762089+631377128+631928833
3538+632919719+633289398+633392748+633575954+633119814+631648254+630188927
3528+629831132+629985148+628925733+626031334+622688857+620722097+620622571
3518+621676286+622955952+623770026+623895893+623793378+624114824+625068526
3508+626558018+628246979+629329399+628932336+626896908+623882062+620511298
3498+617293716+614906332+613460279+612574341+612417754+613341779+614646743
3488+615083770+614622001+614390699+614647786+614245093+612270827+609363292
3478+607133816+606520115+607068832+607699143+607628876+606394595+603858825
3468+601041781+599975347+601430574+603555450+604070875+603213988+602858834
3458+603375788+603218089+601264882+598193948+595687021+595049204+596043704
3448+596839568+596014513+594298724+593269265+593066806+592545057+591005246
3438+588895730+587322559+587097859+587891430+588636141+588788697+588656436
3428+588648651+588793354+588939725+588887042+588049060+585823823+582831149
3418+580829534+580786929+581641523+581506932+579619300+576579573+573503636
3408+571574094+571617498+573456479+575837503+577399728+577786366+577415227
3398+576408634+574676025+572794162+571534617+570741568+569735391+568493013
3388+567402496+566316115+565031862+564113119+564170736+564767269+564883094
3378+564263555+563568434+563312424+563437319+563862808+564676361+565805799
3368+566909312+567535835+567432625+566924915+566578345+566349511+565592220
3358+563940338+561895180+560289968+559459353+559204768+559282020+559654896
3348+560136265+560131226+559356317+558602814+558811250+559680125+560319576
3338+560809598+561702869+562491505+561964021+559796819+557182651+555955563
3328+556814430+558269310+557999643+555515617+552632512+551272155+551777884
3318+553276237+554797004+555860658+556298519+555939995+554872309+553722681
3308+553196206+553572801+554722116+556067287+556811442+556914478+557318040
3298+558469510+559368549+558985421+557975700+557863107+559002935+560344631
3288+561029640+561258996+561356715+560963753+559628555+557729560+556432345
3278+556613014+557794231+558355423+557358629+555862570+555632588+556994092
3268+558648755+559275625+558627904+557227896+555746258+554863760+554970619
3258+555536676+555473951+554584885+553907000+554140560+554715583+555027089
3248+555561523+556873715+558224030+558274384+556833370+555065524+554105601
3238+553948145+553610922+552335774+550492519+549064328+548548243+548675918
3228+548758138+548059333+546384620+544499837+543513191+543725971+544421196
3218+544697153+544287788+543664879+543332938+543161408+542738351+542156691
3208+541889631+541825064+541068086+539168048+536957789+535703317+535772472
3198+536335018+536160882+534712501+532685379+531327524+531032697+530988877
3188+530391614+529441108+528828381+528614281+528178852+527274218+526391963
3178+525797550+524996021+523642927+522270511+521489034+521013260+520079469
3168+518597484+517382212+517080262+517210577+516764967+515601404+514519262
3158+514053427+513990146+513947923+513714815+513026435+511562138+509392711
3148+507221408+505854552+505511422+505871684+506495115+506848948+506383113
3138+505096636+503722656+502827717+502075987+500884414+499406808+498257736
3128+497548610+496860995+495995420+495126857+494348125+493673472+493321550
3118+493444151+493814873+494162521+494467842+494701298+494618904+494025429
3108+493007124+491758317+490494116+489650921+489648280+490190046+490366754
3098+489726469+488624693+487381724+485882225+484181240+482794993+482172501
3088+482166385+482124267+481592057+480980859+481200033+482436051+483700739
3078+483887560+482872244+481210423+479275391+477246810+475552844+474724001
3068+474836142+475377874+475684098+475409045+474685880+473917677+473369100
3058+473014815+472799742+472784486+472876646+472670295+471823104+470535515
3048+469424391+468863477+468665606+468536889+468580223+469052765+469806477
3038+470286490+470066100+469251019+468305066+467471636+466504067+465109759
3028+463471534+462030798+460911646+459922254+459034127+458475402+458299320
3018+458207404+457981732+457754878+457554922+456976528+455762090+454364549
3008+453455328+453128079+452929374+452481956+451828327+451206322+450657536
2998+449986775+449112930+448258267+447659128+447298066+447068710+446953581
2988+446825837+446356109+445452587+444588159+444288676+444425108+444377882
2978+443772105+442767006+441777857+441104524+440725775+440406449+439972515
2968+439308600+438243069+436839412+435629839+435117090+435209423+435419040
2958+435331885+434747758+433734736+432651934+431883453+431577194+431693574
2948+432023117+432061204+431281151+429827905+428590427+428160767+428021034
2938+427284489+425974069+424889912+424439819+424285907+423953724+423262008
2928+422335341+421506916+420995522+420630221+420134257+419460229+418603829
2918+417495450+416331470+415619286+415650006+416091758+416210085+415536613
2908+414337917+413328648+412982078+413240485+413669901+413663577+412809366
2898+411399419+410355538+410412842+411378499+412199454+411908763+410591462
2888+409212270+408503804+408356391+408245640+407819525+407028908+406077533
2878+405312215+404917306+404711998+404406469+403996999+403679516+403399945
2868+402800666+401670638+400204812+398841883+398040389+398009982+398425776
2858+398689466+398638556+398629555+398846088+398961183+398564641+397634638
2848+396577204+395876245+395591704+395261710+394497574+393527538+392868002
2838+392608030+392320988+391650401+390786112+390255988+390268498+390433426
2828+390248204+389665953+388980701+388370615+387817555+387323884+386976063
2818+386810683+386704380+386412612+385772536+384880759+383981025+383175604
2808+382380609+381598853+381055697+380903767+380885384+380513237+379634214
2798+378644266+378051277+377923776+377868974+377498321+376790099+376007092
2788+375408683+375057838+374791473+374383358+373782655+373118253+372518627
2778+372073712+371819857+371583412+371067223+370258848+369479178+368929454
2768+368486311+367975335+367363893+366705191+366118214+365738526+365485296
2758+365004379+364084107+363019236+362280502+361909016+361576798+361143871
2748+360756052+360447117+360037056+359441670+358820255+358381074+358183237
2738+358137227+358083328+357840489+357300357+356572396+355935551+355543214
2728+355290992+355008746+354617625+354115406+353571659+353055052+352488822
2718+351751652+350921523+350193076+349625872+349164103+348732706+348193546
2708+347481188+346830061+346539718+346537737+346482518+346189255+345689781
2698+345077019+344544601+344333247+344405529+344384887+343972116+343260349
2688+342576243+342157044+341988120+341865414+341628344+341308184+340978781
2678+340589815+340108341+339664642+339363943+339103346+338750173+338358253
2668+338038962+337733954+337280351+336675339+336142851+335880482+335806254
2658+335656826+335313626+334890395+334496043+334100821+333705044+333421720
2648+333259989+333029000+332613832+332165372+331863213+331664369+331412633
2638+331032946+330530413+329954522+329428846+329103578+329029350+329114768
2628+329200880+329137008+328799473+328146852+327341987+326714873+326452435
2618+326401733+326325768+326217241+326180057+326144264+325918488+325465788
2608+324955993+324556636+324294476+324135942+324070298+324031273+323869299
2598+323542363+323216921+323021100+322818329+322404307+321829111+321337386
2588+321060491+320929967+320851291+320800172+320720732+320467224+319962572
2578+319362564+318926823+318712549+318525694+318226906+317954737+317923531
2568+318077338+318110491+317845619+317414188+316993876+316572904+316112108
2558+315738883+315594737+315633136+315708025+315731447+315648427+315405449
2548+315055264+314768431+314629775+314510197+314244666+313868418+313559831
2538+313399872+313312856+313215415+313122561+313113769+313211523+313288253
2528+313178753+312931292+312808274+312948424+313163567+313164991+312868149
2518+312395885+311913613+311555019+311409065+311473632+311643147+311786042
2508+311834728+311791290+311645823+311346757+310933117+310612158+310518852
2498+310474475+310227675+309859177+309687229+309849516+310185105+310428813
2488+310380440+310010412+309513892+309180145+309155785+309366479+309630933
2478+309799058+309825746+309765071+309687229+309597503+309461627+309300001
2468+309186331+309133057+309055494+308896196+308711147+308576974+308472478
2458+308324544+308135360+307984785+307918897+307891201+307804497+307606000
2448+307397808+307389781+307622542+307848909+307849673+307712408+307625808
2438+307585393+307469742+307252410+307010266+306810692+306659248+306531956
2428+306438615+306439240+306584464+306849717+307132138+307311730+307320209
2418+307161259+306913589+306742233+306817677+307144752+307530730+307754421
2408+307711191+307444478+307155594+307119280+307442671+307929044+308265155
2398+308316586+308189433+308067978+308060959+308172266+308367218+308646997
2388+309004236+309268586+309092051+308192838+306565490+304385916+301802502
2378+298901153+295779205+292553561+289339992+286283533+283529249+281076255
2368+278775957+276596087+274738410+273443315+272976941+273807887+276333232
2358+280336096+285102212+290298074+296434641+303809816+311150414+316267444
2348+317862821+316392477+313737790+311730754+310593845+309460237+307916013
2338+306252732+304821205+303698092+302822232+302137292+301576969+301091083
2328+300673030+300236976+299638636+298983617+298692752+299068061+299981523
2318+301048270+301886252+302280396+302364528+302549681+303082342+303837965
2308+304631917+305396124+305962424+306082627+305785750+305367697+305002223
2298+304688214+304514633+304641891+305044097+305478379+305706727+305689490
2288+305588157+305575264+305646990+305663775+305523069+305228277+304855922
2278+304512514+304273011+304121184+303959071+303698370+303370878+303115633
2268+303005612+302965440+302938473+302986638+303098675+303085365+302836758
2258+302529595+302415786+302532479+302744494+302946257+303107015+303214743
2248+303269406+303269962+303182007+302988584+302769271+302635620+302584153
2238+302503705+302353616+302254194+302344407+302603614+302891838+303117162
2228+303269267+303324243+303227322+302986186+302719056+302589053+302678641
2218+302902506+303069449+303078693+303016524+303008879+303055757+303081821
2208+303060623+303006724+302933539+302894131+302969645+303156187+303345997
2198+303454419+303490525+303480309+303396698+303224994+303055236+303013605
2188+303080709+303091030+302957760+302767569+302634473+302616090+302764232
2178+303084983+303467972+303764640+303889048+303828686+303664454+303526215
2168+303435828+303324138+303250223+303367542+303637591+303830076+303834976
2158+303769575+303788514+303932070+304134911+304317561+304469805+304622465
2148+304742286+304740236+304601580+304443116+304428590+304634454+304988114
2138+305343546+305595350+305689351+305620579+305508647+305547186+305779808
2128+306039049+306163701+306155638+306109663+306107474+306198486+306409841
2118+306736534+307113859+307439891+307670811+307851967+308042228+308291565
2108+308650194+309065849+309354212+309440012+309507950+309759963+310181074
2098+310644199+311051826+311317323+311427518+311548034+311844910+312199543
2088+312318530+312137374+311905099+311851131+311955557+312085039+312191932
2078+312303726+312427474+312555218+312717748+312963367+313305698+313747311
2068+314299885+314872093+315205944+315099050+314649896+314136035+313753219
2058+313573418+313603964+313786684+314047663+314364070+314712065+315016795
2048+315227559+315392070+315631329+316016925+316422502+316590627+316434596
2038+316134661+315885184+315742324+315723906+315851372+316081840+316325026
2028+316529153+316717746+316946615+317228931+317575397+318100343+318850267
2018+319469458+319408991+318639329+317775457+317365988+317410956+317608271
2008+317755823+317846384+317964537+318172382+318475792+318854437+319209799
1998+319388801+319560713+320333225+321910045+323370346+323575168+322593282
1988+321359488+320410963+319776343+319518561+319699404+320130419+320537386
1978+320803439+320952451+321028069+321061151+321213603+321865460+323193082
1968+324586835+324996582+324154742+322927238+322214011+322120531+322350026
1958+322780103+323339453+323775228+323903772+323861306+323924275+324225982
1948+324809379+325936906+327934837+330261233+331255455+329928494+327440506
1938+325623522+325063269+325251688+325601421+325839325+325953065+326076465
1928+326469463+327634972+329851868+332308233+333772981+334399852+335160062
1918+335629998+334534408+332317129+330860164+331105019+332355216+333273334
1908+333109761+332215865+331448010+331205623+331260216+331331247+331564842
1898+332386874+333778646+334979462+335593683+336432083+338035383+339201135
1888+338552962+336713738+335204404+334543582+334477381+334774953+335212362
1878+335558898+335831970+336350175+337846755+341379702+347087635+352536500
1868+353805567+350160549+345111214+341861939+340846901+340939756+341149269
1858+341129669+340973777+340935725+341202750+341971543+343557121+346179282
1848+349993432+355042524+359895481+361112908+357416633+352287927+349262865
1838+348674011+348969776+349347275+350890213+354904285+360284239+363694306
1828+363868165+362887948+361779187+359424677+356004845+353570304+353143876
1818+353791805+354365403+355067857+356876014+359741813+362038532+362332038
1808+361189221+360421297+361457463+364669520+368975777+372058317+372375732
1798+371079455+370904902+373724030+378928041+382635124+380819878+375178771
1788+370843775+370162415+371894780+374068794+376049593+377589820+378126930
1778+378294116+380273004+385762076+393876611+400366056+401085920+396957135
1768+391292432+386320835+384084026+385821187+389682216+392038498+392338190
1758+392556669+392956755+393413555+396131246+402998433+411544991+416019511
1748+414352478+410092578+406960171+406191933+407371238+409090225+409790698
1738+410410027+414475809+423103231+430151157+428255011+420545394+412978915
1728+407449914+404618519+404642253+406457638+409768040+416627582+428725121
1718+442576501+448896640+443765502+433844548+425726886+421872946+422822340
1708+428057939+435257727+441217847+445982711+452923813+462537222+469242053
1698+469333587+465057285+457561594+448929515+443963200+444632884+449105980
1688+455951239+466698811+480850717+488815232+483220587+472518573+465677067
1678+465057146+469368650+474794511+478262091+481366663+485983906+488599290
1668+485134212+479560313+478113253+481173970+483961232+483008155+480982353
1658+482791414+491531533+507895505+525913583+530606443+523742349+521140344
1648+525381061+527921592+521591445+511738776+505904628+505944314+511604846
1638+522288199+534019603+537554913+530130843+521390341+518424355+521012078
1628+525616672+529802517+533764845+536849922+536800541+534928894+535945635
1618+541330872+546053687+544448232+539433197+536696566+537440721+539643266
1608+541248199+542007158+542819738+544145830+545558592+546551980+547365046
1598+548683876+550641739+552540526+553743671+554466176+555298806+556357943
1588+557369714+558322514+559530836+561081767+562838457+565381074+570223398
1578+577825774+584566746+584904733+581078003+580393480+584807639+589729195
1568+590347551+588297390+587448218+589783267+597786182+614857820+637480074
1558+646361282+635595744+622422040+614666690+611709531+611575115+612670879
1548+615449697+622378601+634661640+650307520+665860963+676070071+673195063
1538+660951084+652720620+653174744+658055920+660743204+660748139+663059905
1528+669822353+678723160+687596653+697457558+708397268+716437018+719346986
1518+719749818+718965004+716684444+715109744+717842482+726752464+741419759
1508+757454710+762692916+750726735+735629988+728294707+729027672+734909255
1498+741657455+744337998+742158424+740487602+744373722+753378990+761105427
1488+761051980+754894128+749109291+747277087+748723834+751209424+754232541
1478+759340014+767544206+777832545+787048752+790262581+785885640+779643135
1468+777617646+780664532+785042306+786899184+787815981+792642737+803625399
1458+816669551+820764106+812292402+801376809+795051666+793744339+795232649
1448+796199904+794314809+790587571+787836832+787631941+790294829+796083141
1438+803849264+808777700+806925410+802142649+799901357+800520548+801040769
1428+800143362+799627729+801045981+803958590+807880503+813075478+817521851
1418+816563631+810007881+803101425+799248875+798108004+797974144+798007574
1408+798711279+800398225+801819118+801829266+801901756+804326462+808915105
1398+813503122+816667605+817841559+816427546+813497145+811838417+812732904
1388+814398235+814231153+812751948+813248468+817391605+823674074+829775560
1378+835042262+839992035+844211554+846348524+846594977+847167324+849435304
1368+852703761+856247445+860436036+864728879+866718992+865120522+861835870
1358+859242831+857675358+856252033+854742942+853850957+854034372+854959161
1348+856090858+857117954+857903602+858705235+860123834+862150227+863661403
1338+863575151+862126596+860374388+859047670+858278564+857973451+858034335
1328+858266331+858362105+858271961+858565953+860075948+862976255+866494640
1318+869817517+872806995+875277920+876506850+876336362+875819825+875973146
1308+876737248+877703600+878963179+880698568+882708558+884783532+886880190
1298+888633023+889245751+888236030+885980004+883274441+880754239+878772328
1288+877316753+875890717+873811156+870886871+867804470+865648040+864850646
1278+864729852+864248970+863157654+862229042+862387366+863563405+864484998
1268+864038171+862713260+862023872+862707978+864224436+865846745+867529173
1258+869497879+871575911+873381079+874880092+876266999+877501767+878441291
1248+879243132+880314293+881999362+884378476+887123377+889635586+891506850
1238+892647165+893089335+893131383+893377906+894251751+895861272+898313779
1228+901441009+904381975+906494827+908638190+912153448+916496542+919273483
1218+919202452+917899990+918002783+920577335+924727978+928844704+931937391
1208+933995824+935193825+935561767+935729127+936893003+939476799+942519654
1198+944844139+946352048+947745419+949399490+951169699+953105878+955661596
1188+958931791+962214079+964734698+966234892+966739197+966580733+966558284
1178+967395710+969094124+970849598+971756109+972068797+973402257+976861775
1168+981270617+984133045+984310831+982921491+981944575+982829749+985903393
1158+990230223+994320955+997250870+998732299+998544644+996987875+995504222
1148+995696603+998154600+1002566917+1007984924+1012661208+1014715401+1013693934
1138+1010975652+1008329652+1006703868+1006765725+1009479350+1014828411
1130+1020607896+1023905614+1023826938+1022056868+1020756282+1020235992
1121+1019109717+1017061084+1015920352+1016572974+1017279250+1016880380
1113+1017218784+1020470005+1025694866+1029895133+1031433345+1031172853
1104+1031029610+1032345694+1034882438+1036655983+1035937126+1033534313
1095+1031625795+1031083821+1031755903+1034295009+1039048510+1043922943
1087+1046114055+1045812904+1045622469+1046314915+1045928694+1043753915
1078+1042309183+1043549928+1045773079+1046229219+1044904516+1043843017
1070+1044822574+1048173460+1051847321+1053354605+1053747151+1056739339
1061+1063390028+1070407547+1073741823+1072603802+1069580963+1067354684
1053+1066698727+1066793736+1066617480+1066015108+1065763442+1066819591
1044+1069036139+1070514650+1069255904+1065463959+1061330762+1059147087
1035+1059808465+1062378431+1065316338+1068267589+1071503520+1073695952
1027+1072739886+1069005350+1065233770+1063411991+1062993521+1062191193
1018+1060478879+1058920025+1058551110+1059551170+1060925845+1060936409
1010+1058976252+1056651628+1056459316+1059279210+1063332898+1065780748
1001+1065533809+1064077678+1062658523+1060705038+1058039230+1056083104
993+1055482122+1054606470+1052424047+1050846983+1052028929+1055176315
984+1057691929+1058548121+1058176635+1056141902+1052057216+1047405188
975+1044550058+1044130267+1044096420+1041974602+1037721235+1033415812
967+1030447185+1028553750+1027591360+1028199986+1030031287+1030910136
958+1029111710+1025331928+1021316397+1017383989+1012398839+1006117552
950+1000060268+995766660+993761675+993755698+994500061+994549338+993715665
940+992650412+991558262+990441925+989402735+987857712+985055055+981848315
930+980124811+980279522+980662755+979596390+977153752+974633063+973132591
920+972793839+972848120+972577759+972147126+971987758+971761669+971098553
910+970442457+969995839+969017811+967129936+965095968+963731718+963134838
900+963090635+963540519+964360918+964801489+963805807+961686491+960702694
890+962704691+967068844+971541140+974037503+973333451+969678216+965379118
880+963061444+962673624+961423983+957598609+953551106+952893133+955627748
870+958050509+957398722+955116494+954120742+954654794+954708101+953414049
860+952046672+951900162+952899597+954091413+954279623+952553131+949060739
850+945196443+942770208+942877657+945261219+948256326+949856117+949291693
840+947813948+947507237+948450653+948287463+945420517+941818660+941509308
830+946530807+954532540+960176288+959993777+955666808+951456880+950020349
820+951351238+954116225+957099934+959583439+961070428+961524900+962149303
810+964133021+966203130+965993652+963815190+961672591+959770537+957043359
800+953505583+950577684+949883709+951845951+954473603+954825629+952638340
790+950820801+951839070+955239651+958750113+960847049+961868377+962725890
780+963350362+963202532+962179953+960635069+959398495+959244896+960122494
770+961443930+962740485+963127748+961943092+960652723+961351423+963528009
760+964369049+962483954+959720844+958791814+960547428+963575618+965851034
750+966852207+967475429+967731473+966259149+963298306+961707898+963516472
740+967685810+972148099+975652723+977046024+975859213+973672828+972414429
730+972331305+972779313+973434506+973571842+971998531+968910848+966127929
720+965370569+966609020+967618672+965845127+961928427+959431438+960344413
710+964050314+968763504+971481230+969300683+962807693+955951001+951899467
700+951150030+952426707+952902933+950017152+945183099+942750191+944153501
690+945601152+942850482+936835734+931699696+928889185+926474278+923164259
680+920376614+919847915+921096374+922603171+923931280+924223673+920381132
670+911142754+904024319+909476798+922401477+930236128+929679211+924677520
660+919550308+916072581+914429977+914129243+913412403+910636851+906142870
650+902023990+900504960+901635823+903313177+903549552+902212478+900968606
640+902167372+905363686+905099858+896990258+885839193+880353422+881738661
630+883769154+882670054+881701825+883447570+882996156+874940628+863595237
620+857541289+858641224+862066408+864103016+865455728+866301286+864629839
610+861551956+861808139+866620508+871041860+869553828+862111445+854589760
600+853707922
##END=
