##TITLE=<SNM>
##JCAMP-DX=4.24
##DATA TYPE=INFRARED SPECTRUM
##DATE=3/5/2025
##SAMPLING PROCEDURE=Instrument type and / or accessory
##ORIGIN=Admin
##XUNITS=1/CM
##YUNITS=ABSORBANCE
##RESOLUTION=4
##FIRSTX=4497.3318
##LASTX=599.83466
##DELTAX=-1.4281778
##MAXY=1.7110502
##MINY=0.18684351
##XFACTOR=1
##YFACTOR=1.5935396e-09
##NPOINTS=2730
##FIRSTY=0.20513843
##XYDATA=(X++(Y..Y))
4497+128731301+130495111+132044083+132565980+131838735+130315404+128916254
4487+128477150+129141510+130418321+131835677+133164069+133970338+133651591
4477+132291893+130867710+130090719+129642404+129044577+128578861+128726195
4467+129320113+129813069+129958944+129874795+129678032+129330587+128926792
4457+128989079+129924168+131088272+131195930+129962292+128491962+127834429
4447+127988973+128388494+128565012+128203896+127199021+125912316+125048557
4437+125088149+125933047+127076850+127915194+128039852+127594792+127198142
4427+127154155+127018107+126318944+125263667+124282861+123428134+122699244
4417+122487472+123172749+124515036+125799973+126463744+126324779+125396993
4407+123926224+122520042+121747435+121579361+121587431+121592181+121743349
4397+122125701+122658941+123220972+123597574+123517258+122986300+122462804
4387+122437800+122809557+122867150+122065238+120704904+119602039+119182508
4377+119202079+119242158+119096815+118747668+118381521+118372862+118909337
4367+119672434+120087094+119836945+119042449+118078633+117374589+117250623
4357+117704987+118377678+118909739+119273203+119581327+119772349+119722265
4347+119461288+119048686+118486748+118007641+118193220+119431805+121232374
4337+122379029+122062722+120755577+119621611+119190278+119035491+118726498
4327+118577574+119126037+120163248+120787707+120489719+119772798+119455220
4317+119711193+120142367+120442655+120577235+120584697+120621081+120953013
4307+121547951+122025730+122312758+122818450+123680676+124387377+124414710
4297+123829740+123174003+123038469+123638204+124578408+125137400+124872431
4287+123933489+122882186+122220763+122037652+122134828+122375288+122702741
4277+123014278+123297192+123714826+124341893+124983464+125396871+125572978
4267+125707380+125976296+126377462+126651745+126380716+125489324+124630343
4257+124570712+125244478+125969900+126423983+126755878+127010570+127063777
4247+126894927+126567474+126194538+125998785+126202645+126909626+127988973
4237+128861597+128807567+127849410+126823672+126299989+126026024+125659494
4227+125459411+125913709+126963404+127943256+128370381+128490765+128749722
4217+129090509+129316691+129670532+130365273+131003748+131059190+130544914
4207+129921531+129728985+130243719+131132848+131738464+131869490+131818425
4197+131674906+131296509+130844258+130701048+130908537+131105515+131034906
4187+130875238+130930839+131111743+131012417+130547879+130125205+130067229
4177+130294074+130696569+131374440+132358575+133485480+134619671+135610650
4167+136082145+135764399+134980170+134298997+133853161+133494869+133364722
4157+133735133+134427957+134883452+134838025+134595283+134537560+134685829
4147+134908550+135226989+135660080+136016343+136055897+135732428+135203695
4137+134708308+134453821+134576684+135120388+135939852+136693429+137078689
4127+137056499+136798580+136488118+136175599+135841507+135677295+136100988
4117+137216420+138488537+139265239+139417650+139188448+138723387+138154548
4107+137892430+138307932+139141273+139667022+139528291+139089683+138937973
4097+139262256+139749610+140041052+140200804+140463006+140651989+140427678
4087+139987350+139821968+139934657+139985881+139969508+140116346+140366906
4077+140490180+140538188+140731173+141053866+141291213+141295412+141034482
4067+140616773+140365812+140557208+141038222+141384470+141373530+141157270
4057+141085922+141376419+141926884+142501062+142954201+143150058+142950638
4047+142542749+142436699+142860458+143398887+143479530+143107763+142874699
4037+143185077+143792068+144326046+144847897+145449268+145773027+145504925
4027+145000065+144919273+145447164+146205033+146762613+146942115+146793453
4017+146582925+146575940+146564728+146004080+144870040+143873272+143617953
4007+144075244+144924360+145909532+146870767+147722398+148332026+148428379
3997+147923388+147243815+146986466+147287951+147796879+148180952+148389114
3987+148425770+148176594+147593354+146853365+146218339+145875934+145981937
3977+146696324+148018497+149541950+150532527+150501856+149703656+148926244
3967+148851342+149580027+150596376+151270984+151485972+151517775+151414241
3957+150997224+150354372+149882540+150023011+151053293+152675670+153942905
3947+154295690+154305565+154646146+155011807+154759826+154020332+153419765
3937+153322524+153899470+155228263+156804661+157478961+156720521+155574699
3927+155398610+156183148+156795469+156678227+156622701+157507425+158975660
3917+159664435+158666124+156579265+154745986+153900246+153987865+155022878
3907+157554778+161820005+166597235+169771650+170406582+168979865+166097481
3897+162780425+160854404+161550940+164023657+165572180+164630817+163253753
3887+163914288+165923683+167042341+167381913+168174109+168176447+165998959
3878+163685788+163744025+165936195+168834981+171721199+173582531+173166001
3868+171601188+171059449+171311719+170476808+168182862+166049379+165667653
3858+167987557+173668691+181716315+186417315+182547374+174696401+168652562
3848+165917119+166096583+168410820+172062585+176466168+181066010+184473321
3838+184828490+182400788+179671348+177966402+176583859+174868422+173504731
3828+173256724+174131527+176560426+181274406+186576338+188496244+186909831
3818+185304380+184050189+181117758+177096873+174656472+175330566+178839821
3808+183095603+185877745+188078255+191679543+195047449+194628843+191371354
3798+188690932+186944374+184869335+182696690+181755907+182627474+184895069
3788+187906104+191040310+193656995+195831753+198591752+202183539+205066690
3778+206114861+206591480+208573552+213128771+219946460+227368671+233608189
3768+238604344+243104860+247181739+251548367+257901649+266598250+275732046
3758+283677913+291498682+301535521+315104021+330962165+344715628+353531846
3748+360497692+369237794+378782491+385016081+388283950+393406530+403598128
3738+419206901+437612813+454043313+465169336+471293220+474458639+476601772
3728+479227940+482953446+487300381+491452367+494633870+496251628+497107280
3718+499431074+504984211+514236971+526467195+538954647+547946776+552607755
3708+554949316+557182667+561478246+568821386+577248603+583621635+587356791
3698+590034314+593185146+597778461+604232285+612484751+621334932+627313053
3688+627313539+622950483+618236353+615727709+616197877+619169843+623713373
3678+628685852+631615477+630606544+628632514+629408346+631922564+632358544
3668+630028429+627964106+628346000+631082471+634771471+638147924+641245418
3658+644947584+649797902+655842676+662993036+670909278+678486791+683532730
3648+683870413+679841262+674266954+670121626+668795732+669619142+671393883
3638+674348719+679343864+685915735+692711131+699137874+703725990+702100341
3628+693720214+686575839+686383434+692057086+699941835+706201607+707496755
3618+704247476+701284636+701809488+704560621+707524434+710990432+715334075
3608+718753617+719433022+718190314+717286186+717891831+719300538+720395725
3598+721664840+724339520+727756070+729722021+729982726+730925305+733282052
3588+734164411+731798014+728955240+728701267+731135590+734744845+737624947
3578+737675817+734268992+729569413+726762397+727370959+730286970+733033690
3568+734119825+733843410+732633991+730408009+727633909+725193901+723595332
3558+723566231+726228344+731203964+735725950+737038154+735149705+732150583
3548+729648709+728017823+727201893+727205335+727934412+729130964+730768957
3538+733047305+735396496+735945212+733920836+731525264+731095792+732327803
3528+733332323+732870683+731207630+729499392+728682266+728748845+729329279
3518+730424840+731787765+732005755+729286265+723955382+719114790+718005913
3508+720924467+724836619+726384318+725157469+723859104+725697358+731412379
3498+738116959+741331153+739547135+735960996+734628519+736435278+738809754
3488+738475812+735120231+731744750+731321263+733950310+736990502+738015220
3478+737244250+736391066+736330023+736882180+737699830+737991057+737002696
3468+735815420+736674813+740101162+744199810+746749412+746874864+745016712
3458+741922210+738132294+734593284+733037729+734410005+737342622+739963591
3448+741753144+742519925+741874408+740302844+738507456+735783477+731201720
3438+725757802+721762539+720881976+723409135+728060164+732176092+733813636
3428+733556821+733259086+733708980+734412997+734763547+734005818+731803325
3418+730043545+731679667+737185601+743303836+746047489+744411217+740486198
3408+736827645+734594855+733777654+733935349+734613931+735557557+736278107
3398+736022937+734811573+733912158+734662257+736692318+738002503+737485655
3388+736283867+735733954+735565562+735396346+735905938+737430522+739336850
3378+740728950+740445503+737687562+734002900+732533599+734103667+735978127
3368+736163651+736283268+738246301+740768897+741404689+740511483+740193700
3358+740512531+739447865+736295088+733348780+733153906+735440782+737836953
3348+738713177+738497581+738483891+739053403+739366175+738580543+737174230
3338+736556916+737518645+739825495+742553364+744073534+742816688+739224938
3328+735957405+735151276+736457421+738171120+739159556+739299895+738851198
3318+738006467+737403815+738220493+740810116+743868112+745690581+745727910
3308+744354737+742203787+739952145+737651055+734837756+732135995+731399362
3298+733299258+736209732+738531319+740458819+742154189+742595630+742056565
3288+743235088+747381688+751011365+749654425+744416379+740874002+742212539
3278+746476737+749205802+747856493+744369026+742733875+744402913+747481032
3268+749930915+751135546+750461752+747863001+745510294+745435486+746525886
3258+746036867+743488761+741197771+741045986+742262810+742982312+742900996
3248+743195215+744881085+747932573+750806167+750946133+747528984+742976926
3238+740032863+739038442+739099859+739871727+741400276+743333834+744757952
3228+744629806+742990092+741441195+740746006+739607356+737454535+735947531
3218+736073283+736696657+737128223+738122270+739532249+739838886+738482993
3208+736388224+734392500+732882279+732102781+731848883+731871550+732412111
3198+733402717+734181093+734625526+735344879+736307431+736728899+736566865
3188+736526394+736773634+736788670+736184746+735225934+734538749+734604430
3178+734948771+733729777+729520488+723693928+719507905+718649260+719646225
3168+719949271+718905253+717876720+717883078+718307389+718064936+717087646
3158+715982136+715057211+714528021+714652501+715015543+714943653+714884480
3148+715599194+716315928+715687243+714057554+712914116+712839532+713610951
3138+715154387+716971021+717630751+716097415+713009645+709918061+707551589
3128+705634862+704335450+704627200+706813984+709756326+712123696+713421164
3118+713354884+711464714+707975750+704358565+702373988+702131461+701780088
3108+699815634+696985727+695072666+694840537+695942457+697603191+698686185
3098+698084729+695600510+692048932+688871917+687651502+688732176+690245838
3088+690084178+688963183+689507111+692075938+693692760+691904179+687904277
3078+684575851+683021419+682459612+682233318+682498587+683386481+684381575
3068+684756886+684289113+683310776+682321516+681710112+681467435+681189973
3058+680492240+679150935+677437685+676465408+676886576+677450477+676363744
3048+673834565+671739271+671020667+670860429+670249997+669341231+668905325
3038+668817127+667878438+665565005+663166216+662199623+662575159+663132478
3028+663027522+662144715+660890860+659802256+658993583+658180945+657429201
3018+657213979+657524506+657687737+657340329+656762962+656012265+654694226
3008+652837495+651067466+649818773+649024239+648437072+647865839+647401357
2998+647490079+648147790+648404830+647348992+645301201+643347519+642075711
2988+641233748+640233193+638734493+637071289+636039165+636045075+636589302
2978+636750214+636136041+635267148+635101075+636146515+637787949+638516128
2968+637084530+633630801+629737650+627227622+626572231+626540101+625805188
2958+624598126+624065419+624441291+624764948+624196857+622818484+621182250
2948+619713435+618615929+617960312+617646381+617344906+616585494+615132164
2938+613458151+612502555+612566067+612743025+611843797+609669021+607113547
2928+605232989+604303165+603701261+602768482+601650441+600947023+600830734
2918+600995760+601076889+600599204+599074395+596851367+595360746+595689115
2908+597108482+597686634+596380714+593896980+591381005+589236563+587565729
2898+586671663+586453187+586053601+584790657+582998485+581558097+581001040
2888+581223369+581604104+581285497+579751263+577404578+575456282+574908501
2878+575430436+575586111+574647010+573419788+572687007+572013886+570770841
2868+569250746+568155858+567692086+567457788+566871631+565786805+564730331
2858+564249915+564229006+564119413+563601555+562820412+562020267+561058911
2848+559529128+557395009+555107572+553094903+551584308+550736137+550509095
2838+550525141+550230062+549228871+547685023+546267564+545374658+544659644
2828+543612558+542200298+540762379+539713161+539278453+539139796+538606267
2818+537401785+535878286+534364250+532942339+531933144+531793029+532280813
2808+532433796+531699594+530449143+529126465+527691015+526106397+524550693
2798+523041968+521638198+520889521+521232740+521977078+521677398+519728055
2788+517048474+514961859+513894837+513417301+513071128+512705168+512262230
2778+511717891+511134838+510466019+509452484+508016024+506525926+505305398
2768+504160202+502878332+501817856+501341779+501071348+500350500+499032348
2758+497367723+495676318+494334601+493435598+492468033+490935818+489057580
2748+487401746+486281273+485766072+485679332+485404114+484334698+482702839
2738+481391607+480782073+480255164+479028539+477184638+475547542+474650708
2728+474169694+473460628+472356725+471135899+469988907+468988053+468320954
2718+467986076+467454155+466192745+464346861+462483135+460989035+460024538
2708+459611449+459421250+458825293+457510245+455882015+454616453+453921264
2698+453451395+452830266+451969227+450966203+450005409+449255011+448615853
2688+447757881+446595479+445431955+444482494+443565836+442405977+441006322
2678+439601954+438391414+437447638+436795538+436379120+435959298+435284194
2668+434431235+433758525+433425967+433147794+432527039+431504116+430319646
2658+429121373+427877580+426688360+425846136+425435814+425139501+424618800
2648+423921778+423348675+423023037+422752307+422308809+421690596+420977677
2638+420051369+418701873+417050190+415647655+414984745+414969746+415059141
2628+414852522+414348392+413700032+413044603+412504640+412031667+411344333
2618+410314977+409275297+408664416+408502981+408409059+408047289+407412319
2608+406681596+405958167+405281380+404731954+404313703+403859133+403260670
2598+402626038+402035766+401404238+400716567+400128315+399740474+399491327
2588+399283660+399040759+398669525+398121221+397451466+396767834+396172064
2578+395713193+395350786+395047029+394883723+394948881+395137472+395209025
2568+395016470+394602633+394132503+393753751+393481413+393242476+393005186
2558+392773132+392523872+392268515+392059502+391855838+391532369+391058947
2548+390517338+389982088+389531333+389267673+389196456+389212689+389273246
2538+389403225+389492845+389318729+388870630+388464199+388379105+388486567
2528+388414639+388086158+387889114+388185540+388777420+389050394+388640372
2518+387797250+387041915+386609638+386368420+386184205+386090508+386046484
2508+385844503+385427037+385023823+384833886+384817204+384845444+384810770
2498+384627192+384322275+384024315+383796825+383660674+383684463+383804904
2488+383726767+383256824+382568704+381991973+381708788+381657843+381565157
2478+381159848+380490916+379897166+379604256+379529635+379514860+379531729
2468+379583945+379621611+379653853+379743323+379795651+379587199+379104876
2458+378636504+378458723+378600671+378887596+379077982+379016378+378753354
2448+378473235+378287637+378167496+378037667+377829327+377445563+376800382
2438+375991485+375342003+375110286+375217261+375383334+375396912+375132803
2428+374571744+373953980+373624302+373615774+373687141+373779828+374030097
2418+374332620+374369501+374106626+373821346+373639376+373465597+373338200
2408+373431896+373706778+373881342+373816147+373713548+373811995+373988093
2398+373881566+373439340+373063168+373097094+373408033+373614951+373556900
2388+373357126+373069527+372459918+371258541+369482902+367309285+364748499
2378+361696376+358264678+354869972+351908179+349328841+346665532+343706769
2368+340959937+339124675+338325690+338113834+338007682+338069062+339202849
2358+342475993+347793784+353914975+360049481+366393711+372783649+378101179
2348+381243819+381972448+380962355+379087221+376583402+373337115+369529208
2338+365471704+361371560+357469021+354088566+351478408+349596691+348055275
2328+346484946+344918955+343650139+342940624+342990259+343846024+345192827
2318+346509371+347524139+348356713+349226355+350194892+351244072+352439689
2308+353807738+355093647+355911896+356189657+356245352+356388871+356647706
2298+356908075+357121875+357310055+357479831+357617029+357741584+357924489
2288+358216988+358574307+358899909+359162746+359397493+359578378+359587580
2278+359359117+358981038+358596675+358259740+357934999+357597466+357286378
2268+357061356+356937399+356892739+356904484+356921577+356861133+356714547
2258+356586027+356551690+356572112+356593620+356615725+356623468+356571776
2248+356466858+356403608+356507665+356815462+357201845+357508744+357747531
2238+358048408+358442608+358844027+359179653+359395137+359417429+359240546
2228+358979130+358761664+358632994+358600415+358706605+358984030+359343108
2218+359601868+359699904+359813163+360153875+360715121+361304308+361754165
2208+362020780+362166431+362333776+362666784+363172485+363686639+364032438
2198+364223909+364481921+365001013+365711875+366370745+366870050+367308125
2188+367762583+368187005+368543876+368857807+369142975+369448303+369946449
2178+370786503+371853114+372823671+373490583+373913435+374270754+374736171
2168+375519148+376801990+378521038+380359403+382067267+383689775+385452809
2158+387574360+390185790+393224635+396359458+399228265+401814447+404379796
2148+406990665+409396112+411471805+413464724+415627793+417902626+420138071
2138+422366672+424716836+427257199+430016449+432988005+436073604+439117125
2128+441977702+444572189+446946665+449240386+451394927+452982163+453546476
2118+453042907+451740540+449854147+447519207+444952587+442313216+439534964
2108+436559444+433528566+430510892+427316447+423805527+420130628+416549576
2098+413224553+410221504+407525055+405072404+402801612+400576564+398174933
2088+395549289+392993778+390882139+389314016+388093451+386991158+385968684
2078+385136297+384541275+384078925+383587213+382958079+382223989+381582026
2068+381209894+381041689+380879730+380682686+380543543+380447752+380270868
2058+379968570+379615103+379290063+379007326+378718904+378383466+378068824
2048+377912476+377929906+377993455+378052890+378210772+378550923+379067734
2038+379732813+380442066+380999609+381360594+381741516+382293411+382852936
2028+383201242+383376442+383533239+383644291+383542440+383188113+382701525
2018+382126403+381352927+380342235+379257596+378275369+377418183+376639059
2008+375915817+375204768+374439409+373625948+372856250+372196482+371594765
1998+370968922+370456937+370423910+370953961+371472978+371275448+370341584
1988+369224927+368369948+367892786+367705467+367573992+367283551+366869265
1978+366522306+366304652+366118082+365894518+365711052+365726911+365969401
1968+366169026+365980024+365442941+364977711+364835688+364838231+364732565
1958+364526395+364325162+364070366+363630458+363051146+362580605+362451561
1948+362736579+363443738+364516969+365516140+365650009+364639355+363191636
1938+362165496+361769613+361727795+361725439+361591383+361336737+361110518
1928+361132961+361663236+362720084+363805434+364446238+364908551+365545801
1918+365817317+365057269+363798739+363127002+363291990+363677887+363627840
1908+363013368+362221265+361707410+361549790+361489270+361358394+361333446
1898+361698957+362369946+362875685+363083276+363483162+364218411+364485924
1888+363679196+362423733+361644347+361490430+361592169+361621456+361428227
1878+361082727+360818618+360853778+361518633+363350079+366372204+369173534
1868+369662515+367572384+364826823+363094161+362525172+362455040+362369946
1858+362184385+362036827+362037350+362175072+362455788+363026535+364141433
1848+366124777+369014866+371691379+372089021+369838015+367123873+365759902
1838+365655320+365800971+365849297+366678505+369155917+372436690+374326561
1828+374137185+373328736+372708991+371689322+370206069+369195378+369156665
1818+369616696+369984750+370386693+371420500+373156753+374681337+375023546
1808+374385472+373903560+374542756+376524902+379256249+381558386+382547571
1798+382654396+383390431+385958360+389879526+392589853+391906932+389307209
1788+387845239+388577533+390571350+392768793+394940016+396937124+398366291
1778+399509692+401600908+405739316+411548596+416518905+418039374+416568727
1768+414278297+412730448+413030839+415537500+418881673+421044892+422050347
1758+423244879+424761721+426344917+429058946+433931519+439679455+443306327
1748+443709317+442678951+442289539+443447677+445938966+448622062+450385470
1738+452052675+455885419+462169803+467003026+466752457+463848491+461579007
1728+460648547+461162552+463168600+466160652+470079312+476086795+484959718
1718+494620106+500270942+499994003+497017361+494731158+494617525+497155868
1708+502181011+508433414+514096556+519227702+525889380+534510312+541824090
1698+545409069+546332535+545028148+542418101+541605875+544463872+550317549
1688+558164969+568550768+580980431+589651036+590047331+587208372+586894179
1678+590694119+597631950+605188516+611489807+617567010+624628760+630582156
1668+632787642+633406976+636379541+642297740+648470511+652610976+655822179
1658+660812611+669701730+683452761+698788372+705966411+704903541+705817543
1648+711272383+716253838+715913238+713006952+712337796+715258669+721456425
1638+730303427+739235336+742656300+738697991+732917738+729822188+729694342
1628+730790651+731754924+732530981+732725407+731207630+728650772+727235557
1618+727001558+724798541+718816830+712121153+707684523+705284387+703040675
1608+699667065+695648387+692240814+689867011+687930984+685848109+683845053
1598+682600550+682263466+682165243+681590793+680458127+679011792+677347916
1588+675603920+674250870+673708888+673748311+673915956+674779912+677808508
1578+683180984+687712620+687519840+684902612+685094943+689037317+693405049
1568+695306141+696168975+698530135+703335269+711638193+725388252+742987698
1558+753609517+752841390+750702783+753240340+760298985+769527732+778528239
1548+786458471+794543106+804308898+815793027+827881004+837571315+839088119
1538+833120023+827870905+826880299+828077001+828615692+829086383+831994614
1528+837624129+843682968+848300184+852135882+856181715+860077409+863814586
1518+867510543+869480159+868608647+867215351+868451850+873417296+881890932
1508+892133849+897747281+893433636+885724386+881656709+881897890+884732659
1498+888077243+889827223+889606765+889731395+892305907+896704235+899851402
1488+899239249+895794946+892433454+891351434+892864423+895673682+898646247
1478+902102296+906650688+911532425+914593039+913839200+909931611+906070404
1468+904651299+905773117+907632691+908445030+909275472+912905373+920297886
1458+928480819+931063934+926143746+919087570+914152196+912446053+913028806
1448+913560316+912688954+911524944+911454550+912450990+914099756+916295965
1438+918183442+917962684+915717999+914322459+915391613+917658440+919049642
1428+919140010+918966007+919121682+919775129+921670311+925215231+928642254
1418+928920315+925856858+922082652+919321195+917613256+916288708+915073305
1408+914543516+915016376+915514073+914982862+913983579+913718011+914228724
1398+914558777+914100803+912962751+911346527+909416933+907441033+905204802
1388+901649932+896437171+891828184+890810423+893693817+898186029+902266948
1378+905891762+909668811+913208869+915755403+917601736+919631872+921961314
1368+924123336+926197009+928686166+931219908+932377410+931569934+930333136
1358+930594515+932384517+933864067+933621615+932547523+932669984+934696903
1348+937369937+938948982+938892202+938072757+937880950+939098448+941207805
1338+943050397+944391927+945830108+947279360+948092672+948454966+949210451
1328+950531632+951845557+952819107+953716128+955037758+956909975+958522683
1318+958669231+957199257+955214679+953784502+953220601+953293015+953430736
1308+953074202+952436540+952435642+953420038+954582627+954964447+954383190
1298+953198458+951872788+950919062+950752689+951197123+951225924+949662140
1288+946525372+943117874+940253257+937379288+933957577+930482378+927538464
1278+924966271+922412106+919957660+918021782+916924949+916568265+916571632
1268+916545075+915783157+913350779+909512837+906143940+904506171+903545713
1258+901333046+897411319+892950900+889312545+887150897+886464760+886884507
1248+887789457+888445298+888418965+887931293+887706869+888422407+890138798
1238+892258180+894214106+895931470+897402791+898362501+898773720+899299245
1228+900736753+902994529+905150716+906622860+907635983+908336483+908347106
1218+907635758+907000864+907374604+909180765+912118619+915263766+917935155
1208+920236693+922092901+922858035+922795870+923397325+925411228+928103637
1198+930760588+933344751+935691025+937691387+940079478+943528270+947290507
1188+950099542+952043050+954108570+956425220+958437925+960100455+961511182
1178+962359129+962910538+964050983+965716730+967042924+968103699+969506047
1168+970827827+971418884+971754024+972389516+973053586+973918813+976129311
1158+980219730+985017083+988618857+990091599+989946921+989194130+988447173
1148+988282222+989432841+991595686+993438952+994752204+996908765+1000481513
1138+1004177994+1006713607+1007871857+1007489364+1005583784+1003482580
1130+1003182152+1005746416+1010694058+1016443790+1020854836+1022180356
1121+1020834114+1019426978+1020049155+1022340894+1024621785+1025788713
1113+1025861501+1025704629+1026253420+1027520590+1028756790+1029652240
1104+1030671273+1032180222+1033794950+1034564722+1034226292+1034043760
1095+1035447530+1038336310+1041528885+1044170351+1045873127+1046524779
1087+1046393042+1045632994+1044185163+1042947691+1044009738+1048059911
1078+1052297851+1053313742+1051809056+1051406665+1053330798+1055668543
1070+1057176296+1058328262+1059225208+1059699340+1060360941+1061243599
1061+1061187942+1060050788+1059200970+1059308170+1060271321+1062535680
1053+1065884230+1068213148+1068213447+1068119638+1070563611+1073741823
1044+1073414838+1069437753+1065970109+1065519242+1066739358+1067455419
1035+1066919870+1065520290+1064570753+1065555225+1068087246+1069940910
1027+1069853385+1068816922+1067838286+1066481945+1064325010+1061931008
1018+1059755746+1057365560+1055008888+1054750426+1058013396+1062708113
1010+1064861681+1063723255+1062447557+1062878076+1063305977+1061680926
1001+1058245899+1054846405+1052977705+1052817466+1053265042+1052666728
993+1050541886+1048083475+1046093885+1043920044+1041370741+1039876679
984+1040518082+1042176422+1042862635+1041996584+1040059659+1036925434
975+1031937246+1025567207+1019993348+1017255605+1016847977+1015597863
967+1010892523+1004007357+998587678+996157170+994925309+992683093+989007035
957+984368649+979190897+974314323+970779576+969076201+969126996+970147974
947+970459025+968686378+965307531+962208541+960820855+960913317+960857286
937+959374520+957180106+956003229+956167806+956436441+956173043+955950265
927+955805362+954931232+953615586+953452281+954977164+956924039+958048700
917+958165400+957371764+955723821+953865444+952739137+952518454+952573513
907+952437063+952125788+951311280+949392757+946807547+945034751+945099160
897+946838967+949218979+950689477+950135824+948060803+945841479+944082746
887+942604842+941142797+939318383+936950340+934788543+933841774+933907007
877+933720286+932696092+931840514+932441670+934178036+935366284+935350798
867+935017903+934466270+932721078+930209105+928932060+929463644+929978846
857+929179075+928282877+928870792+930519931+931829443+932337687+932428504
847+932426634+932614402+933478956+934962246+935986366+935375934+933228799
837+931247512+931109268+932387958+933162968+933091975+934061485+937081329
827+940625501+942771813+943243551+943083911+943785011+945987578+948163365
817+948116386+946191355+944735818+944513864+944262360+943312973+942317280
807+941896711+942164448+942684437+942439591+941104944+940020305+940408184
797+941178256+940053146+936911590+934600775+935736208+939648510+943331675
787+944916031+945104023+945417542+946309103+947353271+948116086+948506509
777+948715073+948635702+947693946+945768242+944013848+944029109+945984436
767+948207801+949143647+948764970+947401971+944950143+941860878+939484382
757+938524297+938157215+937547681+937052602+937568403+939354964+941252839
747+941419287+939611929+938208085+939812489+944294677+949218530+952529226
737+953654860+953348223+953303563+954247339+954493681+952543365+949822005
727+948325848+948258371+949630646+952827336+955935602+955154309+950005733
717+944600940+942721392+944432622+947236346+949367697+950780892+951001201
707+949160554+946378674+944884536+944712553+943976968+941934114+939382792
697+936616323+933178752+929053697+924685442+920441891+916729476+914514864
687+914743253+916174402+915192998+909872887+903622391+901635420+904261550
677+907100283+906602063+902310860+894339035+882493360+868765370+860357714
667+864366668+875293104+883359785+886072617+885582625+884026547+882259735
657+881770567+884623664+890328137+894871218+894260936+887951716+878507597
647+869580252+863983801+862276312+862631649+862229257+859465556+855216619
637+851622625+850008945+850270623+851281277+851509141+850365105+849288695
627+849318618+847825228+841684401+833346990+828216817+827873823+830123071
617+833247944+836928790+839624791+838851128+835114251+833008485+835750866
607+840848124+843539037+842738444+840537821+837205579+831509260
##END=
