##TITLE=<SNM>
##JCAMP-DX=4.24
##DATA TYPE=INFRARED SPECTRUM
##DATE=2/5/2025
##SAMPLING PROCEDURE=Instrument type and / or accessory
##ORIGIN=Admin
##XUNITS=1/CM
##YUNITS=ABSORBANCE
##RESOLUTION=4
##FIRSTX=4497.3318
##LASTX=599.83466
##DELTAX=-1.4281778
##MAXY=1.748194
##MINY=0.18946111
##XFACTOR=1
##YFACTOR=1.6281325e-09
##NPOINTS=2730
##FIRSTY=0.21346034
##XYDATA=(X++(Y..Y))
4497+131107473+130947381+130399927+129692061+129084915+128651188+128219345
4487+127529079+126502163+125579117+125552291+126670648+128157412+129044142
4477+129224250+129239086+129346278+129407635+129470502+129678488+129623995
4467+128647481+127047915+126195012+126959998+128587735+129577364+129347467
4457+128596521+128201059+128225972+128125177+127642842+127183753+127262545
4447+127837283+128353591+128354800+127922765+127516229+127428971+127465406
4437+127205554+126534562+125771937+125302607+125258869+125562441+126054780
4427+126478102+126507481+126003701+125172599+124367755+123873137+123885831
4417+124458655+125372147+126191818+126532311+126273493+125570239+124697119
4407+123895249+123394124+123415256+123912245+124448286+124582623+124226406
4397+123538831+122805548+122418753+122575029+123046977+123523418+123912373
4387+124090696+123807121+123071413+122222006+121472826+120744843+119957516
4377+119219703+118711083+118520403+118622644+118928276+119279926+119485184
4367+119483940+119394970+119326749+119311904+119370149+119378450+119073129
4357+118482028+118091591+118357209+119282534+120467501+121317411+121403013
4347+120852978+120170609+119669338+119392554+119387950+119639904+119919406
4337+120001713+119867522+119580258+119150686+118571208+117888117+117251830
4327+116835767+116626920+116468549+116367132+116551972+117114912+117769420
4317+118155346+118249990+118296209+118387713+118314541+117913990+117466864
4307+117476400+118037290+118746172+119262820+119643940+120050385+120394685
4297+120421447+120060086+119626587+119624272+120262480+121144817+121534760
4287+121061174+120109197+119354325+119066100+119062650+119169201+119452785
4277+119999571+120623246+120920412+120716517+120393761+120490803+120957964
4267+121180978+120852172+120428887+120504943+121043574+121509234+121547546
4257+121308295+121240459+121676593+122485300+123200598+123654214+124100617
4247+124532084+124529009+124029357+123499695+123202465+123004638+122873879
4237+122928976+123122895+123300029+123378976+123303360+123107803+123091686
4227+123602201+124541008+125270464+125196294+124460376+123848956+123892338
4217+124280689+124420701+124286720+124318900+124694455+125158312+125448349
4207+125524825+125480153+125446848+125508891+125647915+125814843+125946133
4197+125946792+125829652+125775379+125914265+126208438+126568105+126839059
4187+126833330+126675736+126766445+127078914+127034552+126453757+126025374
4177+126413578+127402493+128289077+128784363+129175523+129782669+130537926
4167+131131123+131423539+131527042+131492767+131188243+130627499+130171358
4157+130107914+130201377+130049550+129809357+130029589+130717668+131175420
4147+130943126+130366018+130030678+130117048+130446696+130805255+131060303
4137+131119765+130887800+130319945+129556048+128934186+128816680+129349087
4127+130267027+130937488+130818544+129991021+129067196+128542632+128462916
4117+128698240+129207703+129905932+130499285+130640267+130254433+129690505
4107+129474767+129796635+130315067+130619665+130707500+130799462+130918607
4097+130922679+130857680+131061648+131805428+132842750+133508992+133440029
4087+133031910+133011281+133671830+134578567+134928111+134333550+133334375
4077+132862052+133167135+133651576+133812427+133845723+134107452+134477305
4067+134583701+134301243+133768734+133185028+132726928+132462682+132306956
4057+132178604+132071897+131928307+131705842+131569271+131700012+131993773
4047+132245654+132449412+132567330+132262201+131344253+130313493+129943172
4037+130359776+130969356+131302454+131535847+132104818+133097257+134147118
4027+134809891+134965398+134825807+134567767+134120512+133425267+132722672
4017+132366116+132414962+132608396+132715533+132722461+132680489+132617512
4007+132624550+132770209+132985444+133317187+134054963+135183387+136046166
3997+136095414+135646704+135366635+135354197+135220948+134800162+134423957
3987+134610142+135509896+136600246+137123584+136898584+136413475+136142292
3977+136182983+136523769+137163753+137863072+138127390+137671340+136810941
3967+136268768+136548490+137467546+138325949+138650929+138657025+138721704
3957+138765489+138614219+138552231+139021945+140118226+141529100+142615185
3947+142878799+142696613+142858069+143318292+143297645+142553270+141659245
3937+141310003+142110445+144268988+146842460+148068905+147269515+145809137
3927+145456371+146417262+147319258+147151789+146741812+147488704+149345065
3917+150686298+150018958+147551754+144795044+143048437+142778389+144213946
3907+147824749+153567983+159862150+164278044+165648473+164186832+160229999
3897+155059113+151410978+151366388+154236724+156671346+156345304+155461576
3887+157016186+160049424+161568889+161885156+163076621+163704616+161388424
3878+158402522+158491647+161764694+166041327+170009857+172370675+171324841
3868+168336614+167037097+167848888+167738713+164980923+161611905+160568085
3858+163626052+171656813+183295668+190639128+185706641+174219678+164370318
3848+159046771+158563548+161962493+167426436+173436771+179245500+183515269
3838+184145643+181281979+177678736+174793198+172022777+169286440+167863093
3828+168375914+170131710+173194437+178593380+184783961+187118219+185101161
3818+182865254+180983248+176962220+171570947+168257538+168962833+173309335
3808+178691731+182213189+184768182+188887688+192979189+193141825+190408673
3798+188262440+186522294+183732288+180909626+179993627+181392868+184555959
3788+189065829+194256978+198983868+203161180+208373801+215320233+222036779
3778+226778898+231165962+238011573+248541078+262263326+277031280+289740936
3768+299170242+306384196+312261256+317729134+324419687+332616965+340460268
3758+346972754+354347057+365767044+382745992+403477129+422088922+434579837
3748+445182450+459336120+475571975+485717815+488125200+490823225+499499242
3738+514292145+530616631+541636918+544483321+542870026+542184189+545165973
3728+551755338+559457659+564331187+564389945+560905590+555802779+550286173
3718+545670411+543792505+546112980+551853963+556666609+555877974+550165766
3708+543475103+539066585+539170299+543485939+548168111+549959473+550489537
3698+552749570+556948171+561959203+568216705+577114793+587091279+592238424
3688+589333447+582979552+578520001+577316364+578276843+580106571+583364791
3678+589979562+598398656+602032120+599799763+597175066+594607333+587280768
3668+574819616+562668030+554831573+551765735+551720046+553115516+555797397
3658+559478050+562890395+566170250+571373371+578883055+585530372+586468263
3648+580859073+573423816+567892201+564824459+563150613+561761220+560871104
3638+561663876+564561312+568744573+574028381+582180336+593919775+603513585
3628+602630863+594643576+588912843+589189023+595024641+603782955+610450810
3618+611555347+610049720+610784869+614507550+618746530+621836714+623615995
3608+623589343+622025398+621378879+623766824+628334409+632288204+634585066
3598+636645285+639553521+642671235+644520585+644924824+645698523+648376414
3588+651638953+652809423+652011196+651194810+650794232+650210755+649709868
3578+650194793+651769063+653296033+653835726+654668658+658168572+663785303
3568+666929229+664546336+659529410+655612371+653143372+651049984+648923209
3558+647004740+645832513+645771083+646437663+647451592+649353440+652105721
3548+653527549+651283112+645969212+640434412+636835434+635833000+637256074
3538+640167750+642770592+643527304+642804419+642288961+642564629+642544567
3528+641573910+640631443+640626171+641124788+641456687+641377026+640167824
3518+637276428+634133528+633056338+634252654+635651931+635851964+635495829
3508+635604998+636432659+637506920+637151371+633601962+628111898+624363262
3498+624097918+625601092+626776101+627672075+628971190+630156230+630316432
3488+629812396+630074591+631671631+633254687+632877392+629926983+625386416
3478+621091204+618827290+619017731+620334491+621582573+623130264+625430127
3468+627547677+628176184+626861547+623980476+620879529+619284979+619197995
3458+618746970+616924124+614923431+614210796+614794639+615637017+615628231
3448+614153649+611516761+608953091+607674953+607787563+608350101+608590367
3438+608739696+609284294+610005825+610201428+609344260+607528626+605632709
3428+604582098+604185144+603407162+601957840+600630500+599929653+599464313
3418+599082845+599518239+601151009+602800364+602743327+600904410+599068018
3408+598769910+599670533+600061336+598746077+596247206+594038645+593040385
3398+593275453+594477516+596091433+596975216+596344842+594873335+593577040
3388+592075586+589702760+587570750+587338794+588482685+588828789+587665018
3378+586539468+586899410+588256184+589049908+588780391+588513181+589362880
3368+591190998+592698602+592482315+590455080+588162647+586910832+586114545
3358+584557043+582580731+581725430+582727168+584837140+586654055+587124227
3348+586183480+584746166+584105908+585027178+586776513+587422885+586088919
3338+584171328+583465430+584191317+585388035+586139000+586027415+585174311
3328+583935565+582447291+580956967+580144388+580268311+580717506+580964911
3318+581153192+581487361+581987003+582922954+584602036+586591307+587695477
3308+587080589+585441705+584533247+585233288+586558468+586846693+585560977
3298+583670221+582533506+582696600+583581883+584314324+584505351+584185643
3288+583744575+583763575+584290931+584693083+584579008+584270576+584187327
3278+584456258+585090769+585765293+585714553+584795625+584049566+584207352
3268+584508792+584083320+583494021+583584922+583812851+583224907+582439164
3258+583058591+585153810+586635824+585716603+583042776+580456336+578892244
3248+578484966+579165788+580110562+579990374+578596331+577160848+576897994
3238+578129198+580397724+582572494+583431420+582826635+581763687+581155645
3228+580988194+580575645+579168460+576487055+573163708+570557278+569652043
3218+570178996+571125490+571930160+572760457+573758534+574415560+573947621
3208+572472965+571081083+570314376+569599728+568589607+567802143+567391863
3198+566604289+564878678+562514382+560215177+558597379+557880424+557740760
3188+557787766+558051609+558662873+559406296+559749361+559099291+557231599
3178+554650284+552195929+550316486+549133056+548780583+549084513+549310099
3168+548845564+547948822+547384161+547442809+547640645+547236516+545746631
3158+543348765+541152249+540355120+540673034+540451292+538787916+536512288
3148+534761416+533752100+533162728+532765115+532399499+531878477+531175690
3138+530514747+530078658+529581835+528460019+526710062+525094241+524261272
3128+524055894+523887858+523432952+522818540+522396618+522389882+522605291
3118+522575747+521971366+520686419+518717320+516381652+514507883+513824535
3108+514135604+514518133+514383595+513976427+513744691+513656316+513339829
3098+512545629+511309336+509946851+508935925+508569503+508750389+509216388
3088+509665326+509642995+508844219+507513950+506148536+505092836+504663447
3078+505060474+505908196+506514811+506578291+506081102+504889802+503049932
3068+501088265+499629644+498959878+498893579+498823839+498219603+497204027
3058+496293886+495727029+495403879+495170935+494793128+493968066+492678214
3048+491366506+490576516+490354298+490106527+489292814+488192451+487557025
3038+487558233+487610108+487224540+486538923+485923046+485417033+484653255
3028+483308416+481605356+480168261+479248821+478438476+477424767+476580668
3018+476386493+476659927+476826646+476615447+476023916+474982127+473594236
3008+472380970+471758467+471492720+471000839+469999870+468744614+467868116
2998+467810456+468116692+467698835+466167765+464422713+463541127+463654103
2988+464113878+464207268+463600031+462507686+461447336+460596099+459608163
2978+458292574+457064189+456359791+456011308+455621310+455193422+454897143
2968+454521862+453685269+452379491+450915306+449542863+448413982+447681212
2958+447420042+447569151+447972731+448382205+448465820+447912399+446646929
2948+445007531+443531045+442453014+441571245+440630351+439676096+439041841
2938+439081159+439778052+440555193+440708219+440084325+439168363+438562041
2928+438391112+438095383+436976423+435093574+433312903+432352094+432099893
2918+431934785+431478598+430918587+430547187+430196434+429479259+428422059
2908+427396378+426597236+426035980+425778141+425772430+425736883+425438408
2898+424758758+423587336+422105030+420904650+420396624+420382054+420448316
2888+420396514+420126082+419543703+418749539+417996561+417390276+416837404
2878+416270693+415729719+415172453+414409627+413391086+412365625+411574720
2868+410995672+410488049+409932248+409239748+408505184+407985223+407695205
2858+407378572+407047552+406985646+407027417+406550984+405415770+404211583
2848+403407205+402880801+402359193+401761914+401084095+400394414+399896711
2838+399636493+399290060+398587456+397755292+397233318+397075057+396850642
2828+396134163+394972663+393791796+392882497+392153827+391427134+390752390
2818+390274200+389921947+389455948+388792882+388076476+387433069+386879502
2808+386435322+386069486+385566000+384701803+383549784+382427639+381591155
2798+381069620+380702210+380263925+379619200+378789086+377883228+377013686
2788+376270445+375691434+375197576+374638480+373989289+373393730+372889292
2778+372234024+371170233+369797278+368568380+367897846+367767774+367754850
2768+367480721+366935939+366325993+365803836+365389237+364963288+364374173
2758+363612701+362752714+361804463+360817698+359912389+359026666+358001169
2748+357051160+356637402+356701359+356566124+355802090+354722777+353828524
2738+353178491+352524028+351740225+350917836+350211790+349707865+349358064
2728+349047654+348708177+348275346+347671770+346983297+346405238+345869792
2718+345079875+344026408+343065124+342407549+341905930+341364113+340777707
2708+340250900+339820486+339399736+338901302+338370944+337903554+337459228
2698+336876300+336075034+335165698+334330349+333649381+333091164+332627215
2688+332242819+331849014+331348968+330799537+330331781+329929190+329468097
2678+328941876+328442929+327958223+327391183+326769522+326237883+325847995
2668+325519098+325196681+324908054+324682907+324498287+324250076+323797843
2658+323153924+322529480+322040674+321544473+320946059+320434921+320214460
2648+320189163+320062825+319619561+318884265+318060081+317276388+316499541
2638+315780755+315325776+315154152+315002114+314718503+314430864+314237165
2628+314050531+313748468+313232462+312451038+311555687+310880027+310604653
2618+310551899+310402313+310009716+309451792+308900311+308512509+308318810
2608+308155570+307841646+307434295+307144899+307036188+306963336+306749977
2598+306322894+305768210+305247737+304759846+304141260+303433824+302973280
2588+302929678+303046718+303027223+302925523+302961675+303125666+303156674
2578+302834677+302151440+301259474+300397968+299809567+299582150+299581528
2568+299573749+299369597+298922599+298409173+298143024+298281114+298645321
2558+298895709+298849911+298601426+298352337+298189902+298068579+297928714
2548+297714733+297334876+296759214+296145662+295742741+295637288+295657844
2538+295559805+295275846+294934410+294669927+294518401+294478186+294532203
2528+294590338+294532459+294345661+294136695+293983211+293862639+293746478
2518+293639890+293501013+293270338+293020627+292921123+293015392+293158918
2508+293180920+293025514+292757095+292470281+292179475+291821510+291376159
2498+290925171+290586792+290419579+290356977+290235160+289952006+289582436
2488+289275761+289083892+288934398+288724316+288428404+288140967+287977470
2478+287927224+287861694+287682620+287407483+287120467+286867699+286598273
2468+286232602+285798618+285434192+285236667+285179593+285166176+285079595
2458+284831622+284467434+284154663+283981300+283855200+283668713+283446001
2448+283271466+283180694+283173152+283242215+283323305+283261746+282935851
2438+282429802+282008723+281894740+282093711+282384059+282440016+282097244
2428+281560992+281215255+281212235+281397331+281575142+281662436+281637615
2418+281505346+281296582+281066255+280939368+281080222+281473295+281817238
2408+281830107+281594142+281396635+281317816+281221350+281089100+281081302
2398+281251205+281427570+281457571+281432714+281576075+281970594+282503551
2388+283052635+283603512+284198960+284903395+285819668+287059531+288716811
2378+290892021+293646882+296888536+300390518+303968245+307540096+310953392
2368+313877223+316044049+317504939+318421854+318784761+318643705+318315467
2358+317936891+317171869+315834681+314587881+314543620+316122319+318804603
2348+321964014+325453604+329320672+333007182+335298919+335459816+333877713
2338+331404651+328494805+325199500+321724773+318593954+316200919+314400771
2328+312654073+310481572+307761874+304758180+301925744+299597746+297785151
2318+296232353+294648162+292946017+291284307+289837108+288593695+287456869
2308+286408363+285453704+284514093+283507284+282474337+281529765+280737633
2298+280098711+279593009+279179106+278800273+278419153+278024396+277635277
2288+277314379+277115188+277002944+276872323+276634985+276278961+275890006
2278+275606358+275490288+275447547+275323643+275074719+274796562+274563050
2268+274319800+274034066+273848786+273917520+274144662+274266241+274168623
2258+273989732+273905476+273929565+273963813+273951878+273880435+273704235
2248+273417365+273167416+273164871+273454725+273843332+274100694+274222457
2238+274401018+274723179+275062565+275339202+275680986+276216505+276873018
2228+277480932+277980996+278476410+279128658+279997523+280949692+281766681
2218+282395133+283046795+283982838+285234049+286605558+287933283+289250793
2208+290687998+292283574+293971002+295707011+297496249+299300882+301057007
2198+302772460+304502465+306262086+308020811+309736941+311376082+312918318
2188+314345931+315656101+316871271+317953000+318780587+319331885+319758309
2178+320209555+320734787+321310101+321785069+321931505+321698524+321269025
2168+320793325+320204978+319337596+318152373+316779601+315321749+313737852
2158+311960987+309981015+307831432+305609253+303390204+301131434+298830270
2148+296583124+294428800+292668062+292261407+294062891+297726063+302138498
2138+306692391+311394899+316168410+320830959+325449577+330212399+335146259
2128+340118631+345004679+349862429+354925812+360350345+366088802+372033808
2118+378073852+384074138+390038840+396178717+402730960+410065688+419067820
2108+430988620+446843337+467141606+491774516+519639542+548692574+576732849
2098+601904427+622995102+640206995+654770286+667168287+676858452+683301161
2088+685943613+684190838+677999268+667473462+652566777+633635057+611136025
2078+585536522+558234252+531065020+505023718+480621630+458482173+438881749
2068+421748895+407104992+394722293+383973499+374540953+366484145+359623872
2058+353667956+348587916+344386240+341025844+338616995+337140728+336292163
2048+335943424+336362343+337981203+341292835+346754966+354765171+366079686
2038+381929461+403213286+429765726+460401485+493168887+525749034+556252120
2028+583497133+606674680+625653297+641295460+654715372+666517595+676526553
2018+683851470+687917875+689336408+688819047+685941929+679870804+670632690
2008+659033721+645714192+630764748+614128425+595969342+576597871+556340275
1998+535662441+515343378+496205584+478448104+461549659+445150198+429643781
1988+415603234+403163351+392147677+382339154+373547343+365647478+358548147
1978+352131431+346330848+341150059+336542314+332505746+329244671+326852515
1968+324856288+322490455+319513028+316391544+313650246+311429312+309684919
1958+308390161+307388021+306365636+305164066+303955084+303034143+302523462
1948+302352754+302544366+303237928+304067749+303943058+302275527+299949945
1938+298220562+297396050+297054577+296815720+296575290+296381975+296301819
1928+296432623+297043796+298266397+299563022+300311937+300873467+301810242
1918+302385043+301460130+299574902+298371813+298555555+299480688+300097663
1908+299896184+299153072+298435605+298008265+297823444+297864629+298269820
1898+299149155+300285651+301180691+301767848+302681175+304116750+305042139
1888+304521813+303144208+302044376+301550426+301431080+301521432+301730251
1878+301970407+302231486+302631075+303668452+306228168+310492958+314565952
1868+315388598+312399822+308314014+305632847+304754043+304862846+305171919
1858+305327252+305322053+305300454+305378834+305725157+306648771+308455143
1848+311416096+315503001+319275837+319940989+316882180+313069258+311072299
1838+310874975+311205117+311590136+313023240+316469045+320837842+323397558
1828+323253940+322123997+320891987+318909452+316441295+314858533+314654766
1818+315088805+315502233+316182871+317787855+320144390+321958267+322142155
1808+321163225+320467540+321200786+323707821+327286225+330212802+331069786
1798+330479134+330690698+333435437+338117169+341275226+339758323+335359837
1788+332266908+332108207+333762101+335757632+337635136+339088265+339625652
1778+339860463+341722627+346719199+353964088+359430209+359485159+355510717
1768+350949100+347718301+347009327+349271300+352749065+354692099+354998152
1758+355382695+356041075+356801741+359263893+364824613+371717029+375868659
1748+375729911+373586368+372015394+372085976+373637584+375496271+376416846
1738+377426491+381412502+388773150+394174875+392387943+386654721+381589398
1728+378259460+376859817+377470825+379479609+382937166+389500977+400178712
1718+411781928+417134158+413806637+407158771+402134047+400542168+402838994
1708+408615597+415804145+421637750+426435496+433480097+443395628+451214550
1698+453311086+451472388+446733216+440708366+437445204+438796999+443413383
1688+450252570+460583139+473758904+481757540+478806911+471970873+468567498
1678+470402535+476218201+482757045+487589387+492238391+498380281+503139881
1668+503038108+501242682+503120369+509224735+515292565+517676410+518303562
1658+521652793+530607332+545530124+560919904+564681574+559290501+557910298
1648+562378964+565241109+560196433+551719680+546582676+546815877+552356131
1638+562367652+572876106+575916281+569722735+562758858+560997186+564267414
1628+569620961+574846597+579742785+583535463+584569637+584378353+586977058
1618+593367379+599185973+599808989+597641065+597198459+599350861+602374526
1608+604433171+605179999+605626668+606738453+608366355+609750183+610872255
1598+612491371+614764766+616805803+617957016+618654788+619548492+620588779
1588+621454221+622265774+623410617+624916939+626541729+628784849+633195526
1578+640481272+647547069+649212056+647055554+647420328+651962506+656749453
1568+658194125+658210307+660075985+665097817+674862372+691989405+714187252
1558+727187988+726022424+723735959+726816917+734428192+744324540+754336133
1548+763354153+772550533+783650519+796435553+808951656+816642153+812719915
1538+800959060+792957898+791970181+793253188+790742308+784954026+781307822
1528+782450762+787193851+793663138+801034768+807237320+808871482+806707804
1518+804411675+802170971+798655243+795337130+795209730+800159808+810536322
1508+823298512+828292448+818978845+806266444+799782587+800021425+804158998
1498+808263257+808805732+806227199+804835756+807476525+812736316+816085546
1488+814397789+809436508+804870535+802680425+802611746+803453319+805195624
1478+809389722+816946375+826357285+833538914+833698750+826983522+819709419
1468+816826297+818262769+820427399+820385225+820140456+823937490+832965174
1458+842477052+843113320+833937368+824282788+819341203+819015162+821280466
1448+823204427+822841044+820989863+819562543+819508727+821374186+825982480
1438+832783885+837782141+836990284+832768949+829836185+829122598+828552520
1428+827023719+825753233+825496749+825526549+825836336+827355545+828942115
1418+827306342+822198186+816828054+813123715+811009387+810012005+810042830
1408+811253277+813164571+814167956+813314668+812277603+813279670+815980405
1398+818044505+818212908+817045879+815296984+813730403+813460080+814760147
1388+816029827+815233064+812958095+812062634+814173154+818569701+823796178
1378+829227374+834964916+840513554+844371872+845904919+846515854+847635436
1368+849318142+851489727+854563070+857860023+859237993+857736869+855060663
1358+853151346+852071082+850784707+849012602+847552993+846859028+846349501
1348+845415600+844313663+843906203+845104788+848289423+852605942+856150226
1338+857508355+856875088+855471784+854574492+854919058+856263568+857728449
1328+858850668+859857494+860986010+862395025+864644588+868276075+872793651
1318+876799285+879421456+881060670+882536900+884075878+885258135+885671014
1308+885551522+885772422+886979940+888830096+890522906+891960330+893693776
1298+895743599+897234912+897397383+896226767+893915847+890503210+886516833
1288+883146956+881173500+880128087+878835489+876507509+873199794+869626735
1278+866807021+865606385+866208167+867915255+869615972+870538231+870617893
1268+870467868+871135035+873371272+876722552+879720041+881320888+881721173
1258+881443163+880309376+877827857+874313007+871231683+870091160+870994089
1248+872598231+873469311+873159158+872118944+871098718+870635392+870766746
1238+871187020+871701745+872448646+873689552+875477985+877647374+880040957
1228+882546711+884895778+886622854+887445682+887707877+888264630+889754113
1218+892008727+894350985+896375181+898131105+899798362+901698233+904218338
1208+907241673+910009329+911903270+913047601+914106119+915880495+918794881
1198+922286594+925202371+927169018+928870760+930963269+933610555+936743278
1188+939840124+942123953+943717406+945547720+947779344+949740060+951401313
1178+953368691+955531930+957152473+958119103+959020055+960128875+961132480
1168+961841234+962653007+964083402+966078457+968077320+969735937+971366145
1158+973473737+976003653+978389183+980317390+981882726+983120996+984386357
1148+987042941+992265830+998713737+1002616718+1001631198+997831455+995230517
1138+995521780+997473417+999122589+999262802+998013476+997363882+999922647
1128+1005912426+1012391963+1016356008+1017755359+1018461990+1019639635
1120+1021096608+1022304199+1022789564+1022125620+1020956688+1021111618
1111+1023213645+1025361434+1025782148+1025144635+1024895839+1025210751
1103+1025671807+1026308588+1027315634+1028788349+1030818989+1033492852
1094+1036875324+1040638897+1043489803+1044034255+1042559563+1040858406
1085+1040470714+1041816322+1044068008+1045325974+1044900136+1045224347
1077+1048646210+1053199224+1054588910+1052539087+1050892624+1051606357
1068+1053681807+1056551090+1059649474+1061410157+1062111956+1064025226
1060+1066662480+1066510333+1063018985+1059821098+1059257096+1060307048
1051+1061777201+1063757174+1065697022+1065853856+1063767424+1061284368
1043+1060263264+1061265185+1064439569+1069341616+1073493246+1073741823
1034+1070419244+1067410407+1067307901+1069043031+1070353348+1070580398
1025+1070393618+1070344781+1070731448+1071768660+1073026918+1073526268
1017+1072806897+1071059539+1068346284+1064985046+1062400583+1061817691
1008+1062002055+1060253526+1056748340+1055143539+1057181501+1059599100
1000+1058445031+1054540805+1051632789+1051218812+1051908090+1051748547
991+1049592997+1046024844+1043212671+1042535327+1042658554+1041399636
983+1039134039+1038071566+1038433924+1037826431+1034724167+1030527873
974+1027388633+1025784930+1024896205+1023947880+1022402605+1019900292
965+1016946222+1014515004+1012170111+1008127722+1002158078+996437157+992482191
955+989524752+986707893+984638887+983703888+982594116+980034034+977075132
945+975998382+977196381+978271960+976734153+973141252+970072376+968549945
935+967321926+965492417+964188397+964833891+967065222+969295601+970389558
925+970013947+968329631+965947323+963615609+961800305+960783374+960818666
915+961837573+963266723+964422476+965142213+965727595+965910933+964510631
905+961062922+956920810+953832018+952627648+953349508+955237518+956717702
895+956653856+955563560+954700974+954327706+953534678+951695284+949675335
885+948914229+949400473+949740206+949393590+949365767+950361831+951563565
875+951620236+950255371+948503767+947211535+945862925+943644846+941011472
865+939289814+939309217+940730533+942259773+942887841+943164460+944235938
855+945841911+946803415+946905409+946448599+945002535+942520431+940358364
845+940005012+941713125+944494107+946725072+946972989+944914380+941513092
835+938176821+936206294+936827918+940493965+945653081+949279662+949621080
825+947916262+946396394+945632726+945097060+945222264+947087649+950184935
815+952182407+951657431+949955249+949424928+951043567+954319945+958307494
805+962018203+964286803+963983825+961086352+957734413+956579832+957608697
795+958464547+958132794+957919582+958640125+959713141+960618413+960988972
785+960149449+958367093+957469216+958734210+961480853+964402634+966843077
776+968538230+969171276+968253557+965226561+960428997+955819898+953502095
766+953744522+955024160+955449632+954106294+951753932+950376840+951501768
756+954318188+956066571+955174843+953605480+954757279+958940686+962467178
746+961646546+957055605+952739745+951362800+951556243+950609968+949097715
736+950304135+954946841+959385122+960265134+959050294+959758756+963572410
726+967296006+967031688+962817382+958922675+959392517+963513689+966182354
716+963555643+957644208+952878567+950273163+948447901+948177286+951389890
706+956559770+959379484+958227319+955402992+952959034+950685310+947665269
696+943612410+939117019+935601290+933930373+932972676+931038245+927866057
686+923240996+915900996+906708863+899941064+898754999+902050634+907068951
676+912448674+916772588+916864623+910280457+898280105+887740752+885938847
666+889461898+891392009+891421150+893116668+897463573+900589340+898173865
656+890838111+884087080+883143880+888034432+893186299+893275772+889720286
646+887985082+889830260+891920792+891068090+888204957+886055338+885076334
636+883797062+881469668+878441281+874455490+868934968+863484881+861966185
626+865721191+870630047+871756220+868967476+865432272+863175900+861604998
616+858711480+854222239+851310781+853393113+860524661+868270071+871848841
606+873342277+878321935+885342996+884855141+872495872
##END=
