##TITLE=<SNM>
##JCAMP-DX=4.24
##DATA TYPE=INFRARED SPECTRUM
##DATE=2/5/2025
##SAMPLING PROCEDURE=Instrument type and / or accessory
##ORIGIN=Admin
##XUNITS=1/CM
##YUNITS=ABSORBANCE
##RESOLUTION=4
##FIRSTX=4497.3318
##LASTX=599.83466
##DELTAX=-1.4281778
##MAXY=1.808544
##MINY=0.25714397
##XFACTOR=1
##YFACTOR=1.6843379e-09
##NPOINTS=2730
##FIRSTY=0.27911291
##XYDATA=(X++(Y..Y))
4497+165710756+166023104+166771746+167159081+166421020+164519397+162314910
4487+160967652+161057289+162364205+164186082+165565561+165690514+164605442
4477+163244330+162541373+162822439+163909758+165247178+165999819+165523361
4467+163875556+161912359+160886632+161540489+163285309+164567578+164407643
4457+163389065+162781248+163007516+163403432+163248753+162535977+161740552
4447+161295536+161352970+161698724+161800658+161201051+160080043+159293006
4437+159511205+160320714+160676218+160341451+160125162+160534331+161069515
4427+161107822+160748267+160515806+160640228+160798252+160546558+159913491
4417+159390658+159408440+159982037+160725194+161106407+160857844+160156834
4407+159341044+158625702+158154251+158041471+158247763+158573647+158841708
4397+159050335+159389667+159988212+160606327+160851068+160698742+160495405
4387+160490539+160646262+160745100+160479604+159705200+158797969+158399646
4377+158651429+159015797+158959389+158515257+158074293+157903123+157996369
4367+158202590+158293643+158037436+157484081+157045894+156963158+156877856
4357+156371354+155734536+155658648+156273808+156968077+157184967+157039224
4347+156968360+157080839+157130364+156910023+156408033+155808001+155418561
4337+155276727+154956841+154151491+153196132+152667689+152775816+153390728
4327+154307621+155275595+156008560+156341646+156326358+156055148+155470899
4317+154650951+154130170+154368912+155029474+155476490+155798765+156490946
4307+157380201+157749594+157346122+156615758+156084732+155887659+155804781
4297+155573718+155195937+154944456+155032217+155377476+155770596+156120827
4287+156379935+156377193+155983258+155402070+155039648+155067304+155302879
4277+155505986+155643166+155842469+156142148+156382625+156428434+156404034
4267+156541745+156859755+157120190+157022043+156460070+155782434+155632868
4257+156234351+157069816+157490663+157318042+156777320+156219116+155902557
4247+155775905+155583927+155309903+155229697+155491884+155993627+156668733
4237+157535198+158419728+158943305+158937962+158695168+158618129+158781089
4227+159070789+159514744+160022485+160066224+159237996+157962450+157107787
4217+157025546+157439262+158019990+158544735+158702617+158298791+157595392
4207+157160196+157428487+158324943+159210535+159512603+159442093+159607371
4197+160027209+160140750+159670149+158925063+158392515+158374326+158822634
4187+159317529+159370734+158897001+158339735+158211543+158492344+158678606
4177+158479657+158132983+157974110+158160497+158851404+160132169+161662523
4167+162769287+162980091+162313813+161182065+160177412+159712472+159665000
4157+159604115+159433193+159458708+159794589+160205050+160617527+161207792
4147+161872477+162186542+161998598+161629754+161406688+161331967+161237429
4137+160996935+160604169+160209314+160028696+160146678+160494485+161038321
4127+161772932+162446782+162572461+161919065+160881519+160208907+160331295
4117+160939731+161325137+161182472+160833409+160586032+160335188+160006932
4107+159875361+160071922+160231113+160032836+159695522+159534455+159444942
4097+159184083+158844999+158752796+159048407+159509613+159747594+159625383
4087+159427938+159517434+159986213+160724486+161539657+162126896+162205050
4077+161773657+161081901+160377352+159801755+159448127+159375317+159515717
4067+159669706+159753150+159966661+160472951+161002509+161099577+160719727
4057+160276816+160082839+160025369+159874848+159669600+159604115+159748568
4047+160082874+160516655+160748161+160542258+160174245+160049415+160027634
4037+159708633+159207226+159113714+159793811+161044408+162286760+162943323
4027+162815432+162259830+161928336+162198715+162878210+163538790+163939360
4017+163980781+163594897+162929699+162329313+161955903+161690054+161457098
4007+161391171+161639875+162154322+162686409+162997218+163060244+163009622
3997+162997183+163134504+163408971+163705501+164012948+164376609+164668273
3987+164775285+164806267+164720664+164224000+163422931+163020291+163533110
3977+164747718+166007304+166736253+166811080+166564959+166277240+165809965
3967+165113148+164797915+165574814+167207774+168585572+168911262+168365108
3957+167574673+167002509+166899372+167442518+168739402+170550521+172058580
3947+172602664+172674926+173061217+173258343+172200467+170272180+168943641
3937+168941677+170138645+172292014+174735545+176072169+175549300+174355588
3927+174217400+175242772+175955425+175397929+174521202+174844786+176425107
3917+177568285+176597551+173837638+171178969+170045575+170623985+172829481
3907+177096746+183441474+189994794+193831161+193925575+191355570+187096303
3897+182259811+179012682+179153702+182103274+184639414+184321810+183233996
3887+184556023+187711817+189699095+190168830+190722716+190294933+187383420
3878+184535640+185003251+188581131+193250239+197862232+200992546+200620428
3868+197986460+196539745+196667069+195718399+192590968+189350740+188397823
3858+191077901+198237075+208865469+215786272+211430467+200917065+192135105
3848+188094728+189005233+193423320+199004490+204224140+208896469+212152710
3838+211816387+207857047+203259581+199876033+197241286+195050529+194192592
3828+194974623+196704686+199791421+205477462+211976639+214274744+211880916
3818+209118915+206665406+202228652+196693893+193435139+194403980+199234580
3808+204997058+208355764+210418329+214313989+218614359+218962077+216111324
3798+213978833+212759413+211076574+209834664+210628956+213348492+217134645
3788+221801435+227120454+232207525+237096833+243414825+251824454+260399449
3778+267555597+274864512+284726571+297864211+313433402+328947778+340871128
3768+347830061+351135721+352096140+352227074+353445115+355785048+357318816
3758+357576367+359034477+364643232+375649230+390096175+402285002+409236610
3748+415719367+425987180+437884520+445394508+448642557+453748525+464232840
3738+480192108+498867551+514477154+522378918+524461442+526598817+532633461
3728+542548530+553371716+561417118+565429999+566422621+565411067+563533614
3718+562392931+563417224+567647527+574443959+579015929+575530111+565715011
3708+556514877+551803020+551160134+551656339+550483276+548132762+547308196
3698+549149447+553349387+559797039+568155869+576996643+583496315+583979745
3688+578226007+571564153+568538551+569458840+572668777+577231121+583513337
3678+590896248+595011965+592263907+587774001+587017450+587212259+582341158
3668+573099373+564953222+559791660+556451497+554017469+552925231+553753442
3658+555332188+555682313+556060217+560341477+569399920+578485151+579696467
3648+571556970+561360746+554174236+549879351+546852722+544544779+543672971
3638+544937971+548284327+553255291+559686736+567794279+576275019+579870327
3628+574694079+566193946+561138653+561235014+565423028+571205890+574977286
3618+575420126+575709844+578792456+583734544+588251628+592355242+596333054
3608+597318528+593227759+587532764+585177331+587238587+591214913+594862276
3598+598144261+601253344+603341848+604360656+606350500+611157337+616978240
3588+618432174+613285405+606657098+603723468+604378279+605885932+606858100
3578+607697988+608392576+608041177+606999438+607749300+612258740+618816342
3568+622348589+619789288+614000092+609152560+606267552+604421523+602841538
3558+601413225+600669873+601618827+604496757+607598903+608862523+608508576
3548+608150808+607984769+606725113+604037639+601336151+599847324+598969641
3538+597061118+593726263+590671537+589905077+591731430+594554404+596230147
3528+596104946+595558703+595519211+594509745+591112183+587033233+585115863
3518+585596144+586148862+584901379+582194618+579505870+577663026+576408501
3508+575470589+575238021+575735217+575912403+574801728+572537737+569957097
3498+568147659+567839221+568600267+569091269+568666335+567892303+567284379
3488+566871689+566852934+567179384+566593614+563754610+559349740+555714870
3478+554402556+555224185+557123437+558729998+558669697+556462609+553012851
3468+549924010+548296854+548063437+548349051+548325624+547837205+547427912
3458+547561394+547678456+546639830+544390065+542337160+541902919+543111087
3448+544538268+544782902+543808435+542176182+539792475+536639901+533641830
3438+531635142+530715136+531030580+532612511+534279054+534471350+533212296
3428+531773366+530805657+529999776+528981286+527693355+526342257+525330030
3418+524863940+524629427+524296041+523926099+523298252+521546744+518398240
3408+515141769+513444014+513772942+515517479+517850051+519925603+520890233
3398+520311328+518441519+515685817+512262316+508763334+506403336+505972280
3388+506810222+507335126+506501643+504682155+503285726+503367082+504605151
3378+505902319+506726885+507235263+507408166+506993141+506143910+505311169
3368+504656888+504105302+503851467+504260087+505078213+505368391+504598676
3358+503236643+501974120+501052097+500473191+500182588+499946518+499574453
3348+499276489+499428302+500013790+500542940+500587069+500260335+500035730
3338+500096986+500116591+499749480+499059493+498354112+497846123+497551593
3328+497411352+497379043+497242588+496546727+495063704+493295847+492112627
3318+491787628+491833879+491904124+492220949+492894870+493493062+493376813
3308+492061599+489717242+487678174+487657437+489940715+492759654+493892623
3298+492889420+491299315+490620368+490691604+490528538+489959541+489475226
3288+489189825+489034545+489300022+490082831+490852157+491218171+491525052
3278+492163904+492847946+493080159+492919287+492746384+492583919+492142778
3268+491334030+490393074+489652341+489353316+489431240+489414147+488839948
3258+487869550+487191878+487192763+487443059+487191206+486252161+485149130
3248+484448314+484113866+483547311+482418483+481336472+481179139+481744561
3238+481799023+480707705+479242164+478317274+477611115+476198620+474272650
3228+473112150+473237316+473713173+473604321+473085751+472652041+472300961
3218+471937601+471746862+471782497+471620316+470682439+468838003+466628473
3208+464787328+463518471+462438548+461217181+460058450+459432443+459442635
3198+459727187+459860421+459506899+458444599+456889103+455586627+455094881
3188+455059352+454567996+453195701+451422004+449967115+448982844+448086406
3178+447047710+446138037+445655952+445399038+444917731+444059264+442947917
3168+441687871+440448280+439505059+438796848+437872701+436643195+435596430
3158+434918616+434132764+432935815+431650396+430628934+429905753+429477032
3148+429258550+428821017+427761230+426248836+424769599+423464576+422125970
3138+420802368+419956676+419803589+419843931+419487401+418840198+418320496
3128+417897437+417303103+416646062+416284790+416361050+416700665+416836588
3118+416186589+414630385+412754560+411264424+410402347+409950377+409428658
3108+408400012+407004573+406005582+405894854+406217589+406201629+405733628
3098+405196622+404673983+403933604+403036422+402393324+402273714+402616407
3088+403201293+403731647+403853238+403348965+402378249+401415353+400764929
3078+400134747+399003264+397479900+396312463+395875568+395695587+395193720
3068+394386848+393594945+392905559+392204390+391456756+390769883+390315082
3058+390186838+390175761+389872383+389222420+388652361+388390352+387999708
3048+386929092+385296026+383730196+382602713+381825354+381309721+381149451
3038+381263009+381305262+381137136+381008396+381023542+380762523+379762222
3028+378164897+376596980+375542253+375029168+374810367+374603350+374127988
3018+373168100+371833033+370642772+370086974+370082622+370044898+369540625
3008+368740689+368130643+367857486+367555771+366861042+365847153+364800919
2998+363821567+362889034+362144055+361777227+361653441+361317011+360522348
2988+359605633+359102669+359108083+359221323+358959349+358060328+356653777
2978+355285835+354479034+354182450+353942133+353575270+353318922+353345746
2968+353467798+353334812+352711247+351568440+350105836+348724411+347783562
2958+347282863+346928845+346556320+346290772+346276157+346418663+346406772
2948+345951971+345098635+344208000+343502761+342842606+342145223+341691660
2938+341680832+341786924+341487509+340663899+339692049+339025595+338733825
2928+338435472+337798460+337006203+336396510+335772238+334635943+333095026
2918+331895139+331496781+331689997+332110614+332551897+332742990+332369333
2908+331410860+330158812+328935959+327972142+327399430+327205435+327260463
2898+327397519+327420910+327176771+326679753+326020447+325181902+324161572
2888+323161944+322424962+321993446+321746264+321517695+321196164+320847631
2878+320611632+320407410+320032620+319555206+319207169+318967029+318680213
2868+318394954+318128980+317593496+316644542+315730693+315406649+315589497
2858+315692439+315381524+314904039+314652398+314600732+314327399+313564266
2848+312551367+311779245+311509946+311564230+311467834+310896290+310072361
2838+309535602+309448513+309401483+309004505+308381117+307886045+307554251
2828+307108261+306462367+305901085+305634829+305492606+305251793+304932456
2818+304543794+303906888+302966216+301989766+301274265+300834503+300475744
2808+300069636+299699057+299498905+299395786+299166545+298755235+298317384
2798+297935022+297514759+296986104+296403146+295816031+295185477+294493119
2788+293888275+293626566+293779387+294051252+294017351+293542556+292833619
2778+292092833+291308184+290416381+289473975+288564355+287716645+287041963
2768+286730482+286734905+286650382+286117392+285215716+284296807+283556994
2758+282937641+282364875+281894167+281568690+281276477+280870050+280350561
2748+279833937+279403554+279046068+278649763+278074007+277324887+276624071
2738+276192750+275995075+275756881+275222989+274403925+273581960+273024641
2728+272705569+272389469+271956308+271508850+271162883+270872811+270532135
2718+270148940+269785191+269351764+268664166+267757500+266964677+266588242
2708+266607776+266741470+266697465+266373899+265915205+265560834+265372466
2698+265136289+264603936+263819500+263120259+262763711+262639288+262436907
2688+262014114+261478346+260988228+260610129+260330337+260099009+259849579
2678+259531091+259163432+258824985+258523023+258150037+257687946+257350101
2668+257340387+257555013+257688654+257550749+257151559+256581571+255955140
2658+255427724+255110810+254917948+254628655+254197298+253854551+253785970
2648+253856692+253779512+253434695+252943852+252535019+252358683+252332142
2638+252168209+251663458+250953831+250387028+250151471+250128257+250107714
2628+250007691+249833867+249579448+249275204+249027827+248884418+248731526
2618+248439313+248050599+247711816+247470773+247273965+247114721+247039876
2608+247031843+247016326+246989042+247021068+247112651+247137864+246998296
2598+246757253+246555296+246462988+246460705+246459131+246315298+245971950
2588+245593338+245399856+245376430+245316395+245139528+244986636+244992864
2578+245129212+245274850+245298064+245094868+244720981+244453486+244533232
2568+244868317+245139174+245163131+245057924+245095452+245432572+245933926
2558+246275292+246265047+245998030+245667988+245358895+245086535+244900148
2548+244812900+244707392+244445135+244051943+243696157+243500127+243434147
2538+243355357+243122949+242733172+242336442+242064860+241900768+241766543
2528+241638670+241518918+241398529+241293163+241222919+241157894+241046971
2518+240877660+240694883+240595249+240650117+240786731+240842785+240775460
2508+240687664+240635609+240546025+240335575+240023280+239734021+239608802
2498+239674004+239811644+239884525+239851154+239748265+239608555+239419550
2488+239175022+238936297+238754458+238555261+238243231+237901192+237730819
2478+237795384+237930139+237900308+237603176+237139652+236709215+236429281
2468+236272054+236167006+236099044+236069761+236012858+235826242+235482929
2458+235048776+234610448+234249937+234044725+233998261+234000862+233927999
2448+233749415+233525925+233354720+233302965+233325419+233283396+233105627
2438+232860674+232625842+232412667+232265543+232254768+232301302+232200501
2428+231906837+231621153+231520228+231559755+231615119+231679259+231816333
2418+231982018+232013778+231849580+231682533+231772700+232093383+232306150
2408+232174208+231872936+231749114+231894876+232130239+232302665+232424823
2398+232579537+232837937+233284334+234065391+235385365+237461608+240558552
2388+245104565+251686354+260860868+272972710+288061816+305830486+325738620
2378+347207062+369706947+392672249+415464116+437427065+457854334+476126960
2368+492165815+506135771+517144423+523166115+523169088+518314513+510174272
2358+498968122+484305596+466130251+444830006+422947139+405637162+397257984
2348+399218775+410293531+426471034+441648768+451584929+456204707+457508208
2338+457414644+456859448+455869905+454406664+452718499+450873461+448512154
2328+445226276+440886944+435438318+428677132+420588769+411762823+403029274
2318+394679503+386407408+377991180+369620318+361468824+353354098+345017279
2308+336443009+327795488+319331698+311410294+304296506+297897263+291870687
2298+286026410+280488731+275460015+270956803+266830151+262951531+259308839
2288+255986299+253107413+250730288+248754758+247010558+245461908+244207560
2278+243238064+242348668+241383348+240421018+239622480+239024200+238551245
2268+238111519+237644721+237167962+236758209+236437102+236132680+235778008
2258+235375103+234953761+234528349+234103910+233692123+233284652+232836221
2248+232348952+231953159+231796215+231857206+231957406+231941127+231797135
2238+231616535+231461962+231311865+231154444+231062348+231108582+231269453
2228+231460953+231636175+231828843+232091861+232393682+232644456+232824879
2218+232983239+233140536+233324623+233638174+234162070+234840202+235540717
2208+236185142+236761465+237254838+237659389+238051448+238537320+239117782
2198+239718663+240342759+241072097+241935058+242856392+243722998+244458617
2188+245037558+245450814+245715549+245907863+246106794+246323702+246537231
2178+246725670+246843546+246860249+246814723+246772204+246763340+246761110
2168+246663848+246350225+245816262+245210586+244680657+244210497+243699306
2158+243197899+242906642+242914356+243126257+243442180+243839547+244351269
2148+245031702+245881110+246978797+248770152+251810795+256129318+261279927
2138+266971011+273197616+279915630+286963243+294183531+301523889+309111835
2128+317127335+325581711+334352665+343296169+352232241+360994347+369432092
2118+377264850+384127174+389731612+393864032+396435081+397550710+397380284
2108+396167976+394335748+392219252+389865271+387240538+384320461+381003583
2098+377197578+372855699+367940010+362512899+356667685+350391166+343755676
2088+336992968+330217732+323394370+316507557+309536699+302519094+295679806
2078+289245548+283292348+277856462+272942259+268545370+264823534+261945426
2068+259776734+258001870+256376996+254746584+253119427+251687823+250584137
2058+249798179+249266569+248805062+248234738+247702597+247491687+247603706
2048+247878420+248295180+248991501+250190220+252007160+254257050+256745027
2038+259649887+263282139+267673968+272554075+277465500+281973241+285957581
2028+289560373+292908021+296075988+299055676+301645763+303643392+305000081
2018+305584614+305150054+303690953+301514228+298952591+296207524+293352347
2008+290354099+287127937+283619205+279896414+276172844+272663652+269448921
1998+266575980+264251777+262732499+261888912+261058844+259654063+257778910
1988+255896008+254231747+252845793+251832116+251175340+250735507+250431882
1978+250213204+249986565+249729545+249514795+249456476+249744018+250455468
1968+251190716+251283183+250620746+249861877+249622550+249853861+250199049
1958+250568584+251024518+251408579+251498747+251380853+251389452+251784307
1948+252662007+254102512+256059746+257861965+258305849+257010433+255150144
1938+254077387+254004418+254385082+254821145+255258412+255722750+256174066
1928+256687893+257702278+259555314+261686460+263182594+264168580+265312873
1918+266196342+265854622+264699306+264165838+264902377+266361319+267627522
1908+268225837+268329576+268366308+268527729+268755554+269055075+269628265
1898+270658468+271909720+272773089+273164776+273889036+275287960+276224669
1888+275537584+273783192+272237568+271305866+270755112+270444957+270295073
1878+270160246+270018643+270106174+271004276+273477107+277529250+281306875
1868+281993995+279074785+275031896+272245371+271209630+271187229+271338158
1858+271285908+271127849+271107024+271306981+271764242+272681824+274372147
1848+277197987+281209877+284992084+285708771+282641570+278709585+276563346
1838+276314837+276719547+277209966+278718910+282264215+286799417+289512777
1828+289436959+288374925+287290543+285426697+282920690+281249564+281116507
1818+281785704+282368201+282992916+284432288+286751732+288769815+289306804
1808+288660945+288179656+288979752+291402775+294813395+297667881+298679010
1798+298347995+298710753+301484608+306244203+309633236+308373615+304086410
1788+300943249+300634528+302105236+304000028+306030108+307968003+309155822
1778+309900023+311944257+316790905+323697464+328972797+329281801+325870863
1768+321833211+318869253+318131528+320212849+323627998+325782536+326429810
1758+327081437+327900023+328780218+331388141+337181796+344451361+349106456
1748+349462879+347684122+346383558+346818719+349010944+351741061+353394617
1738+354643126+358479246+365751182+371437223+369989411+364176186+358613719
1728+354623273+352659333+352891405+354567892+357519287+363293762+372952094
1718+383499682+387987252+384003778+376786303+371232399+369093857+370695676
1708+375556337+381727401+386696100+390838500+397106242+405707088+411804191
1698+412480695+409726657+404287232+397562176+393461003+393803555+397404064
1688+403360396+412779756+424779791+431443945+427275076+419271502+414625926
1678+415168418+419711122+425096191+428919360+432490108+437205822+440169390
1668+438264300+434924031+435295459+439681856+444058946+445331695+445473069
1658+448553168+457347336+472766803+490221798+496893348+493030935+492109832
1648+497363012+502181881+500041781+494611061+492376406+495207519+502749179
1638+514285248+526712942+532913872+530512188+526951595+528208987+534559430
1628+543448047+552854845+562734527+572567922+580239738+585964351+593404520
1618+604589119+615732102+620910296+621528446+622861284+626568133+631175243
1608+635005948+637747212+639971817+642174977+644572415+647328400+650645278
1598+654789447+659993332+666001860+672025393+677599857+682949539+688210682
1588+693091408+697407136+701234232+704554295+707364140+710401031+715287278
1578+723002832+731460535+736659395+739644763+745455899+755773502+767402640
1568+776411186+783621193+792142240+803196330+817425322+836892951+860945112
1558+878004120+880818565+878569118+876960611+875812709+874512569+873035704
1548+871894100+872260574+874982516+880198292+887049611+889928886+880207988
1538+863301075+852175291+849176901+848949500+845801421+840310401+836920200
1528+837165648+839312825+841837941+844853458+847538314+847956666+846690074
1518+845311020+842791495+838403222+834804730+835549002+842092448+853199053
1508+863567898+862963407+849390925+835709378+829356670+829408973+832748145
1498+835690198+835169788+831608028+829030255+830678609+835962895+840306083
1488+839235538+833777570+828110603+824566607+822916484+822231664+822728505
1478+825587326+831331580+838895251+845063731+845081708+838389350+831170213
1468+828639293+830620715+832922535+831928569+829672610+831134825+838410583
1458+847548435+848941786+840166515+830089830+824258027+822602596+823124988
1448+823260805+821278464+817751879+814585823+813093528+813795830+816847372
1438+821297785+824171752+823196188+820444166+818763468+817883450+815954261
1428+813038890+811142894+811116920+812224126+814374842+818033847+821174637
1418+819790133+814004263+807874285+803697064+801485198+800555779+800229506
1408+800439991+801421855+802300670+801669143+800147902+799895942+801780331
1398+804851407+807649361+808550754+806405983+802686819+800548560+801041934
1388+801966257+800669515+797956490+797190349+800058300+805493338+811617442
1378+817433178+822728293+827038147+829480597+830120546+830530759+832012933
1368+834361536+836897127+839600880+842355874+844098075+843965301+842574357
1358+841084539+839894455+838842311+837967318+837420438+836852043+835769678
1348+834529202+834108373+835038217+837219932+840288531+843502290+845859527
1338+846958595+847208007+847127040+847239077+848154058+849941910+852026026
1328+854130879+856580478+859544401+862891641+866685756+870887607+874978199
1318+878602666+881922304+884999962+887799474+890769199+894347733+898113114
1308+901412227+904423215+907670238+910851440+913004349+913831074+914170866
1298+914891003+915843637+916216197+915563296+914265138+913173502+912753735
1288+912409343+910998652+908274728+905320927+903256345+902031368+900884669
1278+899648298+898993344+899413253+900497883+901283629+901234794+901005411
1268+901950968+904617280+908086962+911144095+913471678+915157896+916145280
1258+916973916+918767783+921800499+925068967+927504270+928692443+928416915
1248+926708757+924507649+923116776+922801189+922670114+921867948+920287185
1238+918274410+916223699+914402159+912799526+911165752+909315973+907342549
1228+905498714+903832667+902112193+900496467+899874566+900842770+902642582
1218+903741155+903451684+902526653+902170441+902919526+904524211+906534509
1208+908686569+910835445+912729176+913872124+913896612+913446765+914110565
1198+916763572+920503544+923765147+925796394+926688373+927101559+928332268
1188+931557492+936450038+941172298+944436378+946708402+948769800+950617598
1178+952299499+954359622+956872211+959104035+960393913+960404317+959231431
1168+958195353+958909899+961244559+963705199+965710543+967869610+969981399
1158+970775638+970254521+970404989+972460229+975191796+977050493+978130805
1148+978914994+979230581+979404546+980401060+982349713+984562711+986754405
1138+989108316+991680286+994192875+995782768+995316714+993115252+991694229
1128+993773037+999542770+1005970074+1009634671+1010078927+1009477196+1009770205
1118+1010775920+1011328179+1011344528+1011534064+1012032250+1012952823
1110+1014906500+1017144694+1017559649+1016611191+1017877288+1023154780
1101+1030196554+1035934014+1039394636+1040623788+1039770028+1038023438
1093+1036703481+1035884684+1035609651+1037180152+1041001869+1044530790
1084+1045241939+1044080872+1043579359+1044114915+1044169483+1043245159
1075+1042302788+1041754209+1040590736+1038137599+1036433899+1038746336
1067+1045398493+1052795913+1056978584+1057319862+1056440339+1056930032
1058+1058665652+1059680921+1059568884+1060936543+1065919610+1071901173
1050+1073741823+1070441860+1065907225+1063070273+1061576776+1061149152
1041+1062622691+1065120983+1065932208+1064195386+1061798514+1060076271
1033+1059046493+1059379915+1061726819+1064687910+1065798656+1064270691
1024+1061129901+1057573591+1054737488+1053861858+1055051659+1056736604
1015+1057554694+1057691785+1058148781+1059628760+1061465446+1061381011
1007+1058035470+1053330903+1050061373+1048694139+1048185053+1048368927
998+1049449876+1050249494+1049153328+1046408596+1044001887+1043160229
990+1043015777+1042014096+1040108050+1038548307+1037852870+1037334088
981+1036431351+1035415727+1034759995+1034646543+1034843935+1034434925
973+1032286899+1028468508+1024430502+1021326091+1019024978+1016754652
964+1014073760+1011047060+1007870812+1004606166+1001154674+997533321+994475976
954+993309105+994030517+994064135+991010894+986239233+983092003+982232297
944+981252910+978445260+974796021+972146695+971139281+971146288+971457911
934+972228015+973693344+974588084+972788908+968491511+964811557+964020432
924+965187302+966066046+965355747+962898150+959638883+957301533+956967899
914+958189054+959746674+960568373+959649924+956557474+952586846+950050547
904+950008365+951406387+952592791+953031455+953177252+953504021+954157347
894+954892134+955218054+954900698+954174262+953402176+952800375+952464334
884+952057518+950749664+948345220+945960734+944818705+944987717+945668503
874+946072417+946194999+946842309+948390162+949811822+949695185+948079176
864+946195919+944501491+942395222+940162478+939354438+940497669+942306824
854+943405679+943417782+942802604+942399540+942848608+943669812+943377369
844+941181711+937875450+934991503+933721160+934303569+936100196+938356013
834+940555422+941970925+941895125+940541621+938790785+937346051+936667742
824+936889693+937432893+937675793+937987982+939442978+942565578+946726945
814+950776417+953875308+955570231+955661531+954723053+954046796+954019831
804+953307054+951018751+948740782+948584015+949926903+950166548+948792377
794+947944986+948771003+950008082+950587872+951445030+953142926+954098249
784+953058916+951094552+949850183+949666096+949893072+949825694+949465590
774+949775302+951598612+954530969+957007746+957377050+955306523+951949586
764+948551317+945602611+943702935+944058014+946973243+951076645+954865028
754+957752654+959216072+958701466+956727618+954735934+954129249+955716453
744+958891639+961187798+960205297+956655427+954259051+956253070+962262448
734+968113926+969297570+965396867+960010311+956624781+956257883+958124082
724+960801294+962692548+962759289+961930866+961831285+962352828+961892931
714+959281610+956017743+955211684+957197989+958561614+957069674+955057394
704+955547017+957798729+958997519+957727741+954695450+951941447+951191160
694+952437793+953722363+952870796+949829516+945371389+939111679+930525590
684+921489513+916133036+916975261+922583909+929154180+933363179+933916004
674+932295323+931606681+932280248+930267332+922542931+914874654+913336780
664+914344831+913241305+910028962+907340213+906657304+906859013+905027564
654+899782983+893848131+890416315+888866268+885984869+880873558+876711907
644+876833994+880511684+883151527+882066473+880074152+880389385+881784646
634+881745295+879953764+877398780+874800695+871415731+867500803+865419730
624+865556114+865355749+864295042+865429922+869338551+871369303+868125394
614+862173627+857407415+855111823+855240775+857440255+859639735+858460974
604+853757823+848998689+846331315+846325936
##END=
