##TITLE=<SNM>
##JCAMP-DX=4.24
##DATA TYPE=INFRARED SPECTRUM
##DATE=3/5/2025
##SAMPLING PROCEDURE=Instrument type and / or accessory
##ORIGIN=Admin
##XUNITS=1/CM
##YUNITS=ABSORBANCE
##RESOLUTION=4
##FIRSTX=4497.3318
##LASTX=599.83466
##DELTAX=-1.4281778
##MAXY=1.7133572
##MINY=0.18406966
##XFACTOR=1
##YFACTOR=1.5956882e-09
##NPOINTS=2730
##FIRSTY=0.19881348
##XYDATA=(X++(Y..Y))
4497+124594189+124167322+125193994+126650344+127531300+127400235+126424999
4487+125364475+125090169+125814567+126980279+127842558+127988582+127580083
4477+127286400+127662588+128516547+129176201+129255381+128865420+128269565
4467+127601655+126961789+126702303+127283963+128572642+129623071+129599688
4457+128658668+127585967+126874166+126452753+126097128+125808619+125805938
4447+126256077+127083916+127949379+128305845+127719459+126446216+125473903
4437+125524022+126124518+126119335+125036436+123530714+122506704+122265894
4427+122569607+123037722+123288523+123042130+122322700+121395332+120462502
4417+119626912+119049659+118857204+118940717+119059633+119116167+119218338
4407+119465675+119759750+119969808+120232432+120775310+121394772+121495552
4397+120772854+119543912+118350662+117525363+117176070+117286898+117729351
4387+118350438+119075209+119762244+120034878+119564699+118502336+117298533
4377+116243192+115532093+115448131+115998723+116737978+117331432+117883033
4367+118474582+118845886+118698937+118015974+117017102+116012814+115354402
4357+115398890+116327229+117894715+119472791+120433870+120478620+119697108
4347+118489253+117373978+116763518+116854642+117514325+118166490+118140548
4337+117326567+116252419+115536061+115457031+115838803+116175200+116139826
4327+115977086+116028241+116104975+115864801+115508056+115501733+115859114
4317+116275204+116718302+117289596+117775258+117935645+118004787+118357376
4307+118823063+118850929+118298096+117613097+117304799+117558243+118263021
4297+119111918+119726123+119899061+119766549+119678731+119837418+120079562
4287+120132884+120050716+120133006+120405762+120490993+120095148+119429218
4277+119088329+119563168+120773694+122088661+122930741+123255474+123329070
4267+123307377+123254027+123297142+123466793+123466541+122869612+121644527
4257+120385311+119882476+120451669+121751377+123233641+124586727+125601783
4247+125949105+125531707+124858437+124550009+124598447+124567444+124323095
4237+124049070+123777425+123453009+123256978+123383084+123698441+124003349
4227+124396645+125097313+126028659+126735174+126785003+126309791+125974506
4217+126224448+126796480+127130477+126943784+126309427+125554119+125131996
4207+125315617+125989429+126816698+127492321+127840298+127886747+127836562
4197+127860693+127921915+127822368+127502715+127307683+127647544+128304836
4187+128567404+128217877+127817204+127778104+127765992+127373994+126921699
4177+127095328+128026337+129177294+130019477+130423530+130494166+130443757
4167+130579892+131047839+131597403+131838399+131708269+131553606+131741280
4157+132248177+132719168+132906580+132824272+132457170+131740253+130962757
4147+130710396+131127411+131636765+131716617+131587887+131765392+132300267
4137+132870207+133332140+133828429+134502269+135330621+136099311+136394526
4127+135825211+134510776+133205418+132621778+132704768+132899474+133001608
4117+133278127+133864111+134525194+134976855+135096172+134883480+134458686
4107+134078894+134043847+134541331+135493586+136514673+137157537+137282775
4097+137092187+136800391+136430067+135979219+135614705+135571636+135909714
4087+136434587+136877367+137130606+137288256+137480515+137713452+137904861
4077+138058375+138268731+138474858+138396322+137897101+137222122+136709715
4067+136538757+136856290+137685045+138571090+138845872+138421190+137909782
4057+137886119+138369801+139012198+139524568+139864774+140023910+139809566
4047+139169485+138593409+138709756+139500521+140306462+140552930+140168478
4037+139424693+138716208+138493637+139075391+140279623+141348337+141576950
4027+141100309+140747430+141015787+141566005+141920789+142179696+142668365
4017+143307569+143725060+143683177+143161843+142334854+141586204+141287180
4007+141479943+141930660+142482512+143195751+144066845+144739377+144797425
3997+144368905+144033965+144082319+144322801+144584117+144845144+144978319
3987+144897523+144825813+145028232+145438739+145784455+145949838+146068286
3977+146278176+146504688+146572448+146440748+146189639+145887691+145633715
3967+145669845+146308638+147618459+149129981+150071010+150067098+149390298
3957+148504626+147747376+147404321+147710359+148696100+150022217+150995194
3947+151154833+150862999+150709794+150562621+149933811+149029322+148627052
3937+149168418+150557401+152425891+154101787+154678647+153805975+152311692
3927+151470219+151741546+152461088+152812603+152924281+153562616+154899052
3917+155970203+155608985+153892346+152027973+150943095+150715042+151367329
3907+153511433+157542358+162446265+166195779+167627317+166786189+163824294
3897+159592173+156329507+156026485+158436827+160875342+161056376+160326488
3887+161177084+163207381+164169703+164034147+164281072+164246987+162648124
3878+160970743+161343214+163510076+165999448+168130917+169227207+168360082
3868+166653285+166274016+167082347+166955588+165145340+163353583+163440094
3858+166314918+172373685+180269818+183948397+178729151+170251461+164582646
3848+162985968+164478094+167494357+170830572+174286131+178048924+181153080
3838+181654720+179366384+176357853+174001068+172159836+170699816+170022409
3828+170154510+170840134+172867387+177311397+182514449+184444639+182966054
3818+181672276+180975109+178522436+174609128+172059691+172645451+176110237
3808+180207512+182564765+184087856+186978779+190008284+190007948+187779378
3798+186126352+184940806+183060222+181151642+180532357+181270762+182656150
3788+184323669+186258266+188320426+190560071+193505026+197174472+200393901
3778+202292153+203739212+206269001+210777352+217151831+224004399+229556222
3768+233654169+237435116+241683804+247253949+255131573+264668629+273423165
3758+280370798+287659543+297754400+311047544+325699479+338484746+348120733
3748+357106805+367676557+378169958+384793454+388657867+394757817+405626322
3738+420546643+437031892+452271885+463844206+470246869+472142936+472171287
3728+472732487+474604200+477546092+481434000+486075106+490588724+494420004
3718+498301824+503529754+511152907+521334368+532267197+541126902+547528631
3708+552949940+558143617+563521709+569372547+575184949+580182520+584198513
3698+587658051+591653575+597494515+605831009+616371811+626751358+631316338
3688+626487978+617028786+610022228+608751833+612678814+618701889+623736776
3678+626759203+627288129+624941578+622564024+623099562+625067236+624531212
3668+620861635+617669362+618144910+622671565+629037471+634633185+638375340
3658+640099879+640363521+641370199+645355077+652589566+661381027+668068809
3648+669490560+666439970+662196007+659797908+660934502+665482822+671435411
3638+676119100+678031901+677666882+677107625+678600946+682736583+687602333
3628+690307478+690339901+689677249+690402506+694299827+701712269+710054515
3618+715732705+717619658+716443095+713444276+710794340+710248380+711054022
3608+711054993+709609783+708027486+707590375+708437479+710185477+712737846
3598+715742791+717888678+717926256+716847335+718002607+723088817+729336649
3588+732263974+731257146+729122165+726598932+722952327+719398584+717755401
3578+717516188+717058159+716426510+717221693+720520386+725324876+728812504
3568+728791960+726317585+724229670+723744597+724403738+725257042+725076998
3558+723223813+720848500+719573922+719311401+719284207+720473246+724393652
3548+730027989+734173861+735116740+734144651+732598288+730331972+727159235
3538+723738545+721447128+721654739+724058142+726319004+726622763+725606821
3528+724737081+724637795+725992534+729332092+732768919+732985346+729758371
3518+726903662+727678898+731144487+733743698+733464517+731120805+728300536
3508+726539689+727658951+731800565+735618548+735464278+732209064+729529917
3498+729205688+730780215+733183618+734933708+734613513+732350858+729761359
3488+728415809+728824009+729910475+729566523+727489217+726217552+727172010
3478+728551253+728496418+727261061+725418709+723056992+721855627+724544038
3468+730968403+736963500+738522862+735950247+732955015+732671202+734773909
3458+736149417+734233776+729651241+725655082+724764125+726290317+727754502
3448+728238081+728542288+728498958+727093792+724882237+723457572+723096139
3438+723004847+723112500+724061803+725754741+727211007+728233673+729708168
3428+731936532+734055226+735043452+734376168+732309694+729925117+728096511
3418+727041049+727089982+728473035+730051372+730012151+728603025+728016948
3408+729266798+731351725+733528392+736172875+738610045+738235688+733855161
3398+728428883+726093165+727531800+729848319+730594344+730349902+730899821
3388+732576324+734221823+734997582+735415120+736120953+736205746+734141065
3378+730454716+727721257+727642740+729809097+732706016+734531186+734321109
3368+733096435+732705866+733754082+735475035+737053373+738401090+739748731
3358+740809946+740837663+739415986+736697020+733304121+730582316+729836216
3348+730506264+730579029+729131130+727262107+726673564+728376962+732377902
3338+737329341+741277239+742912728+741965068+739556435+737588201+736761866
3328+736096823+734894860+733626183+732660295+732095360+732538448+734391633
3318+736665494+737931107+737985643+737457837+736780318+736299204+736372119
3308+736800415+736844417+736030856+734785937+734459317+736184753+739084660
3298+740611151+739641228+737642140+736057377+734846674+733846046+733302253
3288+733035474+732827116+733292840+735113154+737988034+740984163+743164416
3278+743679447+742379394+740496550+739230787+738006337+735904004+734171770
3268+735022758+738328325+741520934+742657752+742052326+741102724+740788804
3258+741185499+741712483+741765226+741282319+740525760+739765914+739830984
3248+741618128+744276208+745415193+743790686+740639315+737786474+735938892
3238+735412057+736522728+738298741+738581731+736479025+733692822+732518053
3228+733142978+733886388+733762449+733688489+734767783+736441895+737124494
3218+736138285+734525284+733924713+734660877+735342729+734720344+733042945
3208+731224797+730048011+730045844+730956300+731908517+732496313+732835483
3198+732782889+731831569+729620761+726550970+724022208+723398030+724501081
3188+725984540+726952072+726897611+725051747+721770237+719295115+719370046
3178+721399764+723773284+725396521+725533235+723743924+720481837+716985469
3168+714558010+714095125+715491326+717347276+717918412+716555978+714400602
3158+713543861+714802004+716735350+717600309+717213849+715964671+713752144
3148+711054694+709284658+709132853+709959488+711124844+712420565+713195352
3138+712768700+711667815+711099742+711405743+711742523+710974533+708593244
3128+705048540+701364656+698404386+696534019+695739434+695690874+695955711
3118+696343441+696727585+696712195+696006138+694921092+694112238+694094009
3108+695034497+696563229+697765043+697702214+696096160+693503599+690938305
3098+689316189+688824392+688704114+687840350+685725466+682878751+680700365
3088+680654570+682885624+685854410+687837885+688290983+687386803+685396157
3078+683324304+682743456+683960659+685189591+684600825+682814876+681851976
3068+681965755+681357713+679090053+676499808+675361644+675912834+676643918
3058+675710153+673301446+671999375+673492248+676003379+676491291+674441626
3048+671698231+669538224+667819287+666250438+665044067+664655291+665327057
3038+666452446+666445722+664160356+660657115+658519744+659085800+661191570
3028+662755862+662770878+661485542+659375589+656595288+653485006+651163781
3018+650967376+653140083+656396343+658831945+659066525+656834426+653300330
3008+650352013+648720036+647388755+645482378+643788095+643472682+644238430
2998+644758616+644320384+643214569+642049063+641317755+641301095+641925945
2988+642630957+642524872+641053366+638722205+636700107+635436361+634236863
2978+632439559+630318400+628505855+627171437+626195575+625669226+625678228
2968+625877733+625831863+625539646+625187439+624731016+624082521+623369105
2958+622783962+622415095+622145925+621639785+620724921+619762282+619281430
2948+619341569+619445711+618902067+617241290+614580110+611589808+608981595
2938+607072230+605722721+604594905+603585798+602920195+602696671+602672914
2928+602666975+602764505+602902825+602550656+601165100+598979319+596983966
2918+595904411+595478468+594953949+593932628+592473860+590918943+589944426
2908+590070569+590764523+590565541+588668241+586075306+584495885+584355361
2898+584598421+584215061+583101477+581571475+579895719+578211708+576417953
2888+574517590+573132482+572934359+573592716+574053173+573754942+572876349
2878+571634380+570099037+568504264+567168762+566253375+565853132+565986895
2868+566256625+565921526+564659274+562927414+561214641+559405159+557348248
2858+555547694+554645045+554475086+554194076+553270247+551884505+550420320
2848+549087395+548048667+547398827+546926230+546310382+545582771+545021011
2838+544646840+544155006+543276861+542040197+540737342+539649793+538792117
2828+538012511+537255093+536542872+535847984+535131095+534347342+533388999
2818+532258045+531289168+530894117+530987800+530910403+530120076+528812403
2808+527527776+526335488+524932077+523329086+521763187+520156797+518343655
2798+516630210+515600522+515393471+515432692+515046045+514315372+513894734
2788+513876729+513516529+512358008+510844666+509451191+508017673+506389879
2778+504991810+504232599+503855104+503303728+502378891+501230680+500081012
2768+499201410+498742521+498376307+497470857+495748185+493572228+491613183
2758+490297217+489428634+488403690+486966175+485534114+484568450+483943861
2748+483234106+482351590+481526189+480741390+479608681+477943683+476158593
2738+474863956+474269325+474062648+473715259+472921384+471836338+470739899
2728+469516009+467855606+465922185+464301601+463332836+462922246+462836146
2718+462756769+462313607+461415253+460268424+458939459+457332135+455599378
2708+454111063+453084885+452531231+452272259+451837650+450741248+449092873
2698+447586553+446719726+446310069+445876693+445234772+444548438+444001358
2688+443594689+443119290+442270393+440980762+439597970+438490287+437585920
2678+436555559+435338057+434243560+433533992+433055157+432418914+431506964
2668+430555830+429744025+429019776+428361046+427849938+427417458+426800751
2658+425860785+424763338+423735442+422795813+421877775+421027907+420254875
2648+419404483+418431647+417551485+416912067+416381758+415819325+415303174
2638+414922616+414510382+413808097+412847102+411932986+411265702+410809465
2628+410482771+410199257+409769281+409001478+407913406+406792127+406012894
2618+405638947+405265188+404505566+403474122+402511184+401730196+401126487
2608+400816341+400870541+401073333+401028733+400535405+399802378+399181151
2598+398730069+398249815+397668892+397112548+396666733+396300892+395934827
2588+395479487+394940662+394475349+394174018+393864954+393326391+392613348
2578+392004224+391679621+391573201+391525314+391473616+391396481+391134035
2568+390502611+389618825+388853413+388438303+388342342+388443794+388584841
2558+388598139+388462994+388287619+388092036+387768180+387235668+386593149
2548+386152601+386156486+386401264+386446947+386198733+385874056+385528722
2538+385094524+384718411+384638362+384841192+385074465+385116488+384964982
2528+384788187+384686997+384583789+384395975+384154746+383890656+383592238
2518+383330801+383249781+383386682+383615547+383756818+383683232+383366361
2508+382856672+382197979+381412695+380618708+380028671+379718674+379525220
2498+379287427+379040109+378875081+378803586+378838885+379004996+379173013
2488+379104357+378781622+378489891+378411262+378339729+377999737+377480261
2478+377137766+377173887+377456915+377698033+377726384+377589334+377390501
2468+377115130+376688403+376134151+375610753+375299523+375207484+375098337
2458+374754422+374257545+373844601+373610918+373535239+373639941+373919906
2448+374184706+374138537+373691452+373128571+372842704+372908932+373033469
2438+372890442+372441116+371977745+371818806+371903337+371862024+371545265
2428+371173261+370907117+370632643+370243456+369856399+369683377+369784007
2418+369946495+369890390+369633846+369462617+369498664+369584950+369613638
2408+369650058+369742508+369876682+370042793+370165126+370137933+370041672
2398+370062404+370128333+369957253+369531012+369180523+369114818+369147689
2388+368975303+368493404+367726760+366606601+364973130+362745326+359980975
2378+356811861+353399314+349896783+346386369+342907146+339533223+336343042
2368+333468797+331291607+330219597+330087104+330291129+330730706+332062435
2358+334885468+339180605+344702396+351453605+359210259+366791165+372533641
2348+375344011+375177377+373072765+370496564+368067574+365492643+362620565
2338+359543490+356027885+351805699+347369291+343818573+341813658+340996922
2328+340510355+339815466+338954616+338343997+338442611+339407229+340918928
2318+342369442+343275901+343607339+343803258+344441295+345758605+347480904
2308+349152886+350518645+351516807+352139902+352467268+352644249+352734085
2298+352771102+352897768+353228123+353687721+354160393+354623764+355054339
2288+355385254+355572657+355610496+355568585+355614493+355821843+356004091
2278+355915824+355546323+355087397+354713077+354465796+354271856+354032271
2268+353737439+353470697+353279522+353107060+352888766+352649143+352476943
2258+352482060+352757954+353246501+353678009+353828544+353761644+353627246
2248+353397521+353046734+352797324+352917379+353387249+353936944+354337599
2238+354576998+354782106+355000811+355125273+355086836+355015379+355071521
2228+355216379+355299602+355311780+355424849+355788710+356342066+356812347
2218+356917871+356639960+356300753+356328768+356927433+357932954+358927119
2208+359522199+359647072+359579985+359678337+360081045+360642806+361106289
2198+361344903+361457001+361628305+361944054+362380344+362907702+363499420
2188+364079819+364573932+364998045+365429478+365912572+366453937+367072437
2178+367775581+368499867+369135213+369614011+369986800+370438479+371177706
2168+372249305+373508830+374821061+376171766+377571217+379059122+380867632
2158+383312684+386390992+389697828+392846136+395773834+398606541+401424905
2148+404171326+406689143+408950042+411212398+413717403+416320162+418716505
2138+420908935+423175214+425711857+428506875+431462662+434514785+437620734
2128+440670465+443527490+446185607+448705740+450956554+452601344+453369557
2118+453228921+452312675+450749727+448601300+445978183+443108084+440180275
2108+437226766+434212183+431097419+427821848+424396115+420978562+417717522
2098+414587218+411476338+408345774+405228469+402168017+399226162+396493114
2088+394030020+391820556+389802567+387934702+386247703+384841267+383768360
2078+382922750+382123011+381297497+380512026+379849449+379338004+378972125
2068+378744418+378604267+378384143+377913189+377275153+376759935+376486843
2058+376275758+375923439+375416813+374875560+374444388+374228596+374239466
2048+374393960+374571091+374677063+374698691+374715462+374863196+375283050
2038+376054887+377136496+378365616+379532391+380502314+381319199+382119201
2028+382898919+383479057+383710164+383574533+383115794+382405179+381529649
2018+380520580+379345101+378014081+376663899+375491744+374585136+373829959
2008+373039557+372141055+371200380+370348980+369720469+369331917+368978963
1998+368414215+367714994+367280758+367298763+367379334+366980398+366104943
1988+365245325+364732834+364456567+364163043+363808184+363536549+363391916
1978+363209892+362866986+362465697+362160257+361996798+362018164+362268321
1968+362580671+362611339+362204073+361522594+360794685+360176521+359837201
1958+359867981+360052321+359985346+359517492+358924206+358581449+358595868
1948+358856894+359383766+360309462+361328991+361609703+360779781+359536281
1938+358718836+358404057+358229915+358062421+358023013+358112475+358105266
1928+357942106+358059470+358868885+359995543+360729952+361105504+361522594
1918+361627334+360805107+359486676+358738969+358953155+359607850+359932939
1908+359623987+359032979+358657015+358554704+358437339+358182214+358034556
1898+358309403+358933208+359431990+359632877+359992144+360685426+360983209
1888+360304457+359201556+358462852+358137315+357924251+357738043+357607268
1878+357505218+357425917+357496739+358115053+359824053+362587806+365090271
1868+365479345+363512008+360871372+359115269+358561801+358733366+359057371
1858+359202153+359124047+358957786+358880913+359067718+359618011+360601306
1848+362340749+365101813+367884990+368478911+366383190+363825404+362598937
1838+362505142+362548659+362491172+363177357+365345881+368236561+369976864
1828+369952808+369270882+368518207+367348480+365989483+365261574+365354211
1818+365738056+366081896+366715188+368089500+369981832+371466113+371864937
1808+371519753+371352372+372069709+373848262+376254429+378375888+379487567
1798+379844144+380602496+382816778+386218941+388662312+388142538+385829680
1788+384457795+385092320+386981290+389174505+391414000+393487758+394954558
1778+396089658+398209435+402511632+408529703+413439866+414535932+412672923
1768+410347476+409006297+409456332+411915504+415089736+417092298+417961739
1758+418995910+420388301+421991143+424816006+429717877+435346910+438859154
1748+439351660+438577807+438337324+439320806+441466208+444064112+446177539
1738+448257497+452169648+458248082+462959450+462870847+460253782+458317896
1728+457774215+458621842+460811172+463860380+467719265+473489158+481959266
1718+491195346+496521366+496022510+492959480+490779601+490905781+493655414
1708+498758658+504997077+510650539+515799765+522461438+530978387+538002127
1698+541292453+542370253+541871844+540228698+539869618+542492698+547664859
1688+554746423+564437170+576247844+584655534+585378176+583055270+583026396
1678+586853194+593852916+601762832+608416361+614370893+620986433+626717890
1668+629041879+629755855+632685047+638526622+644531730+648343363+651270239
1658+656226683+665217611+678875793+693908063+701458488+701571072+703280147
1648+708759093+713548642+713402664+710696772+709679635+711878863+717557800
1638+726310039+735042332+737554807+732630263+726712860+724045069+724349799
1628+725895490+727617564+729035804+728795172+725779245+721923984+720158654
1618+720245240+718658983+713454063+707309551+702693547+699416817+696307581
1608+692782451+689320223+686680372+684829727+683027717+681039909+679634519
1598+679420035+679783036+679580879+678488661+676972778+675397429+673887150
1588+672546306+671331718+670166511+669274582+669092371+670135432+672989917
1578+677474511+681175727+681160262+679293555+679874030+683811992+688428444
1568+691060526+692492961+694950750+699903460+708859276+723370613+740835571
1558+750562290+749901879+748641868+751316906+756934659+763767223+771138949
1548+779407908+789415675+801444942+814511070+826799870+834920087+834079781
1538+826849476+821622517+821307477+823532703+825034615+825854227+828393747
1528+833169624+838293562+842515038+846904605+852017710+856054136+858001079
1518+859116755+859815864+859637763+859653974+862112586+868452606+878395154
1508+888705933+891924839+885112595+876923872+873623610+875210165+879862402
1498+885011890+887696117+887258034+886493855+887990090+891404728+893960310
1488+893538812+891332113+889819294+889877864+890623367+891149604+892082621
1478+894801587+899580826+905214192+909577835+910421652+907853221+905023539
1468+904348262+905536703+906582976+906235364+906072054+908670293+914582242
1458+920858014+922080597+917370536+911516336+907602280+906240444+906997451
1448+908458200+908983914+908061131+906494971+905671848+906696904+909375529
1438+911817705+911652079+908967702+906636840+906555783+908456706+911115831
1428+913408593+914873824+915687982+916583422+918600888+921849378+924140646
1418+922685799+918421217+914678913+912649344+911339355+909842000+908589684
1408+908508702+909410342+909806439+908773165+907282683+906614577+906821516
1398+907448085+908138304+907787180+905083156+900949760+897961176+896945980
1388+895978075+892928978+888768015+886633408+888191799+892676543+898466345
1378+904493268+910105044+914290137+916086246+916065552+916011987+916732014
1368+917713218+918904647+921222735+924666509+927296574+927493352+926402105
1358+926285189+927570450+928802371+929017303+929018722+929708942+930637028
1348+931239093+932084927+933782647+935886175+937616168+938643242+938885218
1338+938413966+937821912+938044763+939657167+942393316+945224193+947107261
1328+947726135+947476015+947094411+947292385+948219800+949386053+950520331
1318+951995872+953866165+955310851+955583831+954673226+952896914+950893568
1308+949880987+950668625+952487220+953684178+953465958+952323612+950913141
1298+949280641+947357530+945577782+944506407+944038815+943445267+942277594
1288+940773815+939306791+937783961+935693282+932658753+928875957+924929628
1278+921232447+918022804+915770459+914828626+914709169+914395250+913480162
1268+912405575+911432963+910034819+907709634+904809279+901967943+899293727
1258+896691154+894305457+892021137+889316066+886186435+883527310+882138579
1248+881920210+882416489+883521483+885139788+886782673+888167743+889666518
1238+891451495+892733096+892654280+891517835+890414261+890050960+890366972
1228+890946774+891716780+893229226+895896121+899210652+902283655+904747123
1218+906669562+908229297+909767442+911361020+912400495+912496568+912453089
1208+913389094+915417393+917916421+920471554+923045962+925724586+928555837
1198+931356309+933720192+935446972+936743141+937888102+939057568+940437707
1188+942118618+944118901+946683074+950080680+953855033+956816797+958324014
1178+959063838+960018745+961331872+962713282+964185759+965759166+966997437
1168+967494239+967535926+967891009+968939374+970376739+971920637+973891560
1158+976399478+978492548+979238424+979019084+978745731+978799296+979690253
1148+982300894+986316626+989584017+990325859+989331656+988818418+989954938
1138+992295139+994974360+997621010+999968980+1001483667+1002076468+1002657391
1128+1004062109+1005783660+1006811929+1007623697+1010026353+1014349431
1120+1017894359+1017559895+1013868391+1010745708+1011271347+1014968230
1111+1019362578+1023249141+1027105897+1030884808+1033566121+1034859152
1103+1035145878+1034236693+1032556230+1032236857+1034573547+1037537254
1094+1038120268+1036444214+1035092089+1035101278+1035304108+1035270042
1085+1035794037+1036804003+1037635195+1038719120+1041088158+1044681347
1077+1048749823+1053017841+1056436738+1056788086+1053972225+1051407230
1068+1052198229+1056024803+1060775579+1064886040+1066735490+1065081175
1060+1061810497+1060614062+1061838885+1061964244+1059524458+1058022248
1051+1060556687+1064954920+1066469607+1063708730+1059508396+1057190309
1043+1058375015+1062802831+1068504480+1072760246+1073741823+1071552531
1034+1068163516+1065923722+1065169105+1064407242+1063454576+1064047901
1025+1066571956+1069051635+1069777265+1068016642+1063406465+1057717368
1017+1054783096+1056242425+1059396261+1060594489+1059238255+1057313352
1008+1056686260+1057653867+1058746309+1058199079+1056140599+1054037743
1000+1052719685+1052552714+1053993068+1056260205+1057229231+1056386236
991+1055588663+1054962094+1052229233+1047440207+1043397580+1041267381
983+1039630996+1037219748+1034230567+1031425687+1028872646+1025505297
974+1020466077+1014813661+1010889818+1010102255+1011500624+1012150501
965+1009495484+1003971490+998236671+993565832+988943553+983868100+979671352
955+977108823+974644533+970550583+965356196+960917248+958377056+957864938
945+958455349+958065378+955440020+952014025+950165547+950698806+952880030
935+955300840+956291382+955119601+952754448+950463703+948672973+947697373
925+947861205+948394241+948003896+946942084+946789756+948107963+949754732
915+950359262+949388219+947242705+945291728+944939932+945958564+946797077
905+946773096+946537993+946379464+945700899+944390611+943373249+943352705
895+943794448+943541041+942392121+941183060+940018003+937955787+934930671
885+932474973+931854605+932537727+932959897+932256754+930959165+930183108
875+930506814+931630558+932652104+932793599+932109506+931103500+929911024
865+928476648+927129902+926515062+927132293+928803043+930725033+932441579
855+933982862+934494680+932258248+927454953+923358537+923169154+926735374
845+930985985+932829384+931610761+929057346+927334973+927485209+929104785
835+931105591+933003974+935026222+936632051+936301622+933809093+931281004
825+930578831+930872580+930338275+929475855+930680433+934479590+938216216
815+939397037+938685526+938252001+938967620+940537740+942864045+945523993
805+947049288+946510276+944717828+942848955+941372443+940631946+940934809
795+941965095+943309748+945081129+947123024+948478062+948274560+946496231
785+943843232+941444984+940506886+941628539+944373951+947405193+948944384
776+947815410+944692876+941775264+940657944+940842844+940786515+940158004
766+939960179+940586748+941051352+940682298+939840947+938713467+937411844
756+936576096+936563918+936709523+936405539+936281227+937282825+939217441
746+941291311+943344039+945239284+945968426+944925514+943486356+943688588
736+945704037+947866061+948950585+949118825+948891043+948288530+947243602
726+945922481+944297750+942536978+941882842+943443698+945547899+945067532
716+942159707+940021738+939687498+939084164+937516808+937300605+939600539
706+941770034+941070776+938144721+934708417+931136072+927799726+925879604
696+925601992+925539163+924525686+922617143+919927687+916378425+913091984
686+911804780+912121987+911422653+908002187+902670638+897129237+893043878
676+892151426+894254058+894854629+888031477+873335539+860170723+860068374
666+870050218+880467903+888006899+892353808+892688720+889311136+884278341
656+879678996+877264462+877912247+879369260+877663099+872566429+868064577
646+866728590+866940459+865720940+861868742+856129142+850233853+846485572
636+846584036+849439418+851628187+851728220+852462740+857007175+864794123
626+870881036+868788490+856865232+841226564+829593468+825205246+827561957
616+834333412+840552183+841974532+840515053+839643744+838418547+834078287
606+827885141+824341707+824773140+826323687+827591541
##END=
