##TITLE=<SNM>
##JCAMP-DX=4.24
##DATA TYPE=INFRARED SPECTRUM
##DATE=2/5/2025
##SAMPLING PROCEDURE=Instrument type and / or accessory
##ORIGIN=Admin
##XUNITS=1/CM
##YUNITS=ABSORBANCE
##RESOLUTION=4
##FIRSTX=4497.3318
##LASTX=599.83466
##DELTAX=-1.4281778
##MAXY=1.7213429
##MINY=0.20205902
##XFACTOR=1
##YFACTOR=1.6031255e-09
##NPOINTS=2730
##FIRSTY=0.22400568
##XYDATA=(X++(Y..Y))
4497+139730596+139311435+138661338+138606143+138937113+138731274+137811889
4487+137002456+136936889+137472331+138209021+138906699+139368367+139395239
4477+139036858+138761139+139201929+140579003+142312273+143338263+143020102
4467+141685692+140162426+139039479+138555430+138773287+139444921+140038365
4457+140302921+140509337+140786711+140611341+139505794+137950683+136997130
4447+137130198+137982472+138852779+139001063+137925651+136046486+134718881
4437+134911623+136071862+136665724+135765254+133902132+132344604+131820056
4427+132168853+132929376+133758886+134368568+134490882+134029428+133203450
4417+132567770+132685278+133574416+134593834+134959828+134336277+133051122
4407+131803194+131057869+130794252+130820734+131002294+131122024+130913554
4397+130321932+129487914+128545961+127692265+127321921+127766811+128867226
4387+129983155+130523050+130436819+130172189+130180229+130497795+130779575
4377+130686541+130180201+129484530+128910551+128658487+128607606+128398383
4367+127903913+127448780+127313602+127247012+126857707+126373861+126474434
4357+127330528+128385416+129161490+129633642+129765232+129471592+129104502
4347+129165468+129473516+129352791+128608535+127703567+127085483+126818166
4337+126761903+126764589+126771700+126875191+127059875+126996650+126495794
4327+126040670+126265239+127001297+127478636+127370339+127018354+126781394
4317+126789806+127129653+127730941+128289287+128592390+128733424+128923694
4307+129270344+129748362+130325799+131079899+131989746+132620724+132403405
4297+131302395+129964109+129224157+129474919+130343934+131142306+131693736
4287+132233612+132520179+131896378+130387379+128874765+128046788+127890528
4277+128172978+128744466+129325594+129545218+129375304+129254031+129604018
4267+130309579+130852123+130961256+130817043+130538814+130018458+129457212
4257+129431595+130146005+131121689+131764508+131903786+131857933+132155440
4247+132962633+133797563+134132306+134023126+133784178+133459910+132995324
4237+132525161+132214696+132039085+131809264+131376393+130891432+130742004
4227+131086814+131667644+132126830+132275477+132183140+132230033+132812769
4217+133775794+134452772+134409169+133808578+133028377+132374553+132168853
4207+132606307+133482878+134375307+134984813+135112480+134639036+133787961
4197+133078617+132795108+132737116+132564535+132201916+131892195+131976919
4187+132681402+133991300+135489935+136376405+136117863+135170881+134602590
4177+134983530+135997873+136955683+137407786+137503237+137824651+138613979
4167+139375626+139568202+139275249+138830619+138304481+137729758+137355287
4157+137344133+137535668+137698396+137764150+137701566+137429797+136995708
4147+136586018+136241134+135856346+135518638+135466186+135717682+136089095
4137+136511416+137038948+137645870+138186350+138460443+138340862+137972052
4127+137722182+137765144+137849571+137693563+137473223+137571054+137909366
4117+138025797+137836409+137734350+137851207+137837079+137508387+137177891
4107+137188525+137478261+137745941+137872595+138059826+138580879+139418198
4097+140158606+140353421+140002997+139514504+139151234+138835341+138580638
4087+138679844+139253331+140009448+140622169+140977111+140993656+140653893
4077+140250125+140138863+140233738+140188108+139999558+139933944+139973550
4067+139881473+139702385+139723020+140025063+140392702+140554557+140377570
4057+139961364+139583074+139519393+139926908+140738172+141570266+141940284
4047+141686566+141026812+140234491+139500877+139057010+139110113+139556174
4037+139952618+139952599+139663690+139480131+139690515+140250181+140797000
4027+141012404+141072608+141424027+142051695+142483154+142517685+142367569
4017+142152370+141778634+141241230+140713651+140455258+140688685+141332006
4007+141906088+142041656+142014571+142415476+143299261+144043005+144175098
3997+143953949+143856667+143895363+143846127+143800079+143979232+144290542
3987+144542383+144852755+145366948+145769667+145601026+145056595+144973172
3977+145822834+147111744+148011395+148200550+147793305+146966063+146103871
3967+145819618+146394360+147487265+148495557+148964242+148798242+148300137
3957+147835719+147470488+147171335+147236735+148147261+149837142+151360195
3947+151821137+151572048+151631843+152090220+152081724+151282060+150374230
3937+150140431+151041606+153185988+155851711+157477809+157169547+155963735
3927+155578929+156370673+157194774+157211003+157095744+157828214+159103461
3917+159471527+157830650+154684994+151679778+150048986+150025562+151746972
3907+155924519+162726734+170227612+175276192+176549560+174846109+170878936
3897+165700803+161829983+161510735+164237945+166437697+165436172+163671020
3887+164708480+167891799+169994641+170727390+171725438+171457369+167905853
3878+163882557+163417135+166812474+172023215+177491355+181348976+181267216
3868+178558949+177063633+177468136+176838358+173344900+169080564+167361162
3858+170280037+178674524+190799960+198146038+192561356+180414784+170531524
3848+165960191+166725956+171224620+177049561+182739369+188138986+192204370
3838+192520272+189001996+184791163+181865410+179626823+177394742+175839082
3828+175543759+176391990+179285266+185746491+193791391+197282080+194940578
3818+191817472+189175014+184286124+177788054+173652418+174394164+179673651
3808+186196094+190212827+192671800+196761928+200938816+200549631+196441490
3798+192921373+190442713+187479705+184649655+183680830+184878220+187377980
3788+190535924+193985361+197141111+200111610+204183594+209636899+214323045
3778+216635769+218440630+222738948+230884700+242275676+254339280+263933873
3768+270701779+276540811+282379415+288970418+298255987+310876440+324058390
3758+334930050+345256425+359489145+380431938+406473559+429892335+444374423
3748+454167744+465141762+475373253+478608754+477059973+478556590+486830168
3738+501768086+519886182+534068783+538642105+535622063+531489848+530029741
3728+531164855+533184934+534333209+533650691+531028775+527286060+524387746
3718+524488022+528756577+537033464+547240006+554947105+556665875+554162639
3708+551414384+550957253+553860214+558770241+562318764+563411380+564299803
3698+566074715+568063934+570870115+576195631+584143435+591701144+594109793
3688+590318521+585277471+583715527+586263454+590474752+593940511+597781494
3678+604632071+611562102+610947252+604549047+600944606+600405566+596159133
3668+586684558+577850600+573417707+572101563+571437523+571806426+575406703
3658+581802863+587143288+589864215+593736020+602425384+614399663+621549393
3648+616983246+605167504+594940661+590613695+591675080+595492528+600176982
3638+605364262+610613410+615026783+618941977+623988865+629782443+631260211
3628+625254853+618262954+616927513+621585569+629246453+636720431+642189278
3618+645866183+649254422+652732413+655309601+656889391+658561760+660336077
3608+660675607+658972973+656850946+656519968+658726617+662286256+666014397
3598+670186916+674658215+677577015+678235627+679130630+682900710+688495672
3588+691485338+689340110+684896547+682234886+682374981+683504369+683424506
3578+682074416+681633234+683390895+685961762+688023185+690462359+693480877
3568+694031591+690093754+685179414+683589660+685310289+687443173+687852453
3558+686869258+686474924+688196742+691202767+692945556+692563714+692067134
3548+692759208+693114800+691559252+689328584+688442355+688780398+688915065
3538+688434324+688097694+688370895+689249167+690859296+692927709+694496270
3528+695258169+695866512+696187898+694930462+691731173+688314753+686225742
3518+684753329+682316013+678834973+675924575+675066083+676077535+677604454
3508+679002507+680670860+682411864+682998494+681826423+679722763+677808277
3498+676521021+675562588+674543105+673897730+674630404+676917735+679557757
3488+680990239+680947630+680899593+682289243+684522142+685538725+684592710
3478+683242471+683010020+683405469+682540582+679329991+674797492+670951862
3468+669322995+670187957+672754585+676010908+679022882+680598730+679628995
3458+676204320+671696583+668034921+666837940+668230192+670457811+671469263
3448+671052472+670906874+672512095+675192124+676749382+676342258+675445991
3438+675057308+673742837+669946954+665116865+662835483+665323661+671312065
3428+676910894+678960939+677622003+675340027+674042584+673964580+674655687
3418+676108543+678573744+681634796+684056422+684604310+682607804+678467408
3408+674317123+672892450+674827683+677636801+678018866+675532472+673007857
3398+672809612+674200526+674913495+673665056+670420408+666100432+662507404
3388+660998257+661449328+663215837+665785663+668127351+669102441+668614339
3378+666976994+664426278+662589052+663832658+667832884+671268118+671915649
3368+670711306+669346195+668472682+668173901+668210784+668174422+668114041
3358+668166614+667830876+667096789+667414754+669642299+672238077+673272581
3348+672705730+671454242+670182156+669596270+670184833+671414088+672489713
3338+673535966+674898772+676225884+676870441+676532770+675511800+674595455
3328+674128322+673324633+671564816+669744247+669088610+669338982+669409550
3318+669016778+668508821+668029196+667793175+668116792+668552248+668074555
3308+666671967+665816226+666647056+668404121+669415722+669165127+668457438
3298+668000418+668002574+668874452+671066452+674117763+676712425+677804484
3288+677200454+675235997+672696807+670915649+670697772+671317493+671806860
3278+672607797+674377504+675857725+674879810+671378097+667926801+667200522
3268+669333182+671922342+672659478+671477592+669919143+669608316+671400480
3258+674582442+677044966+677192943+675431788+673396837+672511352+673151968
3248+674343373+674671451+673707292+671767746+668933048+665834221+664446951
3238+666376086+670644679+674329839+675545485+674842109+673753842+673215621
3228+673380032+674038643+674865532+675331178+674762171+673237557+671948071
3218+671564445+670926134+668600433+665097531+662243425+661196949+661892443
3208+663543842+665122739+665703123+664879357+663241269+662161256+662311018
3198+662697247+661976098+660242159+658653074+657906941+657798225+657849014
3188+657903594+657793541+656825515+654565252+652061979+651035952+651707576
3178+652556030+652430138+651719102+650955196+649598562+647212556+644862316
3168+643927455+644211959+644625032+644990885+645717016+646607038+647181547
3158+647138715+645857706+643008879+640060633+639185558+640628152+642549852
3148+643242372+642526280+641024643+639156483+637269361+635907522+635236269
3138+634687339+633835391+633099370+633029843+633463291+633732624+633330854
3128+632236713+630944550+630236489+630394059+630605094+629816798+628218790
3118+627125616+627100482+627035491+625621971+623300732+621929263+622436254
3108+623683429+623986782+622936328+621104307+618994067+617093560+615895091
3098+615229601+614531319+613822105+613433608+613138062+612655574+612391259
3088+612746777+613370476+613592256+612981570+611633823+610509863+610664161
3078+611449706+610751089+607899101+604832584+603433676+603450445+603770530
3068+604070240+604465354+604828531+604985878+604845746+604245731+603112067
3058+601705054+600475019+599633072+598926460+598125040+597657981+598117975
3048+599155193+599674044+599162258+598120318+597272719+597001377+597326036
3038+597857119+597758442+596280972+593783834+591772121+591248065+591432776
3028+590802459+589019070+587111648+586049854+585841458+585924854+585877523
3018+585564502+585008248+584455675+584235382+584200395+583656671+582097442
3008+579715711+577204778+575284343+574245489+573836469+573573976+573114539
2998+572498536+572158337+572430645+572906850+572785977+572039881+571337099
2988+570702506+569368627+567150935+564963694+563699267+563352710+563435138
2978+563617136+563736299+563607543+563091407+562232654+561229158+560350998
2968+559885910+559938445+560207854+560162456+559563631+558668627+557743991
2958+556667288+555383787+554338650+553910779+553787676+553364638+552398695
2948+550975731+549329686+547932898+547282652+547404641+547757630+547624116
2938+546606826+544909844+543104407+541534433+540183562+539169545+538854107
2928+539194232+539486990+539122735+538242864+537380765+536761862+536139761
2918+535142029+533669541+531969176+530435378+529479882+529343802+529696606
2908+529698093+528836440+527410874+525953556+524641018+523509474+522722665
2898+522339968+522100379+521597925+520645217+519448198+518308288+517266795
2888+516349892+515805721+515592976+515142016+514178675+513239316+512879262
2878+512926072+512835501+512308099+511372978+510268538+509344348+508826352
2868+508587952+508241060+507512959+506497380+505491802+504710719+504226595
2858+503919337+503342299+502069767+500406991+499276487+499145315+499480830
2848+499429187+498648327+497399701+496163160+495144123+494044368+492597237
2838+491196842+490363335+489840469+489060018+488153079+487560760+487059347
2828+486134376+484947954+484117904+483833140+483741677+483452080+482786107
2818+481755581+480561351+479535250+478886491+478422184+477621841+476194081
2808+474553390+473493567+473335736+473637938+473762603+473404446+472511747
2798+471162066+469710102+468682179+468306547+468242857+467795095+466487725
2788+464592795+462906112+461876181+461262744+460696042+460105694+459496830
2778+458728723+457653320+456337510+455120823+454347920+453952916+453504411
2768+452745822+451838772+451031142+450337246+449592897+448683431+447656028
2758+446647030+445792627+445205328+444832298+444316124+443355646+442211535
2748+441373863+440781098+439957815+438903866+438195396+438081290+438007896
2738+437285706+435915576+434483392+433410890+432587421+431721939+430795146
2728+429982088+429287003+428554217+427786407+427126160+426526925+425771199
2718+424820499+423831355+422843810+421794955+420817783+420171552+419869872
2708+419676869+419468176+419281196+419014130+418439658+417567186+416673595
2698+415929767+415265801+414589641+413869161+413000258+411849492+410535355
2688+409497840+409063314+408952145+408503081+407496946+406428496+405817067
2678+405610679+405415520+404978243+404276688+403387262+402445597+401617778
2668+400981586+400457716+399887743+399200912+398518765+398031146+397737459
2658+397406740+396859149+396163804+395461468+394746008+393966673+393182987
2648+392454402+391739091+391037871+390474702+390121117+389849329+389432092
2638+388766826+388018164+387498755+387323116+387260318+387010392+386487452
2628+385751840+384870407+383957855+383211349+382776154+382577128+382330511
2618+381792178+381005369+380237931+379691270+379332703+378973244+378472612
2608+377895611+377410372+377016223+376541692+375971160+375549127+375409924
2598+375288642+374801320+373905387+372910703+372107386+371532691+371082066
2588+370715171+370436951+370112739+369543695+368802023+368201636+367841396
2578+367491567+366989076+366407204+365816930+365209516+364655195+364284025
2568+364109426+363996547+363800086+363495097+363161515+362839125+362473420
2558+362054175+361715983+361605484+361678097+361700888+361475204+360983011
2548+360285733+359453006+358693264+358295026+358253385+358206612+357898908
2538+357426904+356923186+356352803+355754721+355335700+355179394+355135075
2528+355085365+355072501+355107227+355098824+355007993+354882770+354736391
2518+354488956+354035320+353397157+352820454+352605552+352793796+353118194
2508+353251894+353046101+352595885+352121577+351735348+351345587+350814876
2498+350156897+349568036+349265574+349229546+349145593+348738321+348110978
2488+347632802+347542975+347724006+347834766+347641614+347185152+346656039
2478+346221402+345953295+345795130+345613876+345353391+345083834+344893323
2468+344796282+344737574+344664032+344592385+344550706+344464411+344219988
2458+343824724+343403360+343088369+342948162+342928680+342865325+342646184
2448+342339149+342095507+341987796+341976902+341965599+341860119+341640681
2438+341382464+341161501+340974224+340804050+340684516+340603760+340447640
2428+340148562+339809032+339612608+339662170+339879600+340048138+340025495
2418+339861047+339615880+339282336+339013151+339099186+339516386+339804979
2408+339617293+339168862+338947714+339103313+339321041+339300406+339129823
2398+339038582+339005417+338890753+338772818+338828811+338993408+339005529
2388+338715114+338141906+337294976+336046760+334142461+331364128+327793297
2378+323838506+319892303+316060839+312320243+308762202+305509059+302512310
2368+299692168+297314619+295913351+295617730+295941682+296579658+297970238
2358+300703490+304815795+310118074+316859731+325179673+333809288+340355731
2348+343069147+342165889+339801670+338117181+337047095+335269469+332416032
2338+329065011+325631710+322098246+318475958+315182566+312848947+311718834
2328+311388859+311232757+310957456+310715171+310802990+311373317+312427657
2318+313856160+315331957+316396205+316912267+317330917+318253694+319768604
2308+321415802+322741465+323622786+324119142+324367246+324623493+325091481
2298+325723323+326388255+327086909+327805641+328367175+328634166+328709419
2288+328786345+328917554+329032404+329081259+329070105+329015375+328926403
2278+328786196+328563524+328305083+328126246+328040248+327951350+327861857
2268+327889780+328078618+328369517+328712765+329072596+329401902+329670826
2258+329847210+329879519+329779133+329662535+329649373+329753144+329889558
2248+329966819+329966001+329964439+330097582+330447857+330920158+331286235
2238+331439381+331539916+331802557+332208901+332583083+332923840+333458307
2228+334297205+335220614+335940127+336459052+337060369+337985116+339175591
2218+340362609+341404921+342419756+343536949+344746646+346072607+347650946
2208+349543831+351658794+353862022+356033871+358076109+360013685+362029190
2198+364257143+366598906+368860173+370987517+373037079+375021688+376917435
2188+378719191+380432867+382093078+383711573+385155654+386254889+387059061
2178+387796532+388578508+389268536+389643313+389651084+389439677+389090629
2168+388519428+387706147+386758793+385715998+384509164+383045228+381224287
2158+379028903+376576753+373974282+371224652+368278525+365111286+361829643
2148+358548782+355194749+352056548+350400762+351483823+355031714+359610873
2138+364204533+368607496+372829427+376920261+380967929+384978342+389045603
2128+393414843+398160013+403138154+408266243+413562275+419056739+424775771
2118+430671633+436655389+442709156+448758386+454597325+460185706+465827143
2108+471951775+478896604+486855934+495964729+506532627+519071599+533749553
2098+549685167+564971985+577674365+586862168+592763384+596273834+598221151
2088+598627605+596762345+591887454+583513453+571447487+556264625+539118831
2078+520999322+502803854+485506587+469618007+455160383+442301437+431338276
2068+422247327+414693931+408235681+402534644+397619226+393613646+390250839
2058+387186515+384466183+382167996+380123528+378276709+376773808+375706065
2048+375093743+374862668+374803105+374848874+375156317+375837757+377131705
2038+379734101+384449675+391718493+401711324+414545359+430252612+448636844
2028+468994716+489911557+509536644+526146336+538785361+547821022+554471160
2018+559474956+562724995+563983845+563214697+560436289+555720343+549180036
2008+540944308+531223191+520250697+508250615+495594488+482758705+470039185
1998+457614058+445932648+435593632+426615749+418231077+409792233+401575541
1988+394284899+388220610+383243622+379081550+375444204+372144269+369192155
1978+366643076+364449737+362519226+360793355+359336557+358377678+358002604
1968+357778518+357057816+355736206+354309784+353182516+352363397+351806808
1958+351565062+351498807+351243639+350627934+349863358+349265946+349025129
1948+349296062+350291415+351980440+353595589+353889982+352451589+350287399
1938+348621054+347838781+347707126+347875366+348049816+348089785+348038811
1928+348117038+348741964+350091571+351530819+352305024+352765316+353560267
1918+353959174+352723637+350365999+348654293+348461885+349268883+350050264
1908+350162362+349685674+349122616+348794611+348638900+348523381+348565841
1898+349033532+349867634+350581235+351078149+352033199+353602058+354515168
1888+353677608+351849008+350419687+349787920+349655112+349748100+349877152
1878+349950063+350043534+350345661+351383585+354049969+358471596+362649208
1868+363504020+360542797+356500818+353851203+352971220+353015576+353168499
1858+353123288+352992748+352992785+353203671+353735424+354870463+356847152
1848+359837673+363803767+367386533+367848907+364604816+360692113+358738959
1838+358690587+359102433+359319492+360409729+363689475+368324554+371388022
1828+371579873+370547079+369332176+367301836+364659360+362852436+362499000
1818+362841914+363117531+363623852+365148689+367585819+369554440+369808047
1808+368738184+367873594+368489448+370952530+374490567+377331066+378033996
1798+377232129+377301842+380118360+385010205+388196517+386342337+381473432
1788+378061324+377779423+379404052+381410114+383391636+385035376+385711574
1778+385978119+387897477+393102231+400661055+406342833+406332757+402046132
1768+397093868+393555533+392713623+395003891+398597364+400693551+401177080
1758+401708870+402388525+403047843+405450544+411166379+418398090+422773577
1748+422539341+420185086+418580646+418885264+420908428+423382961+424815480
1738+426053100+430196321+438010685+444189079+443078579+437708520+432861217
1728+429847495+429111512+430750976+433760273+437803367+444697334+455979911
1718+468795170+475631284+473391916+467420727+463122464+462576918+466141911
1708+473162514+481453975+488309757+494183942+502499831+513912204+523167490
1698+526393585+525644216+522124695+517281295+515282781+518465561+525668049
1688+535401287+548467959+564151825+574158450+572420644+566541959+564400599
1678+567823489+575281926+583386779+589946978+596647830+604776367+610762838
1668+611049163+609563960+612012764+618506373+624312036+626079883+626404467
1658+630031849+639961436+656632773+673579541+676632265+669257409+666743204
1648+670805967+673187810+667548008+658831911+653606968+653402476+658097675
1638+667135010+676371036+677186920+668146611+658663559+654748625+655806776
1628+658712265+661403597+663836376+665273691+664143113+662071800+662853255
1618+666789903+668881293+665249821+659759559+657161030+657723270+659210555
1608+659805440+659472230+659034916+658800011+658458621+657824846+657249965
1598+657259483+657923523+658752569+659205573+659076632+658446575+657621396
1588+657025619+656942410+657489927+658671962+660281793+662407687+666072695
1578+671931488+677360849+677749234+674626686+674068462+677899889+682251617
1568+682798539+680746262+679676808+681748345+689214143+704660539+724313660
1558+731292843+721294175+709479102+702677789+700411354+700908678+702420874
1548+704808814+710191477+720457991+735141819+751901125+765222445+765799334
1538+755609931+747884094+747668894+750857252+751446708+749692988+750486713
1528+755552005+762457943+768959285+775763647+783145642+788371850+789996256
1518+789868356+788653750+785936839+783406127+783997293+789634194+800770207
1508+814600004+820881091+811974556+798477745+791046822+791028901+795693984
1498+800218823+799950159+795643791+793121035+796331774+804074641+810554865
1488+810213252+804194435+798033069+795515147+796829098+799918258+803151008
1478+806863087+812231769+819324204+825606852+826343765+820504678+813862273
1468+811755341+814467568+818147894+819093389+819060745+822846737+832177276
1458+842576078+844688289+836982752+828067517+822877746+821509735+822545800
1448+823618154+822649682+819954410+817469726+816556653+817907487+822032936
1438+828005575+832160545+831616002+828857300+827465122+827703671+827945566
1428+827607671+827683445+828884739+831046252+834309787+838862586+842425869
1418+840913004+834732676+828661360+825311120+823956792+822992038+822008620
1408+821936639+823234007+824573761+824625813+824585956+826594732+830610945
1398+834518369+836461484+835749259+832812240+829748883+828847708+830013904
1388+830691254+828927645+826581273+827183742+831433447+837088864+842230004
1378+846960896+851825563+856121223+858694841+859908703+861439266+863982620
1368+866597731+868514969+870213067+871950129+872594910+871117886+868369669
1358+866024560+864588063+863154169+860897252+858325790+856416509+855170300
1348+853936584+852689558+852300801+853683535+856770539+860107097+861774483
1338+861253142+859858584+859016525+859007304+859411603+859912049+860467671
1328+861073189+861619665+862073933+862742360+864169562+866596690+869492067
1318+871832788+873093571+873742813+874532597+875674923+877051932+878836734
1308+881252931+883818816+885550078+886125554+886181845+886215754+885987318
1298+885341497+884716050+884191883+882987911+880706678+878140793+876130307
1288+874469911+872524639+870130006+867308321+863889520+860058614+856579804
1278+853862001+851490197+849173048+847505066+847305185+848556599+850271130
1268+851148064+850467814+848790835+847589019+847769121+848890106+850107909
1258+851283921+852648808+853985662+854830547+855242802+855941493+857602039
1248+860049319+862298502+863618625+864343640+865251285+866498609+867692021
1238+868652983+869530140+870428192+871557580+873583310+877063755+881470882
1228+885422401+887953709+889114774+889666604+890676569+892793762+895469998
1218+897560794+898855188+900041313+901333476+902430145+903584444+905462197
1208+908121776+911128098+914310432+917618436+920753922+923536271+926062894
1198+928213549+929809327+931319961+933357514+935705374+937859599+940018360
1188+942494046+944787920+946200399+946828745+947450548+948880278+951422368
1178+954466838+956903187+958222417+958810758+959324589+960510417+963084556
1168+966795370+970179667+972265555+973879179+976301474+979555863+982612676
1158+984331966+984189194+983100184+982980761+984516604+986447673+987747495
1148+988839405+990134617+991408116+992826692+994613353+995848035+995619972
1138+995164439+996749806+1000481367+1004005462+1005575213+1005856221+1006342019
1128+1007611874+1009354439+1010823580+1011492305+1012236282+1015015507
1120+1020165421+1025206323+1027828796+1028524662+1028739415+1028858541
1111+1029384047+1031312811+1034156284+1035833411+1035019387+1032170485
1103+1028792509+1026941080+1028307455+1032400706+1036809691+1039962801
1094+1042386435+1044899895+1046992996+1047699644+1047095242+1046314456
1085+1046484667+1047959683+1050255788+1052685891+1055081267+1057529885
1077+1059695413+1061265164+1062084320+1061536655+1059703444+1058720993
1068+1060308144+1062508473+1061754754+1058008767+1054960803+1055154140
1060+1057374695+1058822495+1058623803+1058791561+1061273790+1065294242
1051+1068659726+1070149911+1070279075+1070398870+1070728213+1070245018
1043+1068728286+1067354847+1067084993+1067855293+1069245836+1070427797
1034+1069929953+1067277438+1064245833+1063284946+1064833504+1066573020
1025+1066251783+1065277585+1066914484+1071046551+1073741823+1071869573
1017+1066305471+1060690060+1058183440+1059122019+1061669388+1064522454
1008+1067376486+1069167088+1068426308+1065355218+1061775055+1059041115
1000+1057208871+1055836027+1054658230+1053458199+1051631830+1048293413
991+1043192503+1037837726+1034790728+1034999681+1036691681+1037588097
983+1037384498+1037152196+1036842187+1035150335+1031909108+1028750421
974+1026895051+1025408955+1022328272+1017339349+1012778519+1011186237
965+1012091279+1011993941+1008103248+1001200582+994036241+988362382+984297091
955+981279094+978742507+976474734+974663906+973372635+972173720+970558237
945+968564482+966694537+965237814+963601213+960773579+957257961+955376639
935+956872401+961056297+965411446+967553030+966910554+964895607+963239969
925+962291798+961341768+960074069+958792688+957905790+957971376+959234985
915+960735432+961128650+960623965+960534956+960899694+960560610+959622106
905+959317822+959405419+958304957+955987585+954532275+955592954+958475466
895+960423638+958745469+953526400+947765614+944333652+943709841+944731406
885+946298852+947569897+947321533+944800561+941411654+939764642+940381537
875+941183665+940648194+939468687+938653324+938244861+938303829+939254231
865+940941547+942478728+943232595+943293645+943017842+942743154+942909275
855+943875962+945316401+946216312+945790895+944030335+941561490+939460061
845+938662693+938952997+939006760+937842050+935843982+934375659+934740844
835+937200244+940638602+943262711+943842203+942786952+941985122+942722035
825+943897378+943636298+942380200+942571158+945467501+949686347+952475388
815+951828897+948043722+943565582+941120755+941995087+945728953+950495390
805+953645897+953322057+950372918+947519927+946518885+947176083+948633625
795+950266433+951329566+951178168+950219066+949818709+950787775+952420956
785+953482081+953625002+953236245+952585962+952178317+952967952+955138536
776+957537482+958896049+958884300+957819234+956016288+953840647+952190587
766+952097785+953047741+952910323+950942073+949175415+949412626+951094736
756+952927426+954346745+954921181+954304434+953135561+952745465+953829791
746+955704495+956874632+956529004+955358718+954656680+954872623+955691481
736+957206652+959548117+961309867+960480672+957699439+956292910+957898131
726+960120544+960668582+961409064+964991978+969599209+970482538+966207996
716+959786368+954428244+951430102+951002528+952197056+953167015+952948023
706+952189248+951788296+951322948+949289931+944471665+937564091+931367254
696+928016494+926349256+923548615+919312146+916345160+916425841+917631895
686+916580437+912791693+908694352+906107423+904964725+904460783+903630250
676+901351917+896992828+890779261+883346180+876625549+875919718+884859417
666+896162964+901513800+900401738+895836893+890585849+887019220+886654779
656+887409166+884693593+877885811+871931465+870793228+873162801+875018989
646+874484857+873197676+873969092+877656929+881407675+880601012+874205559
636+867180718+864788391+866408112+867796498+867445739+867002699+866738868
626+864015785+856114456+844128651+833461185+830007807+835282572+844221379
616+849291876+847012874+839750525+832191553+827537772+827726425+834109014
606+845646722+856012656+857423871+849266147+838686500
##END=
