##TITLE=<SNM>
##JCAMP-DX=4.24
##DATA TYPE=INFRARED SPECTRUM
##DATE=3/5/2025
##SAMPLING PROCEDURE=Instrument type and / or accessory
##ORIGIN=Admin
##XUNITS=1/CM
##YUNITS=ABSORBANCE
##RESOLUTION=4
##FIRSTX=4497.3318
##LASTX=599.83466
##DELTAX=-1.4281778
##MAXY=1.7089871
##MINY=0.18289559
##XFACTOR=1
##YFACTOR=1.5916183e-09
##NPOINTS=2730
##FIRSTY=0.20170185
##XYDATA=(X++(Y..Y))
4497+126727527+127075261+127724010+128317325+128644649+128692893+128506097
4487+128245648+128202637+128573964+129270114+129967201+130328191+130326675
4477+130285668+130317940+129960657+128862312+127528488+126818866+126991478
4467+127570478+127887606+127641538+127136003+126946314+127228540+127494541
4457+127185333+126323386+125449475+124965801+124789200+124701616+124713609
4447+124918418+125277752+125636945+125770151+125525290+125079674+124832061
4437+124915048+125062672+124965005+124469123+123536819+122334610+121330590
4427+121050331+121618368+122546609+123129476+123120741+122754489+122095713
4417+120951681+119582308+118841743+119260976+120478034+121716250+122364232
4407+122183119+121444632+120775913+120559916+120609312+120518713+120109657
4397+119548304+119231672+119424544+119889550+120090408+119777820+119215607
4387+118897458+119008195+119063442+118376728+117048728+116012100+115873800
4377+116334452+116868242+117268985+117477304+117586216+117966062+118736146
4367+119361667+119356528+118999085+118797619+118637000+117967373+116650354
4357+115320659+114929924+115908141+117658324+119027771+119428093+119195496
4347+118742700+117982483+116918733+116138781+116151176+116670586+117078724
4337+117193656+117103834+116695527+115905482+115131260+114911715+115408233
4327+116423272+117554113+118197338+117979075+117362607+117199554+117591178
4317+117920505+117970350+118136127+118604363+119128669+119508430+119665230
4307+119436734+118767706+117948199+117466294+117707120+118641390+119687446
4297+120133652+119818565+119213219+118904676+119166174+119847485+120556527
4287+121043234+121323690+121391689+121181300+120838200+120531633+120135599
4277+119664874+119639886+120338031+121178659+121542618+121696505+122219969
4267+122966713+123322282+123260519+123348862+123695519+123749876+123338638
4257+123069052+123447718+124289358+125088493+125482776+125508897+125589038
4247+125922494+126112155+125891823+125662981+125745191+125829751+125664320
4237+125483272+125430591+125249702+124749317+124158970+123923509+124260710
4227+124983102+125811935+126647808+127348658+127647792+127569083+127481490
4217+127530642+127517319+127375500+127226883+127039385+126753620+126571889
4207+126682898+126943122+127158941+127389740+127676543+127799451+127630996
4197+127494045+127820779+128501771+128874156+128500498+127784537+127493342
4187+127758950+128014016+127925299+127803449+127968000+128328251+128717029
4177+129109991+129497870+129927299+130523563+131241546+131855271+132228255
4167+132296038+131961037+131354830+130908596+130858592+131009203+131171657
4157+131414065+131664431+131552102+130987492+130499315+130624685+131330909
4147+132266696+133085137+133395486+133014685+132347287+131978366+131994488
4137+132143826+132361470+132688476+132995727+133246729+133779368+134858894
4127+136074762+136660691+136410334+135827645+135438072+135385100+135530796
4117+135575145+135325537+135007145+134953321+135089393+135185712+135349336
4107+135808144+136483004+137101017+137521458+137811211+138117189+138392205
4097+138284062+137574767+136601999+135908919+135672512+135756061+136060522
4087+136537137+137081038+137661134+138358641+139094675+139526688+139408929
4077+138936958+138550577+138441423+138408196+138207020+137898701+137732062
4067+137806951+138024146+138266732+138490912+138723255+139012474+139280460
4057+139323274+139127518+138995070+139150671+139445199+139621434+139667019
4047+139807884+140240729+140840963+141182714+141010111+140563138+140254651
4037+140203308+140245813+140263864+140398512+140979572+142132030+143436793
4027+144236968+144318270+144074167+143995309+144181983+144366710+144293984
4017+144033741+143844445+143763864+143533019+142988996+142404079+142279486
4007+142801900+143655159+144432536+145009196+145359214+145317402+144818496
3997+144198732+143996797+144420113+145083036+145381047+145177736+144978844
3987+145296627+146038671+146699142+146957007+146849697+146557650+146353936
3977+146610669+147452412+148414797+148808630+148473789+147865690+147447047
3967+147386529+147785727+148668374+149669491+150176795+149952185+149347026
3957+148786835+148311709+147822100+147646829+148428475+150124769+151577072
3947+151839927+151488730+151594243+152069041+152007119+151130969+150003836
3937+149351838+149865499+151880644+154577306+156139934+155660399+154318420
3927+153761702+154158531+154455877+154126821+153908465+154636119+156001475
3917+156665626+155623455+153375443+151338765+150380471+150506534+151829058
3907+155026816+160190043+165500922+168351284+168168233+166154577+162965076
3897+159226272+156781718+157259840+160073801+162450208+162477789+161817580
3887+162770828+164671032+165371011+165126881+165467911+165579003+164071509
3878+162405400+162707258+164799744+167404403+169914690+171362958+170388570
3868+168116010+167189295+167927117+168180179+166659728+164719566+164454557
3858+167259718+173786476+182640356+187541561+183110754+174287806+167217663
3848+163808373+164015841+166875753+170896549+175086745+179221648+182484755
3838+183156386+181107752+178491466+176775212+175581916+174274044+173174876
3828+172836280+173460781+175677954+180097769+184952800+186671469+185418217
3818+184317775+183160543+179696783+174979585+172203746+172972763+176807175
3808+181319677+183996331+185746683+188937176+192468100+193078913+191168954
3798+189182243+187013173+183896024+181010928+179858938+180449379+182163124
3788+184821597+188176398+191387357+194133180+197210090+200793256+203495638
3778+204610141+205559139+207894557+212124056+218243424+225447167+231957091
3768+236783791+240533230+244244959+249239730+256811392+266481831+275577932
3758+282438941+289119633+298939194+313313912+330222566+344188528+352266182
3748+358666643+367982364+379195256+387156631+391633033+397812543+408699816
3738+423899237+440628379+454699198+463228676+466958268+469063056+472391643
3728+477818726+483966218+488548113+490962643+492468508+494009912+495840198
3718+498501106+502994097+510361792+520744775+532139182+541455915+547843680
3708+552391085+556628673+562530349+570611262+578200880+582521081+584710991
3698+587783988+593057081+599599923+606067716+612649393+619462205+623282348
3688+621074013+615955847+612622429+612416946+614803726+619251928+625062902
3678+630259000+631559756+628545255+625978233+626715830+628625920+628832789
3668+627821851+627520648+628769725+631858300+636405817+641498069+646821156
3658+651993474+655225704+656133245+658204854+664182776+671270015+673087119
3648+669176686+665170982+663611003+663558125+663889250+664060692+664016502
3638+664796267+668314533+675367394+684133175+691432077+694966296+694485750
3628+692525215+692105261+693708232+696177025+698792469+701999159+706540684
3618+712106067+717054814+719579706+718921576+716318190+714419522+714742108
3608+716777466+718974828+720248247+721160432+722862268+724614885+724499542
3598+722989445+722464633+723461528+724435878+725249722+727759409+732396729
3588+736443253+737016298+735006181+733169678+731712235+728564040+723275106
3578+718362236+716047433+715692641+715838692+717217717+721708986+728485397
3568+732582027+729896404+723242975+718502745+718216934+721308056+725369109
3558+728373874+729233480+727904862+725325968+723382211+723814373+726317994
3548+728526142+728383761+726622081+726427420+729605799+733774181+734651089
3538+731227569+727064055+725973538+728202432+731087584+732012202+730493941
3528+727856477+725150557+722220390+719111517+717111437+717648981+720951840
3518+725818648+729977968+731255880+729415258+726331925+723945220+722917767
3508+723051161+723766738+724547551+725911372+728902056+732780882+735111488
3498+735079582+734998617+736793701+738831006+738980877+737922866+736905898
3488+735093438+731230565+726756074+725043902+727612984+732374934+735753965
3478+735891403+733588958+731015233+729927936+730875847+733360219+736045618
3468+737008584+734915779+730859819+727795136+727586245+730011897+734112946
3458+738472319+740795510+739547707+735911700+732486757+730947525+731810651
3448+734519643+737059365+737308626+734999815+731519522+729147872+730050469
3438+733660786+736192568+734728085+730616550+727147342+726053079+727478916
3428+730803570+734336667+736114450+735556983+733628280+731946067+731739198
3418+732925660+734366326+735009702+734394638+732907385+732114363+733319849
3408+735449728+736275481+735087296+732096912+727191831+721729133+719266032
3398+721731830+726504491+729513225+730103497+730474992+731577643+732232103
3388+731941723+732084704+733461557+734536420+733757629+732133987+731351675
3378+731153345+730419568+729008336+727333164+726271183+727738738+732791218
3368+738911147+741751435+740237743+737038693+734632664+733605810+733975358
3358+736074754+739556470+742715450+743796530+742636582+740552091+738626534
3348+736739550+734845300+734180130+735887883+738735661+739889317+738621291
3338+737300013+737929532+739673985+740420420+739585605+738563095+738795579
3328+740276990+741986466+743069643+743070467+741472515+738255114+734785307
3318+733063173+733791408+735740783+736789057+735804821+734160282+734429840
3308+737569946+741901456+745001342+745878100+744719799+742073348+739132471
3298+737725659+739073152+742778589+746670223+747856984+745503234+742092522
3288+740276466+739692560+738255414+735436771+733027072+732730101+733846533
3278+734171441+733232518+733252141+736158265+740977737+744755451+745328647
3268+742906290+739551826+737829618+739515425+744051258+747701046+746392575
3258+740867937+736321992+736162310+738758580+740563625+740224786+738901036
3248+738084721+738057533+738276610+738740829+740260662+742986955+745178326
3238+744559892+741007547+736848302+734438453+733788637+733093732+732009955
3228+732420847+734992175+737378731+737452880+736426101+736580391+737561332
3218+737210584+735409208+734612517+736310308+739009488+740411957+740262909
3208+739584931+738433521+736550881+734661575+733362316+732393134+731836940
3198+731984640+732240492+732275020+733193122+735597428+737566800+736600539
3188+732864993+728951788+726840858+726123484+725505124+725281853+726755624
3178+729523561+731526413+731954605+731901727+731968012+731176039+728486671
3168+724049479+718771030+714092666+712121571+714214600+718812075+722011350
3158+721501443+718808180+716546255+715323168+714482661+714170485+714765252
3148+715102144+713432963+710004425+707030443+706037443+706469756+707004379
3138+707229073+707564093+708088904+708155938+707169529+705383283+703632014
3128+702478507+701985153+702025224+702417540+702782594+702622686+701720688
3118+700294776+698846171+698082959+698526730+699801572+700633840+699854750
3108+697513808+695136390+694525296+695702920+696595706+695534174+693193082
3098+691107917+689747841+688828466+688352564+688723459+689806562+690400279
3088+689613924+688459069+688565574+689778025+690596138+690396085+689611901
3078+688344475+686257287+683548820+681250420+680461967+681271691+682599635
3068+683353111+683263458+682272855+680086428+676811430+673208454+670139352
3058+668410852+668760477+670935070+673201189+673917964+673331886+672695626
3048+672066332+670575559+668464854+667094891+666864804+666580790+665216895
3038+663291263+662079560+662019567+662254972+661729861+660396898+658967691
3028+657967127+657692101+658360417+659552346+660166886+659502090+657986301
3018+656683372+656472983+657391759+658168902+657052920+653957079+650976507
3008+649921791+650214867+649979462+648577443+647220663+647330464+648844980
2998+650147758+649748027+647747796+645147931+642577576+640332578+638693582
2988+637664930+636960513+636375559+635909018+635718851+635956803+636331069
2978+636091919+634850108+633099288+631703411+631079285+630913610+630708164
2968+630480249+630491034+630489462+630044417+629476988+629438640+629655096
2958+629068793+627070622+623979238+620713790+618141525+616399581+614924200
2948+613364445+612190604+612114919+613115521+614317936+614833610+614459194
2938+613530420+612483231+611601642+610805737+609712186+608146627+606283198
2928+604211066+601974943+599996845+598679387+597704924+596485095+595105246
2918+594077831+593455727+592980273+592795799+593181000+593722551+593502688
2908+592144859+590139685+588224876+586859894+586155664+585840006+585227639
2898+583666836+581319715+579285480+578513318+578712697+578811450+578387901
2888+578001501+578079358+578279636+578097408+577308543+575811404+573817540
2878+572135552+571522772+571746681+571778924+570829777+568856959+566436064
2868+564526460+563798749+563814778+563468636+562442456+561524392+561389275
2858+561737327+561678944+560650817+559002121+557648112+557079148+556971220
2848+556714956+555876096+554322147+552447708+551035653+550487361+550428453
2838+550208028+549425417+547918466+545762597+543502507+541952303+541413560
2828+541314358+540970013+540410524+539931775+539285291+538133358+536869076
2818+536045571+535400698+534340627+532952951+531632721+530215273+528372104
2808+526433028+525031871+524241882+523634309+522902816+521989058+520902922
2798+519849105+519256661+519302086+519611453+519644895+519099524+517840336
2788+515899875+513744081+512102875+511338426+511229038+511301502+511093772
2778+510283748+508895510+507273516+505716720+504307511+503030048+501771796
2768+500337946+498779128+497550049+496990559+496763468+496151063+494857010
2758+493242318+491776898+490516399+489241296+487889122+486563873+485224619
2748+483739876+482275204+481285088+481036052+481313175+481547232+481150871
2738+479918833+478241976+476759704+475727420+474894552+473942896+472757895
2728+471338799+469829264+468572960+467748293+467046722+466028931+464607214
2718+462980239+461426027+460262334+459607949+459148598+458453731+457426839
2708+456245433+455083238+454053763+453238609+452638712+452065404+451127567
2698+449625109+448021165+447059735+446805718+446559228+445816201+444859377
2688+444231018+443939178+443427061+442292579+440803678+439523219+438632980
2678+437926877+437285861+436744947+436177743+435359668+434333413+433322101
2668+432348462+431345426+430507690+430069798+429845140+429379236+428441025
2658+427129258+425694696+424424498+423531824+423018173+422629901+422005437
2648+421031237+420073664+419631952+419686028+419597536+418796800+417436986
2638+416177723+415378036+414758440+413949390+413095888+412647436+412700838
2628+412812736+412488726+411696529+410754497+409881372+409103254+408457595
2618+407979670+407581548+407175226+406782760+406362806+405717708+404757101
2608+403732682+403008903+402638419+402362832+402026389+401688898+401308490
2598+400702976+399892278+399090643+398323611+397426293+396449659+395729775
2588+395464448+395471639+395467969+395373260+395213465+394905371+394327457
2578+393532712+392753172+392194507+391860012+391607829+391382236+391264684
2568+391225662+391030777+390571014+390117393+390025980+390256404+390389948
2558+390139301+389631754+389124206+388696238+388346239+388142703+388138696
2548+388275123+388400540+388327852+387968116+387464538+387099559+387063421
2538+387321333+387597669+387543593+387091695+386567969+386321891+386365744
2528+386447758+386355708+386128130+386015820+386163032+386330505+386087910
2518+385311028+384375288+383811829+383814713+384111384+384297319+384225042
2508+384011658+383792056+383594962+383370642+383041277+382600576+382170024
2498+381857511+381611658+381337568+381072466+380901361+380770851+380542786
2488+380212897+379941317+379839568+379823914+379731265+379508967+379215029
2478+378889072+378539260+378256894+378190347+378287003+378181996+377575359
2468+376697702+376128626+376132108+376440614+376719535+376927003+377081630
2458+376985835+376480010+375820270+375473529+375550711+375706162+375632762
2448+375375862+375069678+374714586+374397280+374376533+374675639+374891196
2438+374712638+374336987+374046007+373695971+373011888+372144605+371559089
2428+371463144+371583505+371505873+371166959+370942040+371167820+371681135
2418+372021060+371990727+371766332+371526508+371240322+370806961+370255149
2408+369816508+369795798+370260354+370910433+371400342+371694355+371926164
2398+372051095+371905230+371545719+371242569+371103932+370970314+370736894
2388+370490516+370198451+369547436+368265891+366390628+364104736+361512885
2378+358677128+355761006+353012018+350540416+348165433+345613091+342852794
2368+340132193+337783237+336081550+335126561+334860261+335361704+336995270
2358+340110547+344675141+350356991+356942974+364193903+371128611+376221799
2348+378518364+378309997+376899028+375425294+373826855+371485351+368312553
2338+364673775+360808992+356705621+352478069+348650736+345861041+344309975
2328+343619376+343186053+342669256+342240651+342318583+343047154+344190026
2318+345422924+346494530+347263359+347827680+348517904+349571496+350862928
2308+352059651+352971686+353626146+354083699+354380520+354614577+354878069
2298+355136804+355345433+355585070+355912450+356201070+356310796+356304991
2288+356351353+356486320+356595072+356589754+356508826+356408425+356238332
2278+355934133+355582973+355352436+355280459+355278250+355289522+355279111
2268+355152720+354895969+354705204+354768530+354988881+355084713+354897992
2258+354522265+354203910+354132944+354256564+354344382+354271955+354132120
2248+354065611+354136015+354354493+354674495+354976148+355161558+355242935
2238+355299371+355405951+355627238+355997646+356440295+356759773+356820852
2228+356731349+356733558+356911741+357135350+357295182+357455352+357726558
2218+358081576+358352220+358401878+358302413+358319265+358661025+359223398
2208+359665222+359808915+359866773+360163333+360748212+361429936+362065409
2198+362630815+363110763+363507760+363916255+364453088+365116311+365781706
2188+366327864+366707223+366925663+367054638+367244355+367596077+368050184
2178+368529907+369116435+369897510+370720753+371337390+371786629+372407011
2168+373405366+374621937+375851540+377188360+378837542+380754524+382758911
2158+384909050+387464912+390492596+393755647+396996266+400110793+403043768
2148+405701455+408030526+410114792+412174866+414416081+416825218+419217877
2138+421540282+423978704+426711177+429681151+432664382+435536465+438467867
2128+441728895+445236414+448479018+450969457+452580254+453442557+453725372
2118+453467310+452535390+450875497+448741348+446432388+443919742+441002870
2108+437727798+434388388+431170014+428016165+424827488+421594471+418339359
2098+415103347+411973876+408994090+406099988+403225808+400387505+397649453
2088+395086512+392733661+390553750+388557452+386887223+385641591+384725812
2078+383987802+383333267+382641733+381795496+380878780+380156836+379789049
2068+379681645+379616933+379417928+379030592+378542631+378075491+377657035
2058+377277189+376962467+376652201+376183788+375572994+375091885+374949279
2048+375117163+375490231+375987854+376512329+376943293+377190756+377304302
2038+377555848+378239256+379334492+380551999+381687867+382723297+383628965
2028+384287507+384622415+384687876+384576090+384264626+383638740+382683151
2018+381556234+380425833+379309551+378139454+376937526+375837908+374910781
2008+374055257+373153259+372237853+371403974+370654094+369922451+369162010
1998+368405689+367863426+367834365+368279410+368622294+368303715+367412689
1988+366441896+365677448+365115113+364690515+364345422+364017405+363685194
1978+363375303+363146489+363068745+363138288+363275614+363476116+363775746
1968+363981978+363738484+363029498+362301376+361912804+361768026+361599879
1958+361337773+361065406+360840187+360682452+360606093+360593997+360616991
1948+360728477+361116150+361890447+362675005+362713166+361777575+360560967
1938+359767383+359414014+359222012+359120451+359160559+359278673+359336869
1928+359388549+359801275+360778247+361823226+362328264+362557415+363038411
1918+363313587+362520640+360945419+359759107+359609498+360167190+360617777
1908+360437048+359825954+359329042+359174565+359205011+359242497+359302378
1898+359517261+359866736+360090906+360177638+360599502+361473376+361984182
1888+361430123+360280061+359387650+358979342+358850855+358839133+358878230
1878+358946237+359011249+359082627+359561975+361232541+364284230+367303562
1868+368042844+366000184+362996281+360833896+359902387+359685782+359659193
1858+359648295+359709824+359884300+360095400+360330356+360797758+361840977
1848+363841956+366876455+369814411+370428463+368139538+365164395+363543037
1838+363379460+363706802+364041035+365056055+367516610+370642148+372428843
1828+372322376+371656718+370968105+369617766+367823580+366736471+366759689
1818+367270382+367695392+368206160+369335062+371090825+372615340+373037766
1808+372567742+372252308+373000803+375089526+377984190+380423474+381362959
1798+381200654+381568854+383832501+387665003+390543002+390077922+387518352
1788+385957849+386611635+388638042+390993889+393387410+395487330+396727494
1778+397501267+399365781+403572137+409586535+414658414+416164391+414713539
1768+412483933+410950318+411253431+413876215+417450131+419775906+420756323
1758+421808567+423145949+424514076+427005114+431772308+437653761+441571984
1748+442203038+441275761+440918048+442059046+444587122+447516801+449605973
1738+451331065+454949695+461085315+466008372+465866589+462940842+460594021
1728+459576566+460023222+462008772+464968673+468813682+474883430+484166683
1718+494394701+500086325+499114709+495368490+492771583+492866142+495962282
1708+501630913+508274417+513921664+518973134+525882602+534787919+541634023
1698+544085552+544142288+542718249+540644131+540681431+544244973+550206006
1688+557541232+567274211+579323454+587940712+588478781+585965910+586148137
1678+590456504+597659761+605107185+611122444+616962141+623776264+629344943
1668+631076438+631320457+634183739+640271237+646569873+650450721+653270637
1658+658181860+667264835+681061602+696062431+703126901+702630026+704232847
1648+710092954+715139743+714744430+711878377+711249757+714039489+719913452
1638+728234488+736202755+738218788+733331983+727785249+725812881+727203066
1628+729827198+732075266+733642735+733726996+731112975+727283956+725295335
1618+725296758+723648324+717823569+710391499+704329241+700055627+696750520
1608+693604123+690458700+687666646+685418128+683643866+682432687+681977307
1598+682135267+682392917+682224396+681361419+679813049+677781436+675601975
1588+673646459+672195531+671372176+671110781+671359218+672612789+675824422
1578+680931204+685142203+685140331+683128267+683943009+688384320+693029130
1568+694877767+695543986+697910019+703034551+711781908+725833628+743691448
1558+755494500+757079944+756794507+759205704+764021506+770313476+777411950
1548+784957940+793363312+803121419+813896794+824882033+833492476+834478735
1538+829144263+825650413+826989967+830128874+831242834+831087570+832856141
1528+836843569+841003189+845003050+850717930+857895197+863171847+865453245
1518+867082580+868677911+869238748+869471232+871481874+876799643+885683764
1508+895721766+899749864+893745054+885419523+881237210+881491639+884394767
1498+887490982+888543376+887886444+888432901+892036327+897068061+899246174
1488+896474642+891783920+888841845+888512893+889847054+891936787+894903953
1478+899326540+905017827+910976350+915747289+916992021+913682646+909114232
1468+907375996+909201414+911731698+911904638+910989982+912819444+918976448
1458+926335043+927901538+922330912+916101033+912671296+911376082+911066827
1448+911301109+911755816+911948903+911767425+911765403+912978528+916163423
1438+920468944+922717087+920666525+916994942+915414291+916392312+917946299
1428+918608698+918782462+919105722+919604919+920627728+922583843+924281261
1418+923543514+920511711+917186831+914398897+911929355+909845313+908711130
1408+909026601+910480225+911697021+911661744+911235573+911775064+913192512
1398+914582098+915448819+914929326+911667061+906329668+901766198+899508917
1388+898097536+895337838+891924654+890802455+893099357+896965450+900171466
1378+902616741+905495677+908904143+911745030+913794244+915959026+918368500
1368+920332479+922109139+924688632+927667407+929141627+928414740+927414026
1358+928324488+931059994+933496731+933885827+932733219+931714005+931632141
1348+932421643+934225715+937323653+941297824+945057862+947557513+948332934
1338+947693154+946428873+945217545+944527583+944846125+946391798+948671623
1328+950783452+952057695+952306881+951874419+951502774+951762371+952373840
1318+952564530+952283737+952302237+953015417+953865512+954064441+953633852
1308+953336581+953546296+953842967+953805668+953464057+952950855+952419003
1298+952151242+952188916+952042640+951264823+950139478+949241673+948443633
1288+946950014+944347078+940953517+937119855+933146807+929892556+928306513
1278+928162933+928086012+926920747+924545951+921539913+918591546+916051225
1268+913701970+911067876+908085731+905258100+903043886+901438369+900142181
1258+898642420+896206357+892529756+888581125+886086941+885829591+886901983
1248+887865173+888150760+887916329+887218053+886280403+886061101+887389720
1238+889781742+892014681+893616454+894841788+895674281+895899425+895818010
1228+896052516+896718286+897299122+897456782+897760569+899277332+902326886
1218+905928139+908726859+910321815+911380950+912661784+914286325+915945694
1208+917541474+919358504+921636157+924211231+926779114+929312470+932027528
1198+934927510+937453301+938949916+939705339+940963853+943314307+945726553
1188+946969563+947294021+947803554+948946799+950395030+951690244+952574267
1178+953195323+954122263+955784777+958100628+960710904+963236545+965468960
1168+967508138+969503949+971384267+973194406+975329678+977649199+978816038
1158+977808358+975841982+975407572+977561868+981247981+984774786+986944436
1148+987505723+987445056+988237328+990495882+993667296+996715801+998764191
1138+999868040+1001161082+1003124837+1004430911+1003936134+1002893776
1130+1003675937+1007072719+1011805684+1016042299+1018667704+1019461325
1121+1018924305+1018112709+1018149409+1019718675+1022609070+1025314167
1113+1026273163+1025849315+1025376932+1024900505+1024074902+1024352625
1104+1027467564+1032234308+1035214431+1034650448+1032144505+1030167943
1095+1029400611+1029102591+1029362937+1031753687+1037407899+1045214011
1087+1051978438+1054806893+1053935078+1052306867+1052262228+1053719821
1078+1055048065+1054907855+1054080605+1054940736+1057847009+1060596820
1070+1061730554+1061653109+1060553454+1057868505+1054159997+1051389364
1061+1051256420+1053978594+1058493830+1063462949+1067839848+1070875920
1053+1072203115+1071910488+1070397620+1068355147+1066871564+1067047874
1044+1069160377+1072073766+1073741823+1072992392+1070481805+1067358777
1035+1064400674+1062826988+1063867923+1066778990+1069104578+1069377207
1027+1068183031+1066692857+1065437938+1064505082+1064226011+1064986602
1018+1066065810+1065823140+1063934807+1062233345+1062513165+1064619751
1010+1067148238+1069127272+1070536256+1071519819+1071582584+1069868764
1001+1066245940+1061892484+1058298420+1055629275+1053006416+1050199457
993+1048069578+1047351904+1047680182+1047628128+1045725340+1041956914
984+1038039590+1035771374+1035351645+1035363928+1034225401+1031710470
975+1028972568+1027094796+1026170852+1025619227+1024242824+1020325125
967+1013454642+1005944453+1000666155+997976561+995931093+992852478+988515051
957+983242220+977316277+971556159+967351001+965271678+964260703+963117832
947+962179058+962381133+963232875+963137979+961498084+959250091+957604952
937+957300042+958431528+959969487+960287805+959174668+958128940+957679551
927+956189077+952892659+950101729+950295565+952964262+955849190+957438978
917+956889974+953869631+950006608+948070566+948883885+950752070+951819144
907+951766191+951594899+952409267+954093876+955293969+954912139+952781735
897+949244744+945533016+943639965+944324384+945994314+946437186+944993075
887+942872109+941722946+941687145+941296626+939842178+938381889+937636128
877+936917255+935721731+934736970+934642523+934775093+933680231+930824439
867+927254493+924742334+924813712+927721483+931586303+933727192+933410598
857+932174404+931598062+932244733+934024313+936112624+937302531+936954105
847+935074311+932122949+929315840+928101441+928899406+931141483+934349971
837+937806896+939750428+938660660+935374128+932573985+931956076+932943383
827+934128871+934780560+934651735+933731012+932975290+934177031+937922538
817+942293595+944715952+944672960+943642212+942939517+942826421+942789721
807+942069425+941107058+941620036+943806388+945250125+944440776+943238510
797+943796801+945490623+946330906+945479763+943644009+942465487+943581919
787+946750036+949397911+949330428+947239645+945591287+945593758+946610800
777+947986230+949376790+949427795+946653417+942076615+938804689+938604636
767+940252021+941500349+941683325+941595844+941890269+942935547+945070894
757+947391539+947718544+945360900+942330370+941041597+942228958+944760891
747+946508789+946256532+944994273+944175337+943674643+942977116+943098601
737+945483358+949448168+952209214+952155362+951027770+951495134+953564870
727+955064931+954528285+951655491+947281513+943757555+942722687+943143390
717+943360669+943588734+944530953+945575034+945982779+946126808+946364086
707+946017907+944426395+942033025+939879552+938246548+936594744+934916201
697+933611774+932658845+931828075+930354378+926401103+919332140+912303696
687+909570961+911508202+914259137+914554460+913020022+911067427+907226274
677+899737356+890748004+884530033+882042964+879489237+873304371+867283382
667+870847112+882906990+893045804+895455204+890779311+882447489+873828508
657+867592337+864689883+863390475+861403577+858650245+856901672+857741131
647+861061741+864352093+864594763+862337107+861484467+863660034+865772836
637+864911582+862729349+862177050+862880194+862468853+859915874+855639863
627+850456311+846028930+843922120+843639005+843714278+842980425+841467632
617+840872491+842038731+844155128+846506781+847474465+844632529+838870389
607+833508279+829414270+825782533+823581426+824029916+826144067
##END=
