##TITLE=<SNM>
##JCAMP-DX=4.24
##DATA TYPE=INFRARED SPECTRUM
##DATE=3/5/2025
##SAMPLING PROCEDURE=Instrument type and / or accessory
##ORIGIN=Admin
##XUNITS=1/CM
##YUNITS=ABSORBANCE
##RESOLUTION=4
##FIRSTX=4497.3318
##LASTX=599.83466
##DELTAX=-1.4281778
##MAXY=1.7180485
##MINY=0.18175197
##XFACTOR=1
##YFACTOR=1.6000573e-09
##NPOINTS=2730
##FIRSTY=0.20170157
##XYDATA=(X++(Y..Y))
4497+126058964+126198359+125632685+124633197+123818217+123452723+123409260
4487+123552892+123950600+124754293+125896016+127054093+127936964+128343360
4477+128097481+127344283+126664404+126474440+126600350+126614152+126296759
4467+125802291+125640163+126298566+127598376+128592545+128441425+127371178
4457+126514141+126709302+127537758+127721706+126581967+124799637+123508256
4447+123069162+123137686+123398634+123634213+123499977+122881414+122250103
4437+122222713+122865666+123609310+123803335+123388715+122968006+123044977
4427+123326217+123038998+121863394+120306605+119166017+118791518+118893634
4417+118965222+118789991+118563129+118621856+119050444+119485794+119390691
4407+118602448+117557103+116937219+117116641+117890561+118643471+118781088
4397+118087454+116784562+115381593+114453191+114297759+114722650+115320575
4387+115911730+116490181+116885402+116878929+116522460+115956934+115139123
4377+114177222+113599664+113786090+114389938+114756475+114757741+114833548
4367+115224764+115533570+115257927+114538069+113963296+113770193+113710618
4357+113614016+113590910+113702078+113850926+114033962+114392182+114892443
4347+115173860+114974340+114596703+114613382+115147747+115734533+115858860
4337+115403078+114644850+114020365+113858730+114215461+114833623+115293056
4327+115432330+115541589+115784497+115753792+115191443+114663756+114771142
4317+115234086+115493553+115599468+115858860+116212406+116444809+116511778
4307+116382850+115994037+115540946+115486643+116057644+116869523+117321906
4297+117286536+117169724+117376992+117962009+118792822+119744339+120578941
4287+120860442+120326087+119350003+118684699+118640239+118852620+118969832
4277+119125842+119498339+119855618+119936873+119989501+120477626+121325770
4267+121841090+121519357+120655084+119942834+119729168+119892628+120184857
4257+120436296+120629296+120912566+121363869+121796770+122074508+122357592
4247+122711668+122881722+122783480+122697894+122775294+122900087+123057195
4237+123286162+123403905+123186197+122667181+122085264+121727119+121853485
4227+122595173+123815153+124988363+125394284+124847859+124052473+123755066
4217+123898056+124087667+124333099+124784727+125252300+125401092+125126417
4207+124669257+124546559+125123521+126085170+126664842+126534871+126139567
4197+126067532+126360972+126561227+126298901+125702680+125220710+125133011
4187+125331897+125525614+125521191+125301760+124984535+124798641+124981667
4177+125579415+126430381+127351258+128210354+128893547+129380267+129739894
4167+129947860+129921775+129778887+129736504+129772461+129776903+129897906
4157+130236345+130408457+130021823+129381804+129135506+129460488+130058730
4147+130590207+130793713+130607930+130330080+130273187+130329242+130228532
4137+130052537+130116759+130492385+130923907+131184081+131367424+131705780
4127+132124208+132233523+131849506+131300474+131099027+131389971+131816324
4117+131969419+131871708+131864733+132122206+132463514+132617419+132555116
4107+132543410+132832482+133359824+133908735+134392941+134779882+134962824
4097+134869612+134538222+134092386+133719134+133512397+133370171+133289978
4087+133555525+134287258+135055218+135276194+134878543+134380303+134316826
4077+134697090+135110974+135237713+135050217+134695787+134412665+134425191
4067+134765419+135236670+135528871+135427333+135068367+134857775+134993604
4057+135292277+135537001+135740488+136073396+136638232+137210742+137338012
4047+136935323+136472426+136268389+136052004+135557210+135076851+135094760
4037+135722859+136698785+137638251+138188913+138277460+138292519+138712167
4027+139512210+140196418+140404031+140218844+139903463+139657072+139611904
4017+139778102+139996499+140086396+139974418+139649305+139117278+138493146
4007+138102340+138330245+139260799+140517741+141521466+141928812+141878140
3997+141800387+141893311+141885889+141568673+141309868+141580314+142246698
3987+142836065+143172949+143295088+143150654+142805565+142612611+142895248
3977+143642095+144518737+145024659+144775372+143808247+142583909+141668526
3967+141433087+141961919+143082595+144419228+145581514+146436336+147029325
3957+147226590+146837600+146150569+145870223+146419880+147537622+148530228
3947+148950900+149056248+149296409+149466425+148949941+147751400+146571587
3937+146069147+146596880+148130313+149946476+150754305+149895740+148352808
3927+147800870+148708495+149812538+149850889+149356793+149742226+151280930
3917+152716633+152647010+151049449+149104889+147845888+147583740+148510959
3907+151161269+155730201+161069283+165032645+166237155+164688161+161039742
3897+156758252+154132975+154699031+157614535+159755103+158992005+157378975
3887+157922363+160266865+161881497+162381097+163106440+163142258+160782185
3878+157769799+157277315+159878182+163926701+167807905+170051679+169529263
3868+167716750+167110146+167541445+166804851+164162765+161419298+160689782
3858+163202326+169440399+177916230+182461741+177929343+169187722+162390577
3848+159563649+160584230+164295622+169067045+173781585+178034634+180852585
3838+180623767+177694583+174503726+172347623+170772813+169481413+168990139
3828+169382417+170285451+172488714+177283102+183042418+185297889+183623543
3818+181788866+180240486+176568003+171388060+168000384+168507806+172822860
3808+178371742+181896784+183901775+186989855+190082518+189712107+186827513
3798+184684281+183074511+180472824+177733120+176679236+177524288+179442706
3788+182002243+184816264+186988365+188449148+190635406+194291275+197895438
3778+199871727+201142117+203799998+209022687+216462980+224145725+229902265
3768+233871457+237594863+241683335+246698942+254109285+264301482+274957274
3758+283587587+291325446+301545451+316082391+333042882+346940361+355192366
3748+362591720+373558582+386217223+394545557+398433168+403944314+414503606
3738+429415633+445405831+458385768+466117480+469852434+472494464+475772304
3728+479695900+483421839+486294419+488470023+490339977+491962432+493714187
3718+496630985+502137847+511951884+526832322+543571686+555322023+559771202
3708+561228073+563557451+567618021+572473018+577053881+581330361+585438389
3698+588879168+591838916+595539078+600748076+606989502+612264473+613744515
3688+611391185+608346726+606596125+606493050+608151378+611145585+614874392
3678+619281737+623422286+625887968+628286894+632316024+634832218+630993817
3668+622607967+615918591+614285222+617618604+623877538+630737451+636882172
3658+641432377+643855293+645681067+649560520+656265877+663524941+666599015
3648+663550272+658907684+656887904+657583316+658997237+659760596+660405197
3638+662561094+667298376+674015057+681198352+688132508+694143794+696146959
3628+691303436+683227743+677256465+675451925+678249816+685237167+694113471
3618+701256832+705078917+706646165+707215071+707448415+707760434+707819887
3608+706503864+703817057+702064595+703642422+708011733+711772204+713066473
3598+714465865+718474656+723037302+724769724+724379551+724904127+726544463
3588+726695481+724502183+722323041+721788108+722011394+721681569+720651861
3578+718765665+715206352+710900592+709205720+712362865+718957287+725066917
3568+727099362+724805560+721568398+720486166+721617570+722659571+721646925
3558+719802227+720348261+723764155+726378991+725680450+724516488+726477932
3548+730018544+730167402+725498215+720375305+718914448+720224511+720979079
3538+720483707+720618260+722021228+723674304+725554540+728130262+729929438
3528+729067810+726277593+723727276+721792727+719326524+716689113+715954512
3518+717941735+721282083+724221977+725586353+724729567+722408719+720593450
3508+720641505+722635656+725530103+727272880+727091167+727222292+729691922
3498+732904498+734054081+733024299+731234286+729038381+726631557+725077943
3488+724860692+725081296+724673242+723231383+721022812+719289794+719698221
3478+722279978+724699616+724979525+723892896+723089454+722820647+722284076
3468+720635768+717763896+714896642+713949633+715680713+718992378+722316335
3458+725099549+727607474+729607883+730046334+728448838+725679780+722830407
3448+720336191+718383762+717262564+717118922+718054234+720225852+723183775
3438+725786170+727416895+728152762+728045925+727348277+726384877+724657447
3428+721583895+718348447+717191488+718865723+721879374+724283889+725265915
3418+724964996+724100388+723682350+724248053+725396519+726241161+726353958
3408+726342336+727157847+728661395+729171220+727086473+723505107+721755476
3398+723408775+726234008+726985969+725090087+722528073+721753688+723979394
3388+727897887+730645786+730823849+729189101+726543047+723435224+721188730
3378+721393242+724700808+730125531+735072465+736771732+735066281+732514474
3368+730760521+729030037+726634016+724810104+724885800+726008487+726013703
3358+724176679+722439936+723337252+726513023+728486909+727104950+724324567
3348+722759480+722203240+721800550+722555043+724977811+727238907+727915917
3338+727890288+728023052+727799319+727167905+727142872+728265411+729759050
3328+730199512+728876113+726639901+725200501+725326039+726415275+727717738
3318+728814946+729310317+729185897+728940484+728969689+729500375+730279305
3308+729724704+726810141+723993625+724843556+728690451+730891870+728991071
3298+725486742+723726978+724089063+724888407+725415293+726582832+728768084
3288+730897458+732236503+733309050+734350157+734690338+734127988+733199828
3278+731951826+730111971+728438333+728308846+729826922+731336505+731387092
3268+730488957+730129777+730386441+729579497+727028510+724730535+724549641
3258+725539267+725731336+725194839+725460666+727033204+729094482+730604884
3248+730873468+729753909+727908168+726161591+724952554+724696189+725517139
3238+726936200+728711536+730797773+732127803+731429708+729298620+727744410
3228+727822713+728630104+728515741+727028659+725544333+725752346+727632358
3218+729489870+729846442+728428126+725796898+723075150+721739383+722597808
3208+724950096+727415479+729116609+729565714+728505088+726414306+724259452
3198+722996400+723061441+723737781+723679370+722528297+721186570+720042276
3188+718129110+715031046+712544727+712854139+715733536+718954456+720767937
3178+720753707+719016442+716186366+713791761+713228294+714419822+715793586
3168+715342022+712198437+707871071+705138967+704945780+705317998+703931047
3158+701166087+699663433+700721899+702436812+702273054+700358175+698658237
3148+698000523+697614522+697017380+696951221+698096781+699707911+700309003
3138+699260818+697024383+694464306+692621471+692561496+694377808+696587645
3128+697308165+696328077+695152864+694631193+694075847+692932075+691681986
3118+690947311+691050796+692038484+693026544+692515080+690172031+687150855
3108+684481109+682505807+681311224+680587128+679759249+678955584+679184234
3098+680972235+683084399+683417130+681624659+679629614+679027256+679482545
3088+679800748+679071287+677034297+674751670+674036067+675098706+676058157
3078+675371536+673405026+671490593+670651911+671025545+671755005+671866461
3068+671359170+670906116+670846439+670964675+670741241+669463884+666746978
3058+663416316+661332686+661842735+664413093+666858286+666861564+663570463
3048+658251311+653547928+651756426+653148666+655619711+656514717+655233934
3038+653366960+652379197+652441780+653124303+653744020+653383425+651709414
3028+649431108+647518985+646539418+646525486+646873117+646819997+646311587
3018+645814353+645467243+645107244+644603081+643688406+642205496+640881128
3008+640875987+641999122+642451580+640977833+638408369+636350965+635181713
2998+634127791+632653896+630895622+629203357+627999610+627582244+627673510
2988+627523088+626613330+625099725+623563395+622511411+622241449+622899572
2978+624128129+624842391+624143365+622310960+620237389+618351156+616817062
2968+615959344+615607205+614784951+612962754+611050556+610234374+610452780
2958+610744721+610585880+610021966+608835168+606856365+604838671+603843756
2948+604059592+604935264+605908089+606355369+605597299+603704361+601708347
2938+600482249+599883206+599285654+598405996+597353005+596327283+595381429
2928+594201485+592402048+590295100+588680542+587671658+586654541+585451613
2918+584615577+584479236+584569720+584197651+583428257+583068817+583344777
2908+583112289+581326375+578741563+576906290+576148258+575663652+574812603
2898+573508649+572008640+570803179+570102216+569264987+567492148+565042448
2888+562989104+561983237+561850994+562013932+561832964+560981282+559823093
2878+559061969+558927975+559007991+558764850+557975303+556820170+555707838
2868+554863680+554077858+552992236+551586063+550239494+549350373+548942990
2858+548659841+548122264+547268793+546326775+545528288+544928687+544438791
2848+543949529+543364121+542620319+541856885+541259221+540516611+538935989
2838+536469973+534120256+532881902+532610971+532268480+531189489+529813267
2828+528986207+528764598+528369321+527357904+526198300+525404469+524748841
2818+523813045+522803006+522186753+521850446+521225178+520127710+518886189
2808+517647426+516175691+514415070+512728803+511484079+510778907+510539677
2798+510521946+510298287+509553852+508348913+506978912+505708969+504648044
2788+503751250+502943487+502265434+501780195+501318089+500552793+499416508
2778+498190298+497060235+495849335+494397269+492963233+491921939+491199967
2768+490352270+489141557+487732665+486341841+485006819+483706329+482416121
2758+481015053+479464568+478118929+477418563+477208687+476875584+476236198
2748+475625980+475010025+473856791+472075831+470232921+468680686+467265424
2738+465955100+465016025+464468390+463936065+463130984+462074232+460829135
2728+459451163+458236799+457578005+457399979+457081814+456134357+454702482
2718+453289977+452206291+451288599+450073639+448423692+446912173+446179732
2708+446064923+445860710+445227210+444381897+443604047+442928453+442190835
2698+441199123+439933129+438601013+437463536+436594122+435803010+434861737
2688+433815304+432905359+432180518+431434221+430495518+429344631+428059564
2678+426843374+425919387+425281602+424719588+424084672+423370150+422620499
2668+421909218+421321276+420874258+420523497+420232599+419936151+419440184
2658+418503754+417113041+415585950+414322936+413540728+413224909+413113378
2648+412741942+411827304+410620875+409567959+408705362+407787037+406852097
2638+406154487+405666752+405191012+404804750+404662673+404527561+404039417
2628+403284290+402594056+401932729+400969739+399721439+398669939+398152179
2618+397964170+397686981+397133125+396388205+395679085+395233258+395046851
2608+394851094+394398748+393625108+392594021+391518010+390637234+389943684
2598+389332088+388933980+388839510+388722280+388238568+387536488+387000140
2588+386750889+386578042+386171888+385424845+384558672+383868177+383444850
2578+383244660+383182860+383062574+382696019+382181351+381831485+381783057
2568+381843927+381746439+381401564+380872517+380273400+379767114+379477446
2558+379322666+379142517+379006437+379115584+379407897+379564391+379405141
2548+379045887+378677990+378367312+378074478+377763017+377447571+377182936
2538+377005767+376859667+376666331+376520230+376628893+376975556+377264591
2528+377290816+377125531+376896173+376644092+376382027+376070082+375623771
2518+375100052+374697735+374481452+374349358+374293630+374386051+374507603
2508+374404490+374009586+373465229+372879001+372270273+371730014+371419410
2498+371353363+371339953+371230061+371089063+370998728+370856018+370542397
2488+370164740+369971330+370079695+370337252+370437943+370219388+369826161
2478+369506915+369332428+369199962+368981519+368581400+368000536+367418555
2468+367090480+367105120+367305794+367473575+367526845+367507586+367437963
2458+367278936+367018547+366755477+366674902+366877960+367216130+367399854
2448+367276812+366864251+366187800+365329747+364556964+364129018+363999606
2438+363888894+363626643+363290932+363034455+362902361+362835606+362755217
2428+362617461+362445731+362306447+362226282+362175545+362123915+362034436
2418+361846204+361567339+361349939+361383018+361699060+362092288+362261447
2408+362084018+361720219+361420978+361316636+361384322+361489967+361484380
2398+361374413+361325315+361412223+361503490+361471379+361348821+361188602
2388+360939277+360517441+359808804+358565868+356544635+353781761+350545233
2378+347082737+343599082+340278328+337069404+333688004+330060558+326491858
2368+323309978+320703784+318843738+317819208+317622371+318370308+320323520
2358+323675043+328459784+334638664+342187248+350722811+358899009+364831880
2348+367308923+366576855+364266886+361958331+359615431+356509433+352804205
2338+349020973+345125018+341009539+337104793+334024945+332017458+330881247
2328+330175740+329501114+328734663+328083766+327956366+328722780+330424320
2318+332640825+334743937+336341247+337449444+338312414+339203136+340357451
2308+341856156+343474960+344794820+345549425+345782620+345701933+345546073
2298+345538399+345781726+346237015+346851218+347544396+348072474+348196037
2288+348039581+348016671+348337929+348761516+348853788+348434224+347766713
2278+347292575+347182273+347249661+347273875+347217066+347127029+347010096
2268+346826111+346537300+346208890+346039432+346129954+346254374+346103803
2258+345752297+345599640+345825608+346192238+346455123+346676248+346983164
2248+347273279+347359144+347235915+347039562+346888768+346895138+347155005
2238+347589433+347937660+348042784+348028443+348109837+348352457+348678892
2228+348985584+349178883+349198701+349095216+349028573+349105534+349246904
2218+349325058+349421316+349779490+350451098+351170426+351689713+352070051
2208+352509955+353049619+353583620+354035072+354398275+354716589+355095251
2198+355636889+356312707+356991617+357618784+358265211+358960549+359552066
2188+359819086+359755795+359689674+360029669+360874050+361914598+362748959
2178+363251743+363609135+364019796+364457316+364815638+365213373+365945777
2168+367097483+368408888+369623996+370802636+372193535+373955311+376104987
2158+378618350+381486125+384705555+388204855+391778212+395220257+398520336
2148+401712572+404601618+406997788+409165568+411601597+414396955+417205015
2138+419812737+422447429+425485220+428986606+432624520+436143117+439723365
2128+443633700+447737072+451679182+455294670+458483106+460953518+462378875
2118+462637476+461843123+460289286+458292751+455993174+453417973+450720848
2108+448174666+445970826+444168297+442771065+441742922+440953896+440098041
2098+438671753+436203502+432635770+428361711+423801486+419096985+414258938
2088+409370750+404540376+399829766+395335364+391246111+387754260+384921055
2078+382649678+380803229+379307765+378102342+377077402+376147938+375318606
2068+374604457+373944173+373248090+372510285+371839794+371349787+371021564
2058+370725414+370366048+369966189+369649030+369546401+369647465+369770283
2048+369786674+369826086+370186532+371082433+372468116+374095228+375840613
2038+377961158+380843573+384537066+388725930+393097402+397478447+401607411
2028+405025578+407314351+408318765+408076593+406722759+404571071+402056516
2018+399398430+396475449+393190196+389782646+386607583+383781492+381217281
2008+378871736+376789447+374967436+373302067+371655734+369929273+368103983
1998+366318665+364946615+364407957+364657245+364954475+364488756+363208084
1988+361707777+360497586+359686656+359147552+358726050+358340198+357967943
1978+357597849+357233789+356873232+356473559+356098995+356029670+356420997
1968+356896514+356830802+356096276+355203206+354653299+354466296+354391942
1958+354326677+354333904+354380617+354278772+353912104+353414125+353078302
1948+353156009+353769505+354822682+355780308+355827096+354740430+353289258
1938+352336288+352022183+351992568+351951890+351854737+351803777+351867515
1928+352084021+352668796+353780532+354967143+355571364+355752630+356040547
1918+356054517+354995976+353247499+352098623+352197862+353071970+353753897
1908+353650151+352955223+352266032+351910615+351811712+351842593+352070536
1898+352603829+353238261+353511762+353426865+353659539+354465737+354994188
1888+354461788+353353107+352579876+352337779+352322394+352324703+352288793
1878+352183855+352023375+352007841+352711747+354838663+358276200+361321106
1868+361728675+359350498+356300302+354307157+353506062+353222541+352921064
1858+352503660+352197377+352248934+352645625+353234871+354011603+355195607
1848+357221981+360317139+363362008+363931063+361394827+358246436+356714726
1838+356735438+357031886+357102403+357960307+360639626+364239394+366371376
1828+366288603+365506357+364766839+363399185+361480915+360148613+359889491
1818+360131961+360374730+360942295+362405909+364534277+366173793+366470614
1808+365915901+365698426+366599504+368746498+371626008+374056747+374965983
1798+374705073+374974700+377210725+381035828+383812001+383134991+380389849
1788+378818466+379668100+381956873+384409070+386678547+388683911+390130538
1778+391343114+393587186+397999932+404112169+409114794+410254133+408254842
1768+405496140+403548441+403645631+406324428+410091977+412536649+413501800
1758+414467547+415720466+417167205+420040120+425371043+431657767+435611574
1748+436059226+434967755+434547222+435688908+438137417+440753557+442402684
1738+443950822+447936181+454910755+460597542+460503706+457163208+454584767
1728+453641482+454112789+455831428+458444998+462184310+468397984+477891099
1718+488241447+493796438+492339306+487960086+484866939+484719982+487770476
1708+493494291+500260852+506044642+511124453+517972818+527052665+534627250
1698+538028318+538637306+537094719+534338066+533440266+536081551+541397499
1688+548636298+558904693+571892527+581183329+581600844+578478232+577965538
1678+581676465+588532244+595910178+601926008+607697021+614434600+620006876
1668+621971152+622759656+626213695+632463913+638307119+641586375+644264539
1658+649607532+659454537+673941374+688859286+694589024+692492208+693049715
1648+698555944+704126245+704788429+702689974+702331763+705152377+711033357
1638+719328387+726857302+727522838+720835064+714025924+711440591+712355564
1628+714304492+715866897+717000984+716893252+714387935+711135501+710134476
1618+711281825+710605783+705587401+699411910+695272591+692779194+690082553
1608+686410368+682542687+679431585+677367028+676345665+676388504+677282467
1598+678352928+678764632+678152142+676856607+675363415+673724197+671770501
1588+669605142+667625966+666152071+665164159+664693150+665550458+668928803
1578+674490462+678668449+677699983+674510056+674760834+679425401+684787019
1568+687194960+687848204+689762711+694386897+703035743+717727911+736726211
1558+748751911+749132324+747715647+750015633+755870015+764106859+773588947
1548+783324719+793246749+803886840+815404131+827604095+837866678+839202967
1538+831587852+824597595+822927309+824560418+825676102+825808494+827535030
1528+831983762+837859377+843916631+850452940+856876601+860586186+861219910
1518+861291135+861512335+861084463+860857005+863172041+869711033+880254493
1508+891107440+894082499+886485191+877650162+873630568+874026180+877002878
1498+880373624+881776592+880801123+879751299+880696744+883400090+885536766
1488+885099060+883038452+881647106+881639581+882114986+882489662+883596704
1478+886556937+891482489+897547491+902815459+904026731+900363039+896105632
1468+895319326+897981621+900859006+901156795+900257170+901728011+907205407
1458+914031906+915330049+909321818+902787148+900065548+900601300+901917174
1448+901739559+899701451+897373824+896086410+895916245+897023361+900266781
1438+905422324+909371288+908866529+905511355+903027197+902592620+902909780
1428+902789755+902847942+904094603+906430947+909380228+912630800+914654827
1418+913142413+908785321+904668799+902197902+900701432+899196394+897717507
1408+897122004+897683534+898594633+899417743+900798286+902708547+903686475
1398+902899871+901305578+899578074+897153965+894265181+892299788+891397704
1388+889574836+885376658+880928002+879796373+882735895+887596554+892112711
1378+895680666+898789309+901640842+903918105+905740526+907884652+910534133
1368+912880460+914496284+915973160+917608355+918712715+918931307+919029353
1358+919571363+920119408+920241221+920409151+921369050+923118309+924943934
1348+926166456+926609153+926708838+927473539+929827912+933458823+936578493
1338+937664152+937097630+936086027+935149895+934492852+934424756+934894871
1328+935706433+937189493+939516673+941911427+943671936+945081834+946496499
1318+947613003+948152704+948219980+947813491+946925265+946081070+945971252
1308+946449786+946537774+945724349+944618573+944065611+944364815+945500690
1298+947294279+949069838+949886094+949220632+947189825+944312738+941144566
1288+938009921+935092974+932674230+930846147+929141664+926973846+924382254
1278+921997931+920339491+919254725+918049488+916243830+914053139+911937921
1268+910004639+908125670+906299002+904506084+902382372+899419904+895482636
1258+890870445+886015374+881464648+878006883+876316853+876370496+877403482
1248+878443992+878840871+878436766+877419500+876152350+875201318+875267477
1238+876752548+879298692+881918819+883640586+884199658+884312307+885044300
1228+886675099+888391204+889222361+888998479+888330559+888084028+888902147
1218+890772772+893056889+895184996+897154636+899250409+901690685+904622905
1208+907938443+910963643+912955634+914101492+915473691+917750283+920364077
1198+922061482+922293633+922084876+923044551+925610662+928984686+932514942
1188+936052873+939085225+940965535+942165036+943884568+946306367+948569623
1178+950509760+952894903+955711494+957765620+958416852+958569137+959627007
1168+962153482+965472299+968175422+969460601+970074135+971283842+973236271
1158+974936507+975557714+975332268+975341581+976561346+978561085+979917713
1148+980375534+981418131+984484382+989078022+993157814+995559497+997040322
1138+998376386+998997743+998453274+997702431+997707050+998073457+998090667
1128+998150493+999242932+1001407248+1003672218+1005583298+1007590636+1009610714
1118+1010670000+1010664189+1011113815+1013440995+1017397335+1021511622
1110+1024684562+1026934035+1028768898+1030321842+1031012039+1030290550
1101+1028696705+1027704397+1028798848+1032517077+1037302413+1039753566
1093+1038006319+1034701807+1033874673+1036251844+1039622143+1041952005
1084+1042465778+1041015426+1038409977+1036431173+1036545014+1039103005
1075+1043586827+1049139099+1054793664+1059666020+1062495127+1061682149
1067+1057356423+1052113860+1049000672+1049643336+1053464230+1057891877
1058+1060423121+1060709585+1060530778+1061980907+1065592744+1069900888
1050+1072905078+1073741823+1072779764+1071081763+1069250401+1066489166
1041+1062301792+1058304177+1056186500+1055384920+1054917711+1055646277
1033+1058527090+1062505483+1065829068+1067772781+1068220917+1067124380
1024+1064938756+1062558679+1060647971+1059654621+1060155654+1062407065
1015+1065605186+1068053732+1068074891+1065127919+1060479147+1056223155
1007+1053574196+1052632998+1053632607+1057053120+1061786454+1064573765
998+1062989977+1058382703+1054364675+1053212334+1054397530+1055576841
990+1054466818+1050394253+1045044109+1041274324+1039911066+1038516442
981+1034897079+1030370641+1027060392+1024292973+1020802054+1017753907
973+1016449804+1015613432+1013757187+1012102099+1012153730+1012450998
964+1010051400+1003918153+995825548+988422097+982994469+979076721+975656580
954+972448997+969999557+968722946+968015315+966497164+963351344+959350898
944+956325922+955491859+956155011+956187867+954313666+951684823+950429669
934+951113161+952391113+952654258+951440602+949738056+949188223+950415141
924+952074698+952272653+950698551+948575286+947189602+947164345+948347753
914+949811591+950437864+949760258+948078424+945861062+943403129+941211023
904+940015546+939860281+939846424+939276028+938386386+937649997+937179062
894+937075503+937457183+938098580+938560872+938361055+937056132+934706601
884+932218792+930736180+930459028+930335502+929185695+927148183+925664602
874+925842963+927272380+928755738+929746257+930687306+932381954+935038289
864+937302812+936868086+933095843+928461301+926264576+927297786+929753856
854+931738694+932746647+933072449+933061423+932758866+931651898+929353327
844+926676951+925083403+925124976+926131737+926983233+926694608+924958983
834+922700346+921732252+923442770+927295327+930633366+931271485+930082191
824+929076027+928335242+927393224+927443886+929625785+932939983+935783321
814+937912322+939258594+938975705+937436918+937003458+939066078+942010591
804+943618890+943788683+943326093+942296310+941026479+940601960+941559027
794+943440827+945466195+946951043+947213517+945666013+942742435+940283087
784+939964511+941236429+941962834+941489739+941183978+941566031+941644035
774+941267422+941351909+942034804+942869090+944053318+945860168+947370570
764+946908129+943994684+940465321+939236690+941653870+945882668+948481114
754+947860875+945545765+943971662+944145404+945197388+945125939+942772609
744+939337418+937258632+937776130+940003849+942446732+944611793+946754355
734+948790451+950054844+950245348+949968420+950034057+950307186+949190607
724+945476328+940586016+937572662+938557147+942470871+945180550+943443957
714+938263157+933694923+932794627+935180665+938390260+940501753+940762216
704+938894497+935252188+930779988+925640538+919643035+914689545+913782768
694+917197619+922104023+925257741+924253215+918406060+910456352+905376430
684+905252829+907256516+907547898+905227349+901584592+897574983+893409065
674+889126848+884518755+879493742+875499926+875757558+880125081+882799446
664+881538108+878448761+875639694+875044191+878835730+886988087+894752208
654+895472057+887595809+876229834+866841768+861582740+861087220+864717907
644+868781308+868742194+864689745+860857452+859400469+858519469+856081801
634+851933765+847019314+842872097+841169849+842211403+844961687+848699956
624+852760824+854566109+852024062+848014676+846891914+848150793+847353535
614+842836485+838234053+837541472+840280878+841480676+836790555+828446874
604+822127518+820443375+822177808+824271569
##END=
