##TITLE=<SNM>
##JCAMP-DX=4.24
##DATA TYPE=INFRARED SPECTRUM
##DATE=3/5/2025
##SAMPLING PROCEDURE=Instrument type and / or accessory
##ORIGIN=Admin
##XUNITS=1/CM
##YUNITS=ABSORBANCE
##RESOLUTION=4
##FIRSTX=4497.3318
##LASTX=599.83466
##DELTAX=-1.4281778
##MAXY=1.7564692
##MINY=0.19063868
##XFACTOR=1
##YFACTOR=1.6358395e-09
##NPOINTS=2730
##FIRSTY=0.21053995
##XYDATA=(X++(Y..Y))
4497+128704531+128495940+128811810+129598042+130402720+130642301+130072740
4487+128933527+127799452+127428262+128316836+130067803+131457117+131473240
4477+130265873+128906937+128346595+128757447+129639170+130251817+130078624
4467+129163862+128084652+127544486+127867452+128707747+129298232+129200363
4457+128715863+128339053+128139671+127985407+127994143+128369232+128973243
4447+129400464+129428985+129130194+128536995+127564262+126449125+125893611
4437+126367224+127500079+128548145+129186535+129434860+129166048+128254055
4427+126963776+125716054+124653040+123638714+122431720+120960870+119766310
4417+119761545+121051233+122538981+123294342+123613300+124053291+124247836
4407+123551603+122306050+121519454+121568279+122011723+122491932+123054961
4397+123587439+123587311+122763395+121604397+121031256+121392754+122056631
4387+122267473+122048460+121775977+121428034+120901878+120468245+120246482
4377+119848420+119124868+118566922+118473716+118514762+118506701+118787756
4367+119413520+119722959+119127246+117868776+116775737+116538744+117143120
4357+117826008+117929570+117776163+118152937+119097923+119887462+120133701
4347+120170803+120294150+120209726+119473777+118213613+117126760+116852346
4337+117458963+118420018+119020887+118872844+118111308+117235460+116886806
4327+117480633+118645634+119329916+118941473+118034554+117509774+117614620
4317+118020453+118408476+118647984+118680367+118481377+118136686+117925571
4307+118185210+118922945+119660397+119885795+119671501+119583843+119873197
4297+120097784+119857137+119506780+119665662+120370467+121168067+121688775
4287+121780004+121440058+120873731+120370886+120026195+119738463+119486776
4277+119445165+119745869+120186780+120337073+120017914+119502963+119145418
4267+118991382+118900627+118876461+119079832+119590220+120318253+121116473
4257+121845052+122405622+122785557+122938746+122730082+122300557+122189161
4247+122611845+123028499+122974901+122764224+122800961+122903867+122865764
4237+122944148+123277371+123452605+123099788+122449720+122007387+122045527
4227+122638371+123814185+125315515+126453097+126651476+126060454+125260468
4217+124497146+123685809+123022505+122978371+123648525+124550216+125109638
4207+125130298+124860484+124725686+124928420+125289052+125513193+125471937
4197+125193889+124825787+124633000+124819665+125349209+125987144+126420668
4187+126432637+126111420+125774116+125621446+125617056+125670472+125775537
4177+126007029+126435853+126973021+127410845+127682262+127820194+127693831
4167+127216218+126754301+126812445+127331359+127770184+127859281+127813608
4157+127792666+127623681+127205105+126792696+126672819+126829743+127116300
4147+127472123+127736562+127621914+127173396+126827010+126801295+126924980
4137+127152600+127608150+128037794+127953917+127459971+127261983+127717178
4127+128407399+128738837+128532760+127995482+127489612+127346052+127569126
4117+127772635+127730286+127810793+128466390+129483230+130171784+130145349
4107+129555092+128792891+128308983+128452681+129153587+129974607+130654698
4097+131282594+131801408+131814352+131160568+130248766+129534624+129080340
4087+128839830+128934174+129389260+129914122+130165581+130052590+129692987
4077+129265839+128973735+128984229+129300263+129705139+129852717+129526398
4067+128953385+128693692+128963369+129275003+129094550+128604877+128390228
4057+128634345+129060373+129424585+129645947+129598352+129188211+128635575
4047+128357863+128490648+128719079+128692945+128433242+128168083+127971333
4037+127783393+127658360+127776151+128225042+128873097+129407760+129500547
4027+129124219+128727477+128813450+129312624+129736192+129913939+130073715
4017+130225528+130032450+129382437+128660935+128359530+128603492+129069327
4007+129329704+129310001+129338175+129745046+130524656+131385692+132047064
3997+132413809+132437466+131973699+131076080+130290559+130169015+130566157
3987+130924640+131144226+131549849+132071550+132136024+131546551+130936555
3977+130999873+131637880+132196728+132257477+131867841+131279370+130834322
3967+130917179+131710170+133039765+134503528+135677465+136274499+136216419
3957+135597259+134663595+133876179+133852441+134974054+136786463+138011347
3947+137876486+137163947+136977892+137090154+136596327+135669285+135324867
3937+136015207+137604304+139924276+142321849+143318904+142111737+139995992
3927+138992188+139658534+140867022+141505275+141867884+142809628+144180961
3917+144727648+143542307+141255829+139311920+138532138+138890092+140401734
3907+143524753+148270811+153287857+156568347+157182434+155292880+151328372
3897+146704040+143924091+144692004+148150879+150884536+150393287+148821124
3887+149557182+152333916+154273744+154708835+155120844+154986228+153018936
3878+150912729+151141105+153638597+156945686+160249223+162473521+162127154
3868+160290596+159559457+159932496+159083411+156259273+153539690+153177873
3858+156302159+163405518+173047971+178380778+173420245+163737858+156149015
3848+152705808+153324513+156852317+161382715+165551569+169151154+171609321
3838+171486602+169014461+166465238+164961403+163773365+162343606+161132959
3828+160436562+160331315+161992319+166630879+172251719+174276836+172467097
3818+170664189+169289686+166158331+162074357+159967876+161283589+165468602
3808+170123067+172782748+174473139+177678606+181291089+181920024+180088878
3798+178652669+177638198+176019860+174731585+175304935+177820454+181504845
3788+185906840+190752488+195521546+200258904+206134054+213905299+222410725
3778+230085740+237412566+246006807+256692425+268954023+280526967+288430696
3768+292153145+293611124+294588230+296895951+302451350+311269021+320749093
3758+328707277+336547332+347561318+363714013+383573745+401495151+413418671
3748+422936966+434645837+447265626+455297703+459057027+464599418+475244956
3738+490349475+506898894+521508238+532856713+541987613+549906189+556360810
3728+560823545+563263166+564298662+564954450+565150844+563157063+557981480
3718+551334108+546449655+545665463+548178578+549159309+544205261+535626561
3708+529010197+527478688+531390791+538602421+544709072+546817119+546802399
3698+547784879+550526925+554673134+560656519+568827966+577096882+581008438
3688+579076234+575021118+572119041+571319291+572959017+577202220+584051306
3678+592496284+597666146+594180827+586667755+583308907+584335476+583574641
3668+577786447+570583197+565803973+563892975+563230300+563006397+564166396
3658+566784631+568590326+568716652+570083430+575179982+582457272+586608654
3648+584134782+577715432+571676772+568217214+567228321+567257507+567210904
3638+567442970+569071837+572616803+577737913+584026966+590619282+594411362
3628+592543178+588326209+586762636+588854068+593193209+598208252+602759455
3618+606493236+609836670+612897757+615224315+616913376+618607757+619980547
3608+619945860+618859389+618620146+620461075+623852169+627398629+630732736
3598+634895049+640333669+645396334+647860623+647695638+646703538+645755090
3588+644195963+642040365+640474679+639947002+640395830+642289374+645477442
3578+648090903+647913384+644362770+639292161+636461173+638890847+645766823
3568+652256715+653874287+651041113+646936588+643387869+640460396+637834182
3558+635413836+632967328+630570374+629009497+628415068+628011932+627974329
3548+629351492+631677540+632788350+631720535+629711414+628093040+627088042
3538+626494051+626182298+625759850+624704788+622973315+621038524+619368119
3528+618224807+617965305+618749277+619702171+619414831+617714037+615894459
3518+615013856+614998990+615392143+615879010+615900945+614874668+613146037
3508+611690389+610807491+610101456+609308338+608406383+607488833+606783309
3498+606253919+605578200+605034637+605338738+606208264+606512001+606189390
3488+606285692+606693128+605707405+602452512+598465021+596141050+596182588
3478+597080316+597047888+595923741+594504093+592851688+590725349+588996062
3468+588881505+590110479+591187877+591230617+590409953+589230787+588617812
3458+589585827+591758331+593277961+592985410+591848366+591554103+592444653
3448+593096324+591797901+588644010+585544447+583907672+583283292+582396349
3438+580579578+578038844+575485905+573756399+573444427+574645018+576741769
3428+578434766+578604051+577274839+575201917+572819829+570484052+569190111
3418+569786945+571672290+573101448+572788785+570652791+567468184+564453664
3408+562521387+561438670+560357155+559128909+558445429+558900123+560278925
3398+561627266+562175348+562203878+562196700+561594291+560020917+558658766
3388+558468602+558408445+557119787+555277911+554751509+556067640+557665464
3378+557600315+555705787+553642521+552926065+553489814+554135000+553994645
3368+553354051+552948838+552941697+553306647+554608823+557073185+559203786
3358+558906244+556139129+553073962+551515636+551284263+551197689+550699344
3348+550216411+550394550+551221336+551786033+551066444+549195709+547593477
3338+547642010+549518429+552110866+553716269+552987133+549923970+546262224
3328+544208395+544300689+544853216+544101635+542427768+541511967+541963346
3318+542835860+543147430+543041545+543214401+543825190+544529075+545124888
3308+545426438+544985627+543803255+542809188+542883883+543871975+544905575
3298+545055549+543710633+541281942+539361982+539210077+540375943+541689596
3288+543141199+545403010+547881837+549066504+548754788+548157044+547894444
3278+547587793+547084856+546577402+545926205+544950320+543867675+542883738
3268+542024851+541540206+541735580+542364951+542704578+542288106+541384548
3258+540769387+540965526+541678374+542064130+541551501+540239378+538486698
3248+536531649+534706861+533600314+533535165+534058178+534379805+534393651
3238+534798390+535868355+536656226+536046785+534212269+532374181+531444243
3228+531304691+531179457+530380036+528801013+526920477+525315840+524271745
3218+523812679+523717688+523586370+523354268+523449550+523943122+524064020
3208+523212238+521860107+520768463+519918285+518804304+517334374+515908167
3198+514745945+513610612+512370233+511381049+510940055+510769896+510420103
3188+509801043+509152870+508866769+509041701+508986390+507878677+505896555
3178+503867139+502192397+500911755+500131864+499712185+499149165+498080621
3168+496540368+494937917+493895243+493561118+493213403+492080330+490290339
3158+488598180+487594968+487428233+487748840+487771613+486914184+485488852
3148+484410907+484157854+484255942+483841219+482527128+480632564+478729182
3138+477156099+475941189+475028376+474472898+474330175+474448376+474542201
3128+474409462+473957428+473092310+471713326+469897100+468042434+466661118
3118+465970678+465801721+465829522+465711941+465147572+464109781+462911486
3108+461837477+460938109+460315697+460220488+460605187+460900325+460549585
3098+459636407+458772929+458431372+458491638+458447549+458028381+457467802
3088+457017553+456528317+455884881+455458754+455523793+455520332+454580956
3078+452636656+450479456+448906883+448138942+447865193+447667414+447467377
3068+447495615+447735114+447718389+447102936+446071230+444983667+444035765
3058+443340407+442909688+442488406+441744113+440636582+439393725+438241560
3048+437323463+436741459+436474196+436219175+435491424+434135541+432683282
3038+431864002+431745437+431663199+431060535+430114237+429338499+428827984
3028+428227470+427321872+426225527+425006718+423675684+422597376+422274182
3018+422573765+422746985+422369901+421760242+421345337+421079312+420580785
3008+419580050+418180697+416775988+415704384+415019665+414612339+414380565
2998+414181511+413811969+413178808+412375925+411562657+410854473+410259424
2988+409638688+408853622+407972109+407181650+406529906+405906875+405237495
2978+404567861+403978752+403448889+402812849+401940080+400959896+400164555
2968+399681477+399356570+398936236+398304205+397587458+397057522+396879747
2958+396910026+396729591+395976590+394757125+393636076+393056076+392868281
2948+392580249+391898372+390872350+389712897+388688332+388029155+387733471
2938+387597016+387507308+387469560+387301186+386668754+385550547+384337714
2928+383394476+382796403+382482610+382338430+382086324+381368229+380119579
2918+378810116+378078102+378007742+378026398+377665456+377052371+376485561
2908+375995196+375477903+374869957+374180610+373621051+373496401+373722491
2898+373764721+373255445+372336911+371287242+370183865+369057132+368084235
2888+367434385+367028152+366619296+366137384+365787773+365680394+365525465
2878+364956906+364055972+363244234+362702456+362208921+361558307+360869288
2868+360432922+360367773+360395173+360021879+359116317+358122213+357493352
2858+357187247+356923044+356640514+356479099+356498738+356552592+356386513
2848+355887476+355194376+354460941+353655689+352771078+352057101+351791550
2838+351859031+351790712+351299508+350586405+349985855+349513598+348961582
2828+348259883+347516792+346817499+346191188+345710332+345429368+345230023
2818+344887736+344336594+343721360+343143182+342530644+341822824+341132093
2808+340628355+340305963+339957518+339430279+338800689+338161734+337407895
2798+336468956+335575091+334997131+334657541+334248320+333648170+333032827
2788+332593509+332282376+331896147+331319827+330578776+329721092+328788312
2778+327850940+326963014+326130507+325368214+324701495+324081342+323415242
2768+322742146+322234874+321907782+321485516+320755980+319885543+319159760
2758+318579031+317951736+317236192+316549942+315925307+315251009+314452280
2748+313623854+312939791+312460101+312071030+311640676+311193670+310845990
2738+310581022+310229481+309711496+309136853+308597771+308035407+307370618
2728+306609637+305795677+304995399+304309896+303763910+303206574+302452898
2718+301534857+300716725+300229547+300069590+300059388+299980247+299648035
2708+299037392+298336149+297734451+297246108+296842225+296550093+296282119
2698+295811102+295077430+294315592+293764414+293404528+293032108+292494120
2688+291852414+291342318+291097956+290947490+290631620+290152240+289675721
2678+289199966+288598523+287887388+287180078+286495814+285817034+285200270
2668+284697297+284310904+284075504+284027171+284070895+284007622+283709351
2658+283201551+282583147+281925136+281275250+280729993+280405779+280276337
2648+280116234+279712679+279093382+278454592+277924291+277503028+277169031
2638+276900601+276623518+276253485+275807773+275427191+275256886+275295326
2628+275374868+275303926+274997310+274471674+273808890+273166128+272732002
2618+272588770+272628941+272636356+272468237+272162624+271854442+271600715
2608+271335765+270988468+270583037+270222568+270019488+270025300+270173579
2598+270321111+270390687+270404296+270335868+270062574+269554264+269005035
2588+268676211+268654659+268798475+268878927+268774354+268541723+268299037
2578+268080179+267841829+267569519+267325010+267185056+267156982+267184765
2568+267224754+267257402+267255416+267229491+267287735+267567970+268098598
2558+268717768+269131907+269129466+268756263+268215833+267645762+267089228
2548+266597387+266228957+265978636+265756846+265428788+264915704+264307976
2538+263815497+263543478+263390189+263240306+263157103+263247229+263417826
2528+263457979+263332655+263214072+263232545+263335333+263388094+263320504
2518+263153623+262935732+262720628+262609860+262683426+262830375+262806910
2508+262538280+262202534+261962816+261793422+261606064+261390195+261183726
2498+260998792+260805112+260574796+260346155+260187746+260062240+259817841
2488+259378523+258852887+258385841+257983579+257556741+257092956+256693919
2478+256411935+256143779+255788867+255419836+255146925+254920033+254640053
2468+254364701+254228409+254224602+254195598+254016439+253735931+253519843
2458+253455641+253467319+253437259+253312554+253077027+252750408+252419836
2448+252153902+251909047+251614475+251292902+251019190+250830393+250720755
2438+250643563+250505341+250258937+249994406+249836289+249790561+249789778
2428+249799543+249781033+249683747+249573489+249612021+249819437+250010147
2418+250042139+249996720+250040645+250216252+250425708+250547753+250524288
2408+250390601+250257972+250224468+250296084+250425726+250596687+250813322
2398+251035623+251153095+251038665+250693463+250342742+250259994+250459740
2388+250691769+250718222+250404465+249557530+247939320+245518846+242534295
2378+239270639+235932251+232727731+229854968+227319974+224927374+222552865
2368+220353270+218626989+217486756+216805171+216571192+217118017+218892941
2358+222189991+227053384+233314909+240865129+249481541+258004312+264492236
2348+267577261+267476933+265916439+264614864+263595874+261806375+258798195
2338+255034754+251252476+247884537+244900187+242173808+239883723+238295209
2328+237303456+236517243+235724798+235100910+235007978+235635346+236769275
2318+237914209+238696123+239163151+239668127+240473270+241529297+242646684
2308+243757841+244899604+246010487+246902313+247454584+247736531+247899695
2298+248017969+248083172+248127297+248259308+248526735+248825680+249060897
2288+249319088+249731115+250217035+250526255+250512209+250268374+250013590
2278+249894861+249883347+249827381+249598868+249203165+248772155+248446793
2268+248269637+248218936+248287983+248437283+248532674+248454080+248228682
2258+247979637+247786322+247639847+247490711+247290382+246999271+246634466
2248+246337051+246284364+246490122+246791454+247040171+247185080+247196211
2238+247064492+246898487+246916650+247255785+247797982+248291827+248655830
2228+249027430+249518488+250098980+250715672+251374466+252101288+252892274
2218+253713358+254556067+255475821+256543235+257791047+259220606+260801268
2208+262467921+264150769+265805197+267462103+269238175+271173348+273112092
2198+274903140+276606885+278356686+280149993+281890393+283526457+285068751
2188+286507219+287791996+288918511+289917897+290746159+291353031+291826581
2178+292281421+292716421+293089769+293346448+293380808+293172536+292842273
2168+292427514+291778922+290773650+289505415+288186551+286878782+285456456
2158+283892410+282352976+280960746+279731991+278682339+277801481+277112609
2148+276711896+276592784+276950993+278782085+283213429+290100937+298205505
2138+306615722+315098667+323481921+331628737+339696304+347943576+356506864
2128+365358257+374352409+383403877+392469846+401302693+409474796+416514482
2118+421921620+425539132+427918997+429860820+431898107+434666205+439282630
2108+446791694+457388006+470458517+484982053+499279536+510994127+518523669
2098+521971822+522052639+519372754+514769920+508783911+501284430+492264736
2088+481785422+469311526+454384817+437354981+419045705+400521635+382816444
2078+366423886+351619860+338894951+328383427+319616020+312228619+306169773
2068+301329317+297543705+294569556+291951085+289422467+287111522+285098848
2058+283395394+282185367+281497605+281134750+281169110+281883780+283423432
2048+286013610+290060110+295885870+303841958+314400867+327853892+344383816
2038+364208423+386888904+410857679+434132079+454958477+471865340+484070916
2028+491738808+495596219+496702948+496136758+494461907+491748755+487810200
2018+482310585+475248673+467158297+458432465+448974473+438617113+427379369
2008+415436720+403121505+390804359+378764023+367237226+356396971+346249377
1998+336790365+328287343+321126286+315234430+309911825+304545332+299269913
1988+294589706+290752499+287754321+285470976+283608877+281877422+280208164
1978+278638105+277190838+275920490+274832088+273888085+273244904+273112420
1968+273225155+272913403+271922906+270733575+269894710+269480206+269315330
1958+269331836+269478275+269568693+269459055+269229102+269084066+269171751
1948+269555958+270327725+271521683+272667673+272780882+271458047+269563847
1938+268177046+267550754+267426031+267630259+268050702+268472876+268719535
1928+268898967+269442312+270606520+271921066+272722693+273187425+273829459
1918+274228987+273563270+272207987+271426675+271805343+272840475+273672671
1908+273883804+273679995+273460664+273375730+273364908+273452830+273842175
1898+274694977+275775781+276510291+276780214+277238261+278177472+278737177
1888+278124930+276908818+276081139+275827139+275840912+275974908+276185184
1878+276353158+276385677+276406665+276979815+278938289+282389886+285700601
1868+286386212+284036735+280855244+278841076+278242056+278309938+278407807
1858+278344571+278205018+278139177+278240599+278619122+279471759+281016057
1848+283531358+287102759+290567783+291463070+289062745+285826635+284109354
1838+284095854+284697097+285280175+286506891+289227749+292637243+294545125
1828+294347402+293586311+292921195+291586208+289685595+288478883+288536854
1818+289249283+289922944+290655431+292008018+294013623+295766685+296313965
1808+295813889+295365007+296047521+298274917+301404322+303884261+304578909
1798+304158192+304543583+307111335+311311470+314286565+313450415+310236622
1788+308048415+308201376+309757625+311565288+313359906+314944795+315869996
1778+316545679+318472089+322824603+328876780+333476444+333836403+331032013
1768+327703773+325356700+325035146+327234030+330572728+332718524+333498051
1758+334364589+335521638+336725580+339202039+344180536+350375764+354521900
1748+355217441+354160375+353474781+354204900+356338453+358772390+360108853
1738+361007310+364081623+369948556+374266309+372644146+367735207+363407033
1728+360560523+359337961+359768024+361254533+363758575+368674947+376948417
1718+386111089+390366353+387543964+381877360+377557676+376167323+377966387
1708+382473720+388015820+392519764+396361179+402026290+409609903+414975139
1698+415768221+413850009+409951060+405137258+402545112+403654793+407411274
1688+413043191+421587495+432358630+438603741+435633017+429408822+426115707
1678+427269767+431701530+436661444+440281324+443862144+448622457+452082271
1668+451480482+449492312+450395287+454495621+458489597+459918063+460537925
1658+463767786+471849052+485326854+500017489+505318560+501991048+501334968
1648+505919474+510242037+508863271+504585525+502817105+505447874+512390419
1638+522891813+534055555+539821376+538208212+535439203+536629117+542071854
1628+549627594+557697674+566353074+575153784+582403528+588518777+596703087
1618+608477690+619904759+624916850+624374161+622993719+622368465+621776878
1608+620884106+620354315+620983359+623253513+627433171+633469426+640782205
1598+648474291+655761346+662188421+667795378+673111935+678488612+683552443
1588+687780197+691214578+694206471+696994027+699842140+703324180+708384076
1578+715680605+723858902+729730026+733518280+739137990+748332435+758816303
1568+767501727+775062859+784143476+796011575+811615023+833256475+860298287
1558+879980171+883661082+881332848+879921216+879741510+879776635+879262877
1548+878570871+879279055+882192464+886503876+890826074+891789316+884212662
1538+871344884+861995364+858124690+855906568+851434833+845860159+842848882
1528+843138116+844902747+847459148+851965643+857412935+859662976+857452797
1518+853826686+850335245+846716058+843972882+844231728+848858319+857380652
1508+866019218+866898801+857704137+847570135+842321934+841719561+844172628
1498+847159857+847106732+843344130+840084135+841070332+845674987+849502520
1488+848750685+844372666+839587211+836331662+834969001+835107242+836428073
1478+839038838+843170837+848318327+851930373+850278404+843886891+838204583
1468+836725324+838601087+840456883+839842851+838571719+840383791+846499624
1458+853408174+853924191+846843659+838936961+834405470+833454909+834282970
1448+833899146+830730680+826589937+823990978+823391812+824309289+826900159
1438+830619694+832376309+829755998+825383663+822718534+821869340+821072979
1428+819530903+817854085+816505780+815779450+816736716+820074758+823571300
1418+822921633+817672848+811698973+807628699+805487458+804242123+803241206
1408+802821892+803449406+804473861+804772059+804503447+804708076+805639326
1398+806736509+807459195+807079160+804872624+801775211+800030547+800397756
1388+801018274+799786348+797844489+798399858+802460221+808033365+812830042
1378+816662239+820894147+826000901+830529695+833208961+834971989+837163440
1368+839508216+841391194+843465683+846325529+848721025+848747697+846411665
1358+843461966+841330199+840251526+839883733+840051196+840721341+841800232
1348+843101388+844200976+844810198+845628567+847833062+851346146+854645638
1338+856729673+858243037+860218563+862835960+865578407+867916187+869892224
1328+872202459+875519368+879761842+884217763+888419064+892569499+896963332
1318+901493875+905997820+910492874+914797728+918579278+921899903+924946305
1308+927294580+928366111+928567460+929064166+930356795+931851940+932904525
1298+933734335+934816943+935778508+935633417+933874616+930943427+927793471
1288+925079299+922825906+920947811+919564673+918575488+917586522+916385713
1278+914933928+913279263+911963679+911668104+912145644+912453097+912361058
1268+912695766+914318658+917102060+919579976+920131264+919106226+918611779
1258+919816596+921802325+923214467+923746589+923682679+923019895+921584434
1248+919534649+917222228+914658977+911619279+908303828+905348590+902977433
1238+900528739+897183483+893219312+890108198+888898644+888794872+887888909
1228+885337464+882363206+880907631+881603136+883257145+884270159+884226945
1218+883781761+883530202+883660208+884288450+885541582+887426819+889877116
1208+892897721+896425963+899941816+902598710+904225391+905811774+908355422
1198+911600404+914524161+916778064+918839290+921004361+923171618+925443958
1188+928096115+931123862+934433774+938023667+941344729+943222679+943217213
1178+942422746+942475288+944292242+947597856+951104308+953449886+954279041
1168+954178767+953815711+953760109+954779827+957393434+961109252+964709055
1158+967402240+969394965+971297837+973241445+974747958+975537469+976252504
1148+977743786+979579687+980303539+979586027+979074820+980210407+982405575
1138+984454266+986423016+988990348+991663638+992983158+992670239+992432307
1128+994148405+997793462+1001500171+1003694610+1004947305+1006952637+1009980092
1118+1012762255+1014676131+1016310464+1017842119+1018743272+1019023908
1110+1019297547+1019844681+1020762887+1022520449+1025016147+1026491106
1101+1025068470+1021627676+1019581390+1021548244+1026959318+1032365946
1093+1034138301+1031744117+1027993246+1026045849+1027437222+1032270700
1084+1038930898+1044178662+1045805343+1044805665+1043698644+1043530379
1075+1043357596+1042296267+1040564356+1039319167+1040827502+1046840001
1067+1055592687+1062107356+1063316545+1061003614+1058409829+1057159466
1058+1057657192+1059386333+1060884466+1061376726+1061461260+1061409519
1050+1060953259+1060469597+1060468723+1061273319+1063601553+1067691795
1041+1071886027+1073741823+1072437607+1069202243+1066003171+1064487549
1033+1065139766+1066634547+1066641178+1064200427+1061014327+1059791801
1024+1061701815+1065626780+1069422103+1071181778+1069812704+1066248172
1015+1063322667+1062695809+1062682400+1060506471+1056026211+1051564314
1007+1049108624+1048996472+1050266584+1051666993+1052452933+1052117424
998+1050092489+1047070645+1045238242+1045741214+1046986476+1046583632
990+1043966964+1040237373+1037003540+1035397773+1034868931+1033830994
981+1032157455+1031244132+1031503926+1031685599+1030553000+1027895669
973+1024249737+1020525684+1017353138+1014720729+1012286318+1009564786
964+1006003387+1001358068+995853206+989909137+983979423+978439946+973769923
954+970824013+969980867+969841679+968047097+964194058+960835758+960622020
944+963063718+964780690+963040471+958426051+953804270+951657636+952395480
934+954284506+955224501+954875218+954286692+953829557+952884898+951478878
924+951032018+952895611+956281968+958413079+957510104+954562008+951343916
914+948514239+946358934+945770772+947532925+951065539+954241511+954824061
904+952384768+948365723+944409350+941391587+939635191+939040616+939225642
894+939921146+940700965+940695937+939365632+937092781+934839097+933657891
884+934065690+935382878+936210138+935916021+935213083+935178905+936042019
874+936916719+937096571+937471359+939332766+941616766+941214504+937218998
864+932295375+928992969+927598462+927758711+929463002+931653069+932408038
854+931389631+930270076+930490518+931922045+933473885+934014388+932919537
844+930575780+928364726+927523694+928153685+929537625+930930382+931944125
834+932484919+932453074+931630478+930171478+929035891+929292843+930970973
824+932964864+934127560+934563270+935503411+937442574+939213399+939944903
814+940896047+943607450+947365316+950227276+951199772+950019368+946479685
804+941829921+939136080+940467114+944749378+948922112+950692646+950015360
794+948485236+947624600+947689968+947961640+947795343+947044163+945874617
784+944667832+943864985+943891438+945199298+947846427+951065029+953873135
774+955986903+957396640+957452024+955961762+954172645+953038224+951962320
764+950150613+947918134+946055999+945126571+945620216+947556901+949801695
754+950479200+948749038+945915863+943806978+943041515+943572836+945798391
744+949846439+954010283+955518910+953348519+949400308+946900019+947614908
734+950559142+953755153+956188398+957401741+957279970+957219266+959030245
724+961553197+960932825+955697450+949278463+945737833+945302341+945308171
714+944564862+945043203+948495730+952857352+953418551+948354647+941910300
704+939833844+942507425+944570255+941811848+935948522+931070008+928982912
694+929422339+931341972+932386686+929954825+924433349+919191342+916499469
684+915010591+911763787+906285451+901518506+900085960+900929397+900784160
674+897702706+892099392+885264372+879359216+878670853+885013833+892686461
664+896660397+897100188+895752466+894088692+893407180+894128044+894550929
654+892373105+887504939+882187071+879178781+878904777+878192148+874059785
644+867960786+863161777+860538551+859354867+859729874+861857560+864349250
634+865765181+866174949+865531112+862542207+858032578+856261607+859404931
624+863872075+864813891+862770519+861163222+859698028+855515091+849163440
614+844795769+844697754+847118684+849229318+849461784+846492628+839916235
604+833361704+832298990+838379552+848618711
##END=
