##TITLE=<SNM>
##JCAMP-DX=4.24
##DATA TYPE=INFRARED SPECTRUM
##DATE=3/5/2025
##SAMPLING PROCEDURE=Instrument type and / or accessory
##ORIGIN=Admin
##XUNITS=1/CM
##YUNITS=ABSORBANCE
##RESOLUTION=4
##FIRSTX=4497.3318
##LASTX=599.83466
##DELTAX=-1.4281778
##MAXY=1.8867084
##MINY=0.36186218
##XFACTOR=1
##YFACTOR=1.7571341e-09
##NPOINTS=2730
##FIRSTY=0.37756354
##XYDATA=(X++(Y..Y))
4497+214874627+214878901+215216115+215031175+214588007+214777510+215643441
4487+216374331+216452062+216106826+215857079+216051789+216596873+216953422
4477+216724605+216258659+216331828+217272149+218686591+219965076+220756142
4467+220825834+219816550+217781022+215787133+215059924+215508773+215929484
4457+215623309+215055615+214947847+215412538+216028179+216305063+216099889
4447+215695477+215393542+215143557+214719996+214171757+213966633+214640111
4437+216167020+217630920+217844914+216621093+215098424+214414719+214486446
4427+214561277+214392399+214144314+213665817+212676310+211363632+210240966
4417+209669863+209728870+210290254+211145042+212092215+212805466+212751819
4407+211681409+210226176+209518014+209994373+210942632+211359104+210818429
4397+209480378+207892902+206908245+207134824+208259407+209342758+209748815
4387+209532515+209136091+208895723+208833766+208878305+208964737+208792076
4377+208073636+207239031+207147290+207936152+208881765+209392538+209428020
4367+209082258+208507865+208115800+208185526+208375215+208142937+207519155
4357+207025783+207023968+207494409+208181302+208703355+208785173+208515277
4347+208102774+207546936+206891437+206490739+206684753+207324123+207829638
4337+207760286+207235723+206666537+206231460+205938853+205983324+206519963
4327+207211436+207467611+207106550+206530224+206316925+206735144+207546427
4317+208240852+208487003+208326419+208001892+207767748+207929283+208760970
4307+210020527+210808524+210402415+209057478+207661438+206917607+207070322
4297+207925331+208924285+209591504+209990218+210503569+211287699+212088891
4287+212411722+211905579+210819243+209929261+209801496+210312438+211019685
4277+211705307+212341844+212820900+213023734+213031248+213085488+213349991
4267+213761662+214163124+214567197+215077410+215504143+215491083+215125629
4257+214961670+215339233+216011948+216453657+216393514+216146938+216270175
4247+216763581+216999674+216597179+215900736+215459146+215434468+215588081
4237+215577549+215260569+214820896+214589788+214737381+215135484+215470035
4227+215529075+215391693+215228106+215107939+215209331+215815169+216800318
4217+217491774+217423439+216912191+216601096+216753201+217141856+217352712
4207+217191178+216941058+217019654+217377628+217619827+217620048+217510329
4197+217253102+216720755+216034794+215560486+215709690+216646195+217942675
4187+218793851+218791714+218201055+217468113+216934935+216999098+218022391
4177+219879441+221811763+222952255+223008938+222356441+221532301+220807534
4167+220250712+219980476+220071895+220220149+219910988+219220380+218993496
4157+219722588+220706871+220933484+220395777+219896690+219934970+220465537
4147+221390085+222515634+223250018+223106734+222394653+221802451+221572328
4137+221607097+221950349+222606985+223237942+223449731+223208447+222821013
4127+222616178+222633919+222600828+222300928+221930030+221954691+222596673
4117+223511892+224100854+224144189+223913981+223679244+223465301+223247508
4107+223021336+222814059+222882784+223572340+224716852+225615416+225850729
4097+225723049+225700389+225777849+225560887+224823433+223890694+223490369
4087+224140119+225604001+227072073+227892635+227933459+227375875+226579567
4077+226041470+225991894+226097644+225938891+225601796+225469757+225702577
4067+226251919+227090323+228076761+228867251+229290048+229580247+229963221
4057+230257371+230086933+229253244+227869263+226400885+225527407+225670114
4047+226630907+227739666+228344062+228299964+228052320+228119519+228550186
4037+229001868+229192338+229121391+229004819+229049002+229175750+229077852
4027+228705225+228556767+229166048+230277436+230957155+230730169+230183439
4017+230160152+230738870+231301848+231325916+230917738+230656237+230896113
4007+231374763+231738283+232133757+232886373+233881325+234564080+234448391
3997+233634902+232865257+232806607+233306152+233730544+233874422+234080461
3987+234597255+235245241+235737934+236049656+236306221+236481578+236483699
3977+236380849+236191109+235689359+234814947+234031004+233872048+234292488
3967+234808468+235167578+235492868+235807236+235890123+235702334+235537424
3957+235630607+235944550+236399234+237043726+237902364+238738258+239136920
3947+239009172+238807034+238937377+239275609+239524355+239629936+239501204
3937+238913208+238109302+237871139+238627928+239792674+240322986+239988333
3927+239652137+240102428+240950381+241202774+240831283+240740238+241236543
3917+241530863+240891884+239534498+238152213+237356431+237604516+239140516
3907+241961870+245728430+249485882+251964103+252543635+251281229+248446679
3897+245107123+243126820+243606656+245639725+246753606+245742982+244697352
3887+245871426+248443321+249982968+250270690+250508700+249975166+247859973
3878+246241459+247270468+250226728+253221353+255670740+257220614+256765404
3868+254927910+253833890+253813775+253233819+251282178+249125635+248317795
3858+249990973+255075316+262874736+267781941+264461720+257336337+252136543
3848+250302356+251102835+253247913+255724319+258444112+261868048+265423921
3838+267022336+265647548+262968784+260772366+259298629+258339583+258114972
3828+258574371+259335841+260965600+264420607+268217781+268893396+266749251
3818+265122427+264159293+261743216+258361208+256500443+257500534+261058646
3808+265186589+267536146+268734864+270902025+273199206+273003174+271070292
3798+269958820+269549710+268501976+267052120+266274231+266434867+267301595
3788+268818209+270750226+272547557+274354641+277222755+281335484+285037780
3778+286942574+287994073+290061013+294086784+299778169+305807243+310857613
3768+314978331+318744975+322113042+325614013+330800579+338246656+346370722
3758+353399497+359953879+368192600+379654102+393857344+407237752+416506873
3748+423676422+432135226+441580162+448232543+451335717+455053786+462989181
3738+476294182+493464810+510294493+522416684+528472284+530156521+530545025
3728+532388252+536331797+540293592+541914158+541535764+541462663+543242287
3718+546903436+552496618+561080287+573195118+586053270+594574014+597706870
3708+598931775+601419511+606194235+611813605+615702978+617595934+619679393
3698+623419443+629333455+638023332+648991107+659400940+665437070+665682322
3688+662718600+659579232+657297535+656534640+657717348+660038054+663066160
3678+668175011+675647580+681913630+684507743+684628775+682223808+676814141
3668+670928148+667252345+666439790+669072913+675160874+682420892+687739581
3658+690401199+692371632+695547703+700241762+706253332+712806493+716715608
3648+714905285+709532592+704669197+702387569+702674680+704380932+706863580
3638+710509396+714958067+718483597+719763863+719116165+718235360+719356465
3628+723272297+728589222+734517549+741300970+748351420+753639512+755315981
3618+754145554+752628787+752655992+755017065+758801959+761161879+759161324
3608+753005926+747500601+747435946+751928647+756028944+756687428+755303702
3598+754493385+755016929+756092784+756802422+756901269+756850251+757688859
3588+760278970+763780077+765769099+764915633+762800492+761724162+761287931
3578+759018107+754442367+750113100+748545112+750210048+753799147+756532814
3568+755582672+751718741+748862889+748915806+750165203+750356114+749877413
3558+750984679+754239923+757533973+758953792+759366346+761193358+765035241
3548+768585330+769255145+767759002+767267480+769245443+771743830+771680940
3538+768667692+765941623+766462726+769540492+772767039+775247176+776804852
3528+776248403+773341398+770492059+769637644+769535743+768395573+767302215
3518+768309956+770474148+770729306+768985129+768712333+770944843+771641998
3508+768079900+763970241+763787743+766947803+770150333+771438537+770021160
3498+766081923+762231221+761903200+766019711+772083859+775834290+774220100
3488+768222845+762114327+758922856+758577060+760227884+763337808+766630976
3478+768802157+770972048+775565563+781486563+783824434+780545038+775291613
3468+771595525+769462609+767847402+766011298+763283466+760074355+758503993
3458+759985684+762760464+763813116+762829868+762270298+763969427+767343328
3448+770255558+771076051+769978148+768813147+768722713+768448830+766573581
3438+764382455+763700090+763320440+761642072+760364045+762081491+766206890
3428+769958270+771890371+772268664+771906518+771719882+771965745+772218867
3418+772345666+772508964+773206322+775270853+778081997+778932409+776421132
3408+772910323+771366691+771933791+773016294+773115209+771133243+767521620
3398+764795823+765137344+768065653+771053595+772061607+771976871+773791875
3388+777959337+780652365+778552420+773287870+769158400+768486008+770152097
3378+771089484+769320952+765943659+763765084+764306200+766803705+769784524
3368+772382369+774116097+774700836+774395135+773804358+773096824+772078432
3358+771317165+771706516+773012834+774472002+775726555+776037547+774409790
3348+771190435+767624130+764245277+761458285+760733722+763437741+768608058
3338+773459309+776362651+777734437+777857301+776275812+773548997+771351833
3328+770186697+768512060+765471064+763174985+764098668+767517142+770456644
3318+771310449+770723268+769910576+769886695+771249797+773509920+775073498
3308+774969698+774167794+774377836+775858170+777098612+776856277+775738699
3298+775167800+775412374+775260609+773448047+770265327+767651539+767697944
3288+771054138+776158986+779921967+780284792+778386273+777290744+778251536
3278+779046453+777064826+773470774+772117645+774317998+776997594+776867064
3268+774417456+772076736+770746673+770115258+770410579+771981416+773897507
3258+774142217+771901497+768976649+767875353+769184791+771298034+772120834
3248+770621435+767246109+763568000+761618327+762712092+766191421+769610438
3238+770816891+769583098+766981793+764410135+763280820+764018681+765540332
3228+766768833+767908664+769398225+770935684+772332504+773742418+774384213
3218+772940242+769953792+767873657+768069927+769595445+770990094+771385687
3208+770028080+766921209+763763998+762363108+762618265+763249612+763759046
3198+764451248+765354646+766351735+767158931+766581519+763482043+759101419
3188+756444279+756658663+757835536+757826241+756949709+756893807+758158061
3178+759727474+760467777+760208142+759492262+758245511+755654450+751902731
3168+748823675+748111527+749512418+751086037+751111478+749839353+749375036
3158+751195264+753972282+754886739+753052670+750282233+748450132+747840155
3148+748016615+748550472+748753390+747970956+746460974+745499842+746124948
3138+747702162+748474487+747628349+745603439+742934698+740390041+739467580
3128+741035636+743464891+743985315+741983063+739309506+737944775+738475851
3118+739853607+740209579+739060929+738230327+739151296+740413176+739643361
3108+736830386+733914425+732168213+731478250+731014611+729628849+726822115
3098+723794213+722208586+722310961+723707849+726769062+731149211+734225146
3088+733835252+731250365+728737527+726307526+723039324+719762031+718271723
3078+718702391+719563183+720245413+721494742+723072228+723125824+720799961
3068+717553062+715035747+713457786+712272297+710968965+709378656+708247035
3058+708840661+711270120+714085334+715924151+716496000+715849660+714163489
3048+712427250+711758318+711785048+710922560+708457145+705305022+702762401
3038+701648622+702271286+704088732+705590166+705287315+703188455+701061305
3028+700724058+702032410+702835197+701294889+698024380+695446481+695346141
3018+696984143+697710064+696047231+693326658+691552970+691142723+691362263
3008+691557990+691374136+690725353+689887763+689227582+688763333+688157834
2998+687218344+686334552+686085704+686315421+686083194+684760119+682716823
2988+680682143+678897600+677361838+676498332+676798469+677916658+678765239
2978+678548480+677360074+675951517+675167930+675087129+674679460+673085014
2968+670928148+669439672+668739193+667995634+667003633+666481309+666702342
2958+667027174+666858042+665939244+663905106+660649998+656988442+654065086
2948+652476135+652350354+653413386+654657967+654969637+654397382+654009591
2938+654401113+654936462+654532321+652966979+651198176+650285552+650297560
2928+650397628+649741315+648243273+646581187+645498955+645176158+645320935
2918+645726908+646280846+646625760+646212596+644636942+642039164+639192200
2908+636954805+635659817+634955946+634081246+632534696+630858906+630434005
2898+631971192+634518358+636235736+635787769+633065093+629221446+626080721
2888+624900796+625355751+625990626+625840964+625134447+624312529+623178126
2878+621417667+619278509+617231820+615533031+614375086+613932139+614089060
2868+614411789+614363146+613548555+612215304+611473779+612248615+613918910
2858+614704464+613542177+611057155+608637534+606995190+605747082+604271632
2848+602674132+601588983+601253703+601255399+601046917+600247184+598701448
2838+596763105+595239419+594562549+594248368+593598568+592675563+592045980
2828+591729764+591079488+589811977+588563191+588031437+587954367+587402396
2818+585986987+584314793+583166278+582716140+582660508+582618785+582233708
2808+581242318+579664289+577783002+575969287+574561883+573718391+573226393
2798+572562210+571341239+569781867+568586948+568245019+568548617+568848958
2788+568633624+567820322+566671672+565543069+564723084+564383768+564455647
2778+564499576+563923927+562468050+560404096+558352964+556842473+555897894
2768+555194125+554531841+553832278+552904219+551731247+550668418+549953387
2758+549384896+548677565+547736447+546526975+545038499+543368814+541679252
2748+540174494+539051454+538254400+537452021+536472843+535574872+535063302
2738+534812452+534356378+533350062+531857278+530247499+528852409+527727606
2728+526776243+526030852+525693977+525837736+526017453+525362157+523460279
2718+521073698+519418362+518811438+518559639+518003665+517090973+516071055
2708+515136483+514281966+513324125+512204986+511197042+510567764+510167762
2698+509577596+508580269+507306822+505983713+504729804+503643129+502887120
2688+502530707+502419173+502228534+501555599+500177775+498428985+497001602
2678+496213945+495797151+495399421+494952505+494582761+494381437+494209523
2668+493733739+492820572+491753402+490836435+490029307+489210611+488529603
2658+488179770+487931974+487203950+485746038+484068280+482896359+482332991
2648+481920166+481409647+480971246+480629181+480031722+478958479+477698091
2638+476755650+476365756+476316264+476127050+475475656+474536030+473758379
2628+473260649+472669634+471692864+470598014+469907575+469764664+469792038
2618+469529791+468877311+468108989+467540261+467236629+467042734+466767359
2608+466272241+465489434+464459373+463374292+462556105+462245316+462335649
2598+462490365+462540026+462490840+462231273+461640699+460858164+460079428
2588+459307883+458558082+458023377+457847087+457916355+457945866+457660519
2578+456974185+456113189+455476482+455253075+455200090+454933534+454434583
2568+454052525+454017586+454236549+454525560+454758025+454838554+454691504
2558+454256800+453599062+453050958+452932301+453069310+452961507+452426226
2548+451764655+451386566+451455765+451770489+451966929+451881989+451605156
2538+451287684+451089311+451088769+451107018+450893075+450471838+450032419
2528+449646290+449322238+449079258+448833361+448487362+448177692+448148893
2518+448330034+448281187+447711407+446890133+446344574+446298033+446606516
2508+447056993+447476772+447697635+447664188+447509540+447358149+447112693
2498+446604006+445937007+445457391+445307390+445258916+445069498+444762441
2488+444484997+444285945+444075869+443732957+443280749+442923182+442809613
2478+442865753+442950998+443029526+443088923+443052050+442878033+442627896
2468+442344854+441965001+441431925+440856718+440502577+440578697+440999934
2458+441360181+441254888+440660550+439935240+439475332+439397720+439465122
2448+439372787+439171158+439183811+439457116+439637070+439454402+438993714
2438+438470272+438027935+437706156+437422402+437084646+436765275+436647737
2428+436830268+437214395+437501948+437361242+436736441+435975107+435586502
2418+435825615+436406046+436669311+436246174+435502071+435104477+435268861
2408+435664623+435935894+436033622+436037692+435915914+435617710+435282396
2398+435164722+435357905+435686401+435877617+435799868+435534941+435227748
2388+434897047+434444501+433810881+433004431+431925896+430273037+427799853
2378+424700852+421558227+418818251+416498257+414438577+412464616+410239908
2368+407559023+404958328+403380910+403082605+403513543+404355306+406011116
2358+408912186+412836973+417307523+422469121+428778353+435639080+441317779
2348+444315728+444401312+442694585+440615027+438426682+435519134+431814667
2338+427945003+424378360+421028136+417734086+414766055+412636666+411510133
2328+410983603+410460262+409680203+408948346+408802653+409448553+410673526
2318+412136324+413438910+414208487+414477587+414731218+415340753+416203411
2308+417015390+417635679+418156035+418759906+419486267+420140919+420532542
2298+420705339+420808969+420882307+420887667+420805441+420607780+420289495
2288+419985660+419930877+420240919+420785461+421275661+421464739+421320369
2278+421039737+420868060+420886683+420964363+420873216+420470364+419841697
2268+419274733+419052683+419258586+419705468+420002213+419834065+419315303
2258+418926291+418990776+419357976+419665746+419766493+419807165+419978468
2248+420249162+420374400+420198348+419863407+419626634+419587455+419708284
2238+419953129+420264020+420519924+420642075+420674097+420715922+420835054
2228+421019689+421165721+421177051+421101338+421073251+421145097+421279765
2218+421458667+421681701+421924783+422198835+422592528+423162715+423797556
2208+424270354+424453089+424426630+424393387+424559331+425051838+425799162
2198+426505612+426915350+427104835+427351173+427727159+428033606+428181334
2188+428377977+428769873+429172691+429400982+429592842+429944778+430407434
2178+430878095+431415310+432067383+432728343+433337201+434050943+435056987
2168+436280706+437436547+438408026+439433134+440808142+442529320+444367425
2158+446228223+448284647+450718956+453463919+456302132+459112292+461834696
2148+464282473+466254839+467830493+469323107+470937704+472648230+474417983
2138+476370844+478688769+481414702+484364754+487224812+489811836+492247299
2128+494753352+497309406+499657690+501582126+503017141+503953307+504363961
2118+504148051+503118940+501176424+498511245+495537685+492638380+490010514
2108+487641606+485338301+482843713+480023716+476935671+473719844+470504085
2098+467419297+464596179+462090804+459839229+457684298+455480858+453276231
2088+451361090+449987371+449036110+448114971+446986504+445750269+444604536
2078+443618505+442788650+442140138+441694715+441452617+441392033+441360554
2068+441087927+440501627+439882831+439510610+439342156+439197142+439004739
2058+438740253+438386384+438057956+437930275+437991537+438070167+438079631
2048+438021592+437838212+437525150+437277218+437262734+437393196+437537939
2038+437775084+438229870+438846936+439453690+439932730+440303695+440686364
2028+441124460+441440134+441382535+440927003+440334666+439906882+439702335
2018+439491784+439005553+438186586+437137224+435960521+434827644+434017768
2008+433654706+433530960+433342798+432954362+432381428+431733595+431200756
1998+430912966+430852620+430978875+431243667+431426571+431223551+430561369
1988+429645115+428777607+428217698+428022310+427983402+427845274+427516914
1978+427051545+426602966+426363582+426348860+426363141+426311309+426290990
1968+426280203+426097366+425774535+425568666+425513306+425355944+425009639
1958+424707297+424606041+424528225+424205360+423633749+423110543+422944328
1948+423224520+423936973+425044273+426132984+426344485+425281859+423629780
1938+422336387+421728242+421629259+421781363+421989811+422156263+422268544
1928+422374379+422629536+423143888+423708410+424100237+424576902+425345869
1918+425770092+425063812+423605255+422531028+422425736+423002910+423577439
1908+423630730+423181304+422668851+422419053+422347784+422244731+422181365
1898+422422513+422926485+423276962+423379270+423724998+424465504+424864455
1888+424356141+423461902+422896159+422645785+422388253+422066948+421775393
1878+421560432+421465316+421579394+422163319+423666178+426150589+428533982
1868+429083850+427409518+424963201+423200435+422451109+422299819+422286793
1858+422236216+422212505+422307011+422532182+422930284+423591822+424596000
1848+426181797+428575774+430995802+431549164+429690333+427320847+426133052
1838+426066532+426201064+426199029+426793097+428735748+431380404+432971561
1828+432929057+432316977+431637665+430420934+428844229+427881672+427959081
1818+428592802+429214651+429872661+430952247+432369793+433402126+433529943
1808+433116100+432951683+433604400+435268420+437628136+439749655+440710177
1798+440699118+441068931+443084581+446550749+449298222+449178105+447096241
1788+445629712+445972387+447699195+450011930+452400887+454360057+455509793
1778+456329846+458044408+461527435+466228584+469871313+470577118+469284980
1768+467833309+467063799+467640295+470048282+473335208+475658933+476760297
1758+477692325+478686903+479778837+482080818+486480642+491773788+495247962
1748+495792809+494872722+494361966+495194434+497256455+499548090+501136974
1738+502827588+506587075+512484669+516820686+516370514+513570938+511565769
1728+511021193+511842263+513774874+516265595+519430573+524483997+532140794
1718+540543763+545526528+545514418+543322647+541741362+541915040+544292836
1708+548833468+554410674+559405446+564044315+570263688+578207631+584604211
1698+587344594+587775872+586682989+585048786+585301637+588616922+594123198
1688+600917880+609503754+619438550+626132282+626372989+624315242+624449165
1678+628123000+634786338+642399886+648894227+654623367+660792197+666179001
1668+668600454+669423322+671873609+676673299+681635473+684860459+687493040
1658+691908264+699632192+711183756+724000795+730651650+730951313+732812926
1648+738294370+743055729+742969297+740830003+740887127+743839384+749014857
1638+755996311+763004224+765731378+762967114+759269194+757901954+758580181
1628+759586225+759865263+759421638+757858195+754744200+751726271+750979048
1618+751801713+750609982+745750522+740163514+736271156+733726975+731170039
1608+727828227+724154460+721154509+719254769+718049402+716968188+715917638
1598+715154404+714629639+713823867+712437088+710781447+709230623+707877222
1588+706870568+706438272+706480742+706583999+706559643+706974368+708960947
1578+712893603+716653192+717080061+715575099+716307261+720081300+724016467
1568+725749314+726795996+729486854+734639938+743196639+756859274+773859990
1558+783833118+783004415+780874551+782496542+787310208+793718525+800814226
1548+808458168+817009984+826722120+837217096+847311460+853504578+850973151
1538+843106413+838283860+838648923+841385032+843078598+843492576+844844823
1528+848358549+853666384+860037250+866951133+873042147+876404583+877677386
1518+879061859+880448977+880625301+880280048+881325034+884980145+891478489
1508+898999227+901670614+896456199+890504331+889507988+893344579+899553912
1498+904518393+904830199+901176988+898594204+900799713+906833265+911671965
1488+911406156+908128863+905775049+905382306+906011821+906948801+908332120
1478+910636680+914223676+918923570+923056227+923753857+920854857+917982587
1468+917894866+920506822+923784794+925677614+926638475+928783807+932778268
1458+936207665+935038866+929799688+925184463+923496529+924414241+926367306
1448+927458086+927045601+926081484+925570286+925840234+927038613+929151787
1438+931412927+932299907+931190335+929500500+928769017+929055857+929214678
1428+928353343+926903402+925875851+926177346+928717592+933576238+938114054
1418+938036035+933365721+928560196+926338609+926237930+926701569+926761745
1408+926179652+924941382+923264641+921958595+921924267+923137503+924758952
1398+925951835+926111741+924828966+922395640+919892300+918113049+916686785
1388+914316621+910285389+906158430+904602586+906496017+910370396+914262550
1378+917449002+920240131+922813756+925005968+926958965+929009521+930941758
1368+932329351+933464975+934982081+936849460+938573216+939817728+940311625
1358+940015491+939531091+939593168+940450161+942128869+944530037+947010988
1348+948744513+949602931+950065824+950605854+951637475+953394949+955462533
1338+956919394+957415462+957628828+958201152+958786705+958663570+957934326
1328+957499045+957987786+959193492+960457068+961244387+961261483+960437326
1318+959336641+959234741+960804764+962973637+964028732+963633072+962956405
1308+963172282+964400173+965574942+965322499+963519638+961527699+960640719
1298+960989772+961917457+962504028+961968136+960287868+958073743+955600390
1288+952625609+949286850+946405625+944642656+943685120+942539319+940762307
1278+938939229+937466628+935480117+931992917+927702660+924521162+923378143
1268+923219661+922403645+920739795+919463736+919288090+919413328+918550297
1258+916126470+912519460+908835176+906182446+904654282+903590029+902981206
1248+903384261+904281688+904218187+903066145+902527268+903740098+905781155
1238+907132113+907555928+907831100+908455527+909260756+909895766+910308252
1228+910799707+911678749+912941579+914376798+915812017+917087330+918062167
1218+918760475+919223436+919437888+919756886+920973718+923489812+926850009
1208+930390058+933625221+936015805+937496818+939055987+941552339+944396250
1198+946455015+947500544+947750681+947134463+946106234+945998974+947544913
1188+949855985+951707150+953171474+955148759+958192468+962318817+966999239
1178+971048992+973372412+973939987+973579944+973143849+973059588+973296903
1168+973834695+975134092+977529358+980423813+983002797+985162241+987098074
1158+988685600+989725973+990377809+990903185+991170148+990954542+990699792
1148+991115941+992241932+993990111+997067538+1001945926+1007370654+1011286282
1138+1012918993+1012963565+1012427131+1012013627+1012047888+1012450740
1130+1013026863+1013637450+1013993422+1013951360+1013713231+1013643895
1121+1014315813+1016472474+1020404860+1025252108+1029545757+1032043534
1113+1031921348+1029773099+1027793236+1027282785+1027070165+1026033727
1104+1025493222+1027373356+1031510898+1036141184+1039908915+1042505335
1095+1043969319+1044231736+1043492519+1042752080+1043421419+1046119808
1087+1050024852+1053492784+1054992047+1054089667+1051811905+1049478376
1078+1047826127+1047529450+1049147777+1052035516+1054634853+1055984794
1070+1056028960+1055175494+1054285597+1054517960+1056214103+1058406111
1061+1059733189+1059112832+1056688936+1055137163+1058121985+1065312260
1053+1070930340+1070258016+1065143127+1060546966+1059159915+1060731159
1044+1064233284+1068356172+1071427087+1072731980+1073247044+1073741823
1035+1072847313+1069636099+1066179158+1064338441+1063136330+1061887612
1027+1061824450+1062721674+1062528864+1061590866+1062628050+1066138045
1018+1069286640+1069159841+1065636888+1061370241+1059351436+1060200966
1010+1062257220+1064367003+1067105215+1070680610+1072872347+1070713650
1001+1064426637+1057720490+1053905812+1053160692+1053457845+1053478944
993+1053782473+1054480782+1053475212+1049415011+1044969393+1043858328
984+1045475163+1045586019+1042196038+1037402454+1033863491+1032656902
975+1032938383+1032065786+1028398260+1023562138+1020010352+1017858304
967+1015386443+1011667831+1007083068+1002363093+998724740+997304649+997423375
957+996687888+993483798+989017963+985881648+984627706+983229597+980328222
947+977417621+976182674+975857299+974801458+972748664+970444918+968740430
937+968614378+970640035+973830217+976061710+976109539+974604985+972916643
927+971577625+969901631+967302497+964896987+964646443+966625356+968545449
917+968748232+968024822+967374954+966167144+963904579+961740387+960871182
907+961236856+962613730+964967205+967181194+967149376+964022084+959410318
897+955895371+954911173+956098493+958057800+959116015+958223880+955838722
887+953378056+951866853+951544395+952180762+953190741+953954993+954454928
877+954840005+954393055+952196841+949001638+947041518+947759093+950466098
867+953041148+953675683+952332527+950570915+949982988+951058639+953325342
857+955967014+957648435+956539812+952026012+946279980+942688234+942554516
847+944803580+948708489+954351875+959902248+961679396+958653936+954037558
837+951333946+951136183+952088428+953436672+955586346+958603393+961353410
827+962441816+961231768+957959835+953736606+950379462+949626405+952190192
817+957566956+963588092+967036485+966568571+963968216+962172547+962645820
807+964238503+964579346+963100368+962268206+964686470+969401221+972484619
797+971569213+968227740+965371685+964519712+965729489+968149857+970335894
787+970658827+968675369+966424744+966697677+969787316+973298871+975644679
777+977760024+980035886+980458277+977827460+974071874+971443567+969880464
767+968347415+966785126+965936614+966672778+969281275+972832043+975710080
757+976875012+976494413+975227105+973649280+972938285+974927578+979929576
747+984916378+986112247+983052798+977902291+972845883+969945933+971085967
737+976249771+982434069+985891011+985519367+983039840+980222251+977796117
727+976804523+978409825+982179319+985785040+986980095+985808988+984111556
717+983715285+985425336+988225150+989822649+989519527+989723056+992225039
707+994600155+993366430+989416202+987091357+988752222+992622327+994644592
697+992130059+986047321+979127333+973060199+969005764+968179436+969671033
687+970431824+969638943+969325780+969787112+968843144+965279554+960443839
677+956310774+954339120+955489399+958295318+959417985+956493543+950787945
667+948011741+951576756+958637111+963788025+962725603+956103446+949092209
657+945626923+944649983+944025827+944610431+947032630+948619750+947370217
647+945377260+944633701+943555472+940706133+937927418+938366023+944337430
637+954129214+960967926+960044786+953553430+947889895+947433108+951747449
627+957394227+960970708+962673907+965622568+970224021+971858495+967508469
617+959376533+955020196+962183063+979321839+993635631+991097691+973811900
607+959910728+961938421+974689720+981416899+975195287+968243480
##END=
