##TITLE=<SNM>
##JCAMP-DX=4.24
##DATA TYPE=INFRARED SPECTRUM
##DATE=3/5/2025
##SAMPLING PROCEDURE=Instrument type and / or accessory
##ORIGIN=Admin
##XUNITS=1/CM
##YUNITS=ABSORBANCE
##RESOLUTION=4
##FIRSTX=4497.3318
##LASTX=599.83466
##DELTAX=-1.4281778
##MAXY=1.7193297
##MINY=0.17713249
##XFACTOR=1
##YFACTOR=1.6012506e-09
##NPOINTS=2730
##FIRSTY=0.20371006
##XYDATA=(X++(Y..Y))
4497+127219354+126537684+126111341+125911682+125487014+124535536+123330136
4487+122425346+122200394+122766986+123943408+125242063+126128948+126389822
4477+126208076+125920634+125771227+125858014+126160402+126523222+126722649
4467+126699738+126713669+127113369+127870771+128437708+128239724+127347060
4457+126522887+126456061+126946708+127037516+126096935+124560792+123374972
4447+122940282+122902770+122705400+122063242+121201939+120812066+121386132
4437+122451115+122886540+122220085+121166028+120671426+120929703+121566091
4427+122239972+122677426+122558086+121787144+120626078+119407854+118351321
4417+117612354+117285660+117410546+117974635+118709880+119015227+118447554
4407+117247477+116045567+115173348+114665113+114744130+115642443+116921248
4397+117675393+117574898+117085917+116681675+116484082+116522413+116750307
4387+116934732+116804635+116152269+114902322+113341267+111994212+111096113
4377+110625064+110825068+111976698+113608720+114678932+114723787+114292223
4367+114110720+114342075+114762118+115015566+114552706+113097348+111383546
4357+110621342+111097816+112016425+112661625+113042602+113442562+113870915
4347+114006689+113532699+112598912+111862858+111860904+112394488+112758751
4337+112561921+112031984+111542082+111317669+111616632+112558608+113703901
4327+114327930+114090731+113156944+111980848+111194849+111223688+111848890
4317+112560600+113223584+113904221+114321844+114142733+113694139+113706972
4307+114320830+114979496+115347872+115662878+116116423+116489377+116451772
4297+115823983+114679202+113497951+113023897+113725342+115386166+117204633
4287+118302661+118287231+117417106+116326700+115592656+115300635+114989407
4277+114296513+113575302+113533286+114376200+115580651+116441963+116742276
4267+116830999+117109265+117633712+118131245+118170860+117576964+116839337
4257+116692880+117254773+118005782+118451556+118476431+118382189+118634483
4247+119192040+119415634+119055819+118653411+118557411+118419785+118023836
4237+117719857+117761026+117940343+118027009+118054964+118182902+118581560
4227+119340321+120275709+120948538+121017551+120503025+119708185+119024877
4217+118745968+118947042+119517348+120194458+120529901+120124943+119148590
4207+118431892+118784588+120196701+121806045+122699732+122692669+122271686
4197+121948286+121868543+121943289+122105640+122360288+122636154+122743200
4187+122589382+122329449+122155148+122058227+121951348+121913519+122167041
4177+122839731+123808285+124777286+125504779+125955969+126226846+126306003
4167+126000367+125217048+124253333+123570276+123298729+123228692+123196298
4157+123144929+122927012+122475291+122130413+122392087+123296988+124308676
4147+124846029+124752421+124317163+124051915+124368839+125235697+126152966
4137+126630371+126649737+126545519+126539387+126593166+126681349+126909875
4127+127219373+127210355+126513944+125295302+124232367+123938224+124405997
4117+125068395+125465238+125682951+125988968+126319887+126430479+126349657
4107+126403762+126856292+127638252+128382272+128744032+128764012+128813296
4097+129069247+129199605+128784625+127958228+127308877+127164598+127330309
4087+127554824+127855407+128238868+128466919+128317168+127845049+127277712
4077+126848214+126701208+126753703+126735333+126503531+126175999+125902190
4067+125728299+125683072+125794362+126057636+126469667+126985021+127446615
4057+127700295+127689454+127375862+126791318+126210291+126000879+126249302
4047+126739046+127268089+127735872+127922707+127544681+126708457+126007849
4037+125946430+126534185+127551046+128751644+129699120+129940982+129539989
4027+129021796+128749830+128691751+128745326+128948232+129322313+129754854
4017+130163906+130594158+130948398+130837732+130050839+129047992+128592568
4007+128936898+129674115+130292561+130575267+130549917+130377366+130315407
3997+130541123+130886606+130938943+130572968+130115525+129802984+129543786
3987+129469105+130054571+131249464+132156059+132106356+131507751+131179335
3977+131379189+131828201+132221806+132438179+132475300+132384632+132266316
3967+132270588+132541205+133117187+133873845+134537294+134812527+134626213
3957+134221953+133889972+133718380+133845034+134677954+136283156+137773858
3947+138213006+137933985+137840126+137863102+137230837+135829965+134356796
3937+133579851+134062970+135893171+138192421+139512545+139341734+138714429
3927+138785508+139435408+139657625+139123863+138817762+139760390+141625350
3917+142795275+141883459+139321819+136893282+135824177+136035227+137226175
3907+139897318+144574927+150314512+154835158+156555093+155453892+152067065
3897+147546020+144082968+143567437+145723756+147799179+147574207+146747885
3887+147996521+150560720+151710833+151604364+152156635+152383709+150400462
3878+148030059+148234548+150965910+154348233+157321178+159010487+158279654
3868+156255572+155336283+155553987+154904887+152591930+149997524+148945002
3858+151001841+157430169+167237135+173364341+169161271+160015642+152764314
3848+149308334+149367436+151936400+155860888+160545206+165650414+169611977
3838+169979264+166823541+163023084+160306788+158358345+156852176+156248592
3828+156653699+157729188+160192157+165188076+170967128+173057319+171259056
3818+169539986+168148672+164452906+159307291+156260932+157138744+161341498
3808+166256288+169272291+171412548+175007828+178456354+178221323+175610240
3798+174074181+173283696+171473260+169279531+168482197+169460141+171569651
3788+174484518+178039428+181542971+184661581+188345733+193244256+198069541
3778+201419051+204202424+208380182+214946499+223454932+231978253+238573419
3768+243878221+249881956+257048842+265287159+275578425+288381685+301904145
3758+314168497+326171053+340661537+359231378+380664140+400389632+414855325
3748+426383166+438463706+450263951+457610368+460792892+465330995+475069339
3738+489776615+505224793+516084504+520963317+522587838+523878090+526220547
3728+529547351+531973971+531287750+528257024+525561090+524026911+522938375
3718+522542276+524219209+529105727+536656130+543381095+545598331+544852627
3708+545155107+548237276+554153702+561502166+566566391+566453305+563154680
3698+560958885+562383440+567744264+576346686+587088844+597425486+602671065
3688+600489229+594613153+589798961+588319649+590405188+594810774+600453531
3678+607270104+613048133+612900540+608117281+604254194+601283325+596031753
3668+589468227+585059439+583632688+583732708+584066867+585142560+588443307
3658+593795644+598722662+602157972+606682303+614676711+624277216+628710422
3648+623818023+614980830+608934604+607422275+609116926+612282997+615557241
3638+618127284+620244351+623101725+628016570+635326880+642557977+644058245
3628+638376477+632713322+632282940+636655174+644300051+653298460+659477017
3618+660568642+660693044+664119793+669644551+673745945+676071986+677681544
3608+677357250+674680783+672874982+675044162+680290560+684757492+686062707
3598+685352179+684435655+683541241+683017130+684744314+689766700+695559022
3588+697129197+693150493+688401181+686957121+688285192+689961231+690751269
3578+690577360+689411287+688021350+688333285+691229000+695058585+697608267
3568+698786550+699899318+700848897+699933490+695991712+689787992+683827418
3558+680789583+681642380+684835959+687661693+689383890+691659158+694986445
3548+696976579+695612848+692533247+690776507+690789535+690598503+688913158
3538+686629477+685561452+686500087+688588417+690336819+690823335+689659495
3528+686893245+683743143+682224263+683020033+684525960+684939665+684388455
3518+683962317+683879457+683698177+683357951+683040581+682574985+681541280
3508+679641898+677326652+676132735+677263297+679706444+681216614+681436532
3498+682076410+684018971+686437253+688502951+689460348+687764878+683151210
3488+678587645+677358292+679233255+681221304+681080077+678931891+675804719
3478+672280294+669044578+667362508+668133934+670786801+673672539+675324160
3468+675245990+674356117+674086096+674607453+675195440+675817896+676496933
3458+676027764+673759196+671436133+671174673+672791154+674415378+674921175
3448+674563975+674139773+674171264+674202606+673452919+672092761+670919615
3438+669984702+668778353+667794081+668186048+669493348+669660334+668303526
3428+667684345+669148655+671054217+671277038+669805879+667829071+665869015
3418+663945065+662478819+662296348+663774059+666203657+668614270+670798117
3408+672443409+672388244+670383593+668117035+667032929+666795515+666833558
3398+667261185+667418344+666091911+663754107+662309451+662544928+663787459
3388+665586784+667340993+667236841+664430984+661312820+660670189+661948231
3378+662655037+661958356+660856159+660211219+660198340+660684110+661460971
3368+662259050+662437873+661295772+659430636+658679087+659878736+661816235
3358+663073581+663770634+664599087+665101013+664180766+662084396+660402401
3348+660080266+660642941+661356968+662302453+663611763+664441556+664016386
3338+662896321+662165916+661936394+661541747+660453918+658606054+656790649
3328+656341432+657582176+659484908+661453005+663780833+665814817+666049252
3318+664588069+662966972+661613887+659934721+658320994+657835000+658174258
3308+657936844+656884081+656113473+656156355+656572592+657131768+657929697
3298+658810189+659713686+660685450+661227206+660881620+660223950+659901815
3288+659414481+658234114+657077719+656868074+657450553+658132344+658968167
3278+660448186+661959845+661902743+659847542+657468718+656350515+656196855
3268+656048406+655798039+655624501+655192854+654297398+653465893+653280816
3258+653641589+654168529+654905635+656133872+657508101+658162346+657966326
3248+657716703+657718489+657181127+655494516+653305458+651836011+651635151
3238+652109457+652062183+650814590+648913198+647707742+648277192+650490147
3228+652928381+653981368+653197807+651474866+650044801+649456442+649225356
3218+648500534+647304161+646615521+646847500+646839757+645174289+642383397
3208+640574246+640679440+641435828+641653736+641997833+643161524+643975311
3198+643091171+641281870+640199476+639801479+638726307+636720241+635097060
3188+634801652+635414356+635997802+635960801+635136219+633658881+631923656
3178+630305239+628856563+627442430+626211216+625758276+626443641+627516059
3168+627610012+626450267+625275186+625056235+625191581+624666204+623612175
3158+622760345+622012333+620627570+618586142+616738017+615579538+614810792
3148+614147798+613638539+613067936+611974040+610422477+608977114+607814242
3138+606615114+605352445+604428736+603860217+602997965+601554463+600323732
3128+600173087+600817990+601306962+601358331+601492969+602170107+603324418
3118+604243920+603739463+601181853+597423997+594171530+592624843+592776307
3108+593560911+593743866+593028610+592036372+591094349+589810724+587944917
3098+585916145+584403109+583805481+583868836+583846204+583385485+582871536
3088+582596079+582488205+582900421+584345747+586198451+586880316+585472624
3078+582305920+578432783+575277953+573937040+574127477+574433829+573870037
3068+572684831+571661623+571273788+571489165+571971734+572436362+572807297
3058+573044339+572977150+572397649+571308034+570013278+568770003+567399609
3048+565566410+563413795+561609966+560756127+560886075+561432111+561623218
3038+561023207+559683411+557991216+556606416+556107990+556309668+556303117
3028+555423034+553796763+552006075+550635196+549920425+549575100+549199214
3018+548829842+548752304+548990165+549219910+548896100+547554405+545310703
3008+542922758+541168363+540255077+539766440+539101176+538056266+536842733
2998+535564765+534275407+533467836+533554270+533917463+533590042+532817872
2988+532725594+533418329+533607277+532334744+530118810+528071650+526728689
2978+526035396+525646854+524917565+523347874+521372295+520041060+519681738
2968+519587339+519136112+518381027+517469900+516310080+515062078+514224207
2958+513959471+513957573+513934680+513847688+513741526+513602123+513300349
2948+512678228+511701475+510452542+509137834+508169717+507801090+507704234
2938+507455467+507096332+506567046+505290381+503182955+501319643+500755219
2928+501252156+501590484+500829108+499141641+497428899+496227650+495324600
2918+494381981+493444425+492779943+492533224+492447535+491915085+490621930
2908+489060689+488097560+488116209+488670956+488821042+487915052+486254051
2898+484776452+484016230+483675037+483167751+482240878+481056677+479948078
2888+479174902+478800728+478656895+478388400+477722540+476826191+476170866
2878+475857144+475391809+474371318+473040158+471904869+471106455+470416437
2868+469595764+468620426+467713431+467147703+466894618+466589942+465920285
2858+464882002+463648442+462359530+461079031+459894197+459020629+458675564
2848+458758834+458870505+458786305+458663281+458628923+458475784+457936560
2838+457016462+455944826+454984191+454305229+453876894+453479307+452911942
2828+452100202+450984083+449528037+447922909+446615274+446027510+446207226
2818+446684101+446749093+446083122+445063711+444248361+443702362+443087871
2808+442213968+441147617+439947447+438695090+437661943+437033344+436579772
2798+435953147+435162885+434431251+433722100+432722232+431270727+429683503
2788+428634313+428575388+429117031+429180237+428076179+426261072+424707499
2778+423827863+423348346+422867452+422130644+421015642+419623546+418287993
2768+417301041+416652453+416059552+415251200+414240611+413250346+412361851
2758+411420312+410334009+409294944+408619630+408378754+408243297+407844816
2748+407219977+406606715+405929353+404919993+403617643+402320542+401186258
2738+400189033+399277719+398348836+397261790+396063406+395049802+394447223
2728+394123897+393757950+393210239+392564629+391865491+391003202+389862850
2718+388498002+387177637+386212274+385629089+385135352+384515799+383869594
2708+383338633+382839946+382201521+381392275+380541302+379788822+379073976
2698+378148853+376976712+375920673+375274095+374831839+374204060+373332241
2688+372454206+371731766+371086454+370382775+369707052+369279573+368997901
2678+368408089+367329753+366127201+365194633+364556691+364036079+363470537
2668+362777691+362051454+361525966+361316768+361268042+361093537+360619491
2658+359890984+359107311+358512289+358267431+358258981+358070107+357348970
2648+356160898+354847940+353718011+352957715+352578479+352346016+351958889
2638+351333864+350633460+350082660+349785576+349622462+349348643+348851371
2628+348205351+347473457+346645041+345804490+345156126+344802872+344622523
2618+344403758+344024820+343509493+342989254+342586678+342312897+342125698
2608+342025492+341972522+341796826+341363913+340773283+340235585+339799173
2598+339321406+338692993+337981646+337318318+336733309+336204842+335805729
2588+335640678+335627278+335512665+335175083+334756240+334401088+334034545
2578+333532471+332958814+332475910+332137471+331892650+331693317+331489553
2568+331186812+330721068+330198408+329871621+329916178+330299248+330886751
2558+331518737+331944577+331903631+331373676+330624026+329976443+329558792
2548+329294279+329099413+328977803+328832853+328409134+327662276+326992843
2538+326841007+327165152+327519634+327605063+327578597+327732927+328016386
2528+328111456+327907320+327617980+327477348+327530057+327646344+327603016
2518+327245928+326671750+326209096+326166102+326528923+326885862+326767304
2508+326119014+325327673+324784019+324569164+324535327+324481837+324193873
2498+323523026+322613276+321914287+321756384+321969490+322060837+321708886
2488+321015518+320365442+320075431+320124343+320223619+320128810+319797481
2478+319306797+318783877+318386103+318205419+318195108+318235346+318213012
2468+318044649+317755532+317534646+317523032+317536618+317225688+316552198
2458+315897580+315644383+315785722+315969831+315860207+315436191+314930877
2448+314522458+314211155+313982601+313920102+314080537+314337865+314425862
2438+314161424+313614197+313030379+312612095+312395601+312280914+312134346
2428+311900692+311641447+311447511+311332005+311231371+311109984+311028333
2418+311065632+311206859+311366865+311484009+311543455+311572378+311626185
2408+311700074+311713270+311667634+311697934+311870578+312076742+312203154
2398+312271943+312362025+312491638+312591063+312537089+312246613+311774820
2388+311269022+310769256+310069299+308798069+306650571+303580259+299818439
2378+295706064+291488086+287251291+283024676+278899273+275060307+271705995
2368+268890238+266509012+264513034+263056783+262489418+263340559+266102454
2358+270738698+276653188+283502630+291645245+301042377+310084300+316475033
2348+318953580+318015317+315608574+313545221+311739662+309032113+305157041
2338+300794987+296519274+292455272+288652078+285405697+283110849+281808221
2328+281096501+280595320+280313480+280522789+281420572+282947232+284839579
2318+286760848+288395197+289592798+290535454+291638098+293151115+294918204
2308+296589255+297966834+299060823+299914886+300534067+300951309+301231269
2298+301425223+301637511+302073830+302830627+303660923+304165268+304247328
2288+304184959+304217679+304296296+304301135+304249971+304182987+304055849
2278+303863681+303727069+303752344+303882963+303950338+303853277+303636876
2268+303387123+303136681+302920187+302813895+302838332+302899900+302881810
2258+302728708+302430769+302031581+301696213+301633993+301842819+302060820
2248+302100035+302072117+302177089+302458594+302823592+303113658+303188422
2238+303105469+303122052+303407168+303875313+304351089+304775255+305222145
2228+305773876+306393969+306949069+307385127+307861052+308641170+309803689
2218+311138981+312432378+313708634+315085505+316606917+318308901+320193282
2208+322120358+323939858+325643294+327287618+328957143+330824290+333055708
2198+335648421+338405179+341036567+343361492+345453246+347490766+349512949
2188+351439914+353262541+355098828+357034988+358920560+360434750+361417086
2178+362015310+362506552+363075816+363697900+364174291+364345781+364215460
2168+363849699+363314123+362690848+362009466+361213472+360253246+359185854
2158+358189819+357411618+356779781+356113475+355345362+354536377+353862812
2148+353486591+353303487+353445272+355110777+359698016+366938642+375069923
2138+382804100+390004934+396851099+403526222+410296004+417212671+424103506
2128+430907720+437729095+444680939+451677153+458248607+463788478+467941017
2118+470563695+471666376+471570450+470862304+470251313+470570283+472633636
2108+477012682+484094512+494193592+507184403+521764113+535360593+545260897
2098+549625724+547594942+539863147+528923182+517157443+505258257+493022940
2088+480243002+466601332+451988382+436868517+421938643+407961662+395683835
2078+385357169+376783781+369805695+364146968+359277201+354995905+351523668
2068+348884463+346812846+345035521+343300407+341515749+339815812+338275379
2058+336938635+335985371+335369652+334766477+334191220+334040724+334552142
2048+335777885+337804089+340764051+345038834+351325600+360218144+372036890
2038+386996170+404969426+425201869+446565841+467797668+487415546+503740456
2028+515056010+520183739+519410637+514360856+506844364+498205611+489180326
2018+479902032+470373779+460828254+451438437+442139446+432836695+423464782
2008+413990057+404540868+395368624+386703219+378736319+371558043+365061371
1998+359138542+353993393+349974078+346961146+344189796+341000572+337556960
1988+334457408+332015340+330197106+328811524+327580607+326352891+325246600
1978+324401284+323768070+323216190+322638923+322041928+321664702+321739856
1968+322003364+321807008+320933998+319931263+319389620+319275715+319221442
1958+319130132+319125777+319148111+318964226+318470675+317819929+317324294
1948+317282045+317860466+318996276+320144221+320347090+319197954+317479964
1938+316243091+315771279+315727914+315738225+315633961+315458339+315352214
1928+315471330+316073723+317290346+318650131+319509666+320029944+320697515
1918+321064765+320296950+318798729+317882093+318147684+319045969+319633398
1908+319453645+318798803+318234565+318012562+318021421+318121628+318357403
1898+318870012+319590926+320150176+320437246+320941220+321860052+322351779
1888+321618767+320199163+319130691+318681176+318550818+318530643+318581900
1878+318724802+318989538+319380798+320149953+321967182+325112036+328274347
1868+329099822+326968313+323810729+321568180+320615958+320374003+320309978
1858+320252951+320241077+320339385+320576426+321059852+322005634+323599186
1848+326048214+329394114+332493219+333007540+330398933+327144530+325407667
1838+325227876+325610314+326100104+327351122+330135277+333718031+335934486
1828+335905153+334940759+333883752+332321468+330434184+329265654+329194743
1818+329600185+329936986+330485218+331836814+333850399+335452586+335774647
1808+335196635+334835899+335569432+337685308+340657405+343113023+343893159
1798+343485037+343704062+345940543+349746678+352500942+351794732+348889562
1788+346950611+347293554+349038346+350965385+352796461+354509129+355730740
1778+356670194+358657201+362959008+369022394+373763144+374392636+371996055
1768+369187630+367359420+367412539+369757118+373030430+375035119+375728077
1758+376550463+377672202+378924448+381610109+386888556+393230228+397104407
1748+397144609+395361998+394108114+394409478+396127803+398165323+399326185
1738+400395811+403851967+410141339+414922216+413881885+409642056+406002684
1728+403823268+403200997+404159473+406180614+409337230+415078035+424277490
1718+434205675+438760827+435913876+430294681+426202817+425130101+427257814
1708+432075319+437928540+442841226+447317017+453970698+463017833+470082168
1698+472152854+470914194+467544732+463555122+462156288+464706491+469957691
1688+476881357+486417278+498104027+505591187+504208509+499499920+497471483
1678+499836907+505837906+512901794+518678706+523979711+530215965+535209873
1668+535962874+534923436+536718219+542070445+547623790+550464302+552140899
1658+556248323+565225068+579730516+595565934+601730978+598659828+597847604
1648+602108241+606208518+604964275+600997632+599217589+601114626+606613141
1638+615333898+624451721+627497001+622789454+617407376+616516684+619889199
1628+624926250+629944838+635171433+640289632+643777354+646260629+650806773
1618+658575158+665773275+667057347+663236770+658504433+654697405+651600757
1608+648700129+646224969+645062692+645868141+648608484+652866068+658080528
1598+663419390+667818649+670381508+670835862+669735973+668090308+666655330
1588+665671580+665137865+664927029+664689764+664356016+664950703+668093360
1578+674024528+679816850+681563912+680896564+682673628+688056638+694193057
1568+698650385+703110467+710114424+720163959+733737323+753107179+778169671
1558+798056416+805115986+808347385+814143951+822014925+829734771+835866500
1548+840788083+846572886+854694153+864415449+873690505+878781233+874555140
1538+863997946+855900205+852781594+851655723+849206917+846153225+845312711
1528+847212242+850436420+854592681+860450890+866596094+869731827+870053664
1518+870258842+870100641+868321343+866425683+867091766+871565844+879587352
1508+888598045+891608632+884614055+875339371+870509954+870533777+873351396
1498+875959817+875840105+873681720+872771077+874858141+878469149+880174073
1488+878095943+874082248+871067269+870498787+872045659+874428876+876867259
1478+879571271+882822473+886291509+888731380+888064627+884049146+879852087
1468+878344821+879513053+881125886+881380869+881598182+884601101+891202073
1458+897992217+898164861+890810777+882563619+877418172+875549387+875400418
1448+874628024+872222547+869593206+868110730+867494230+867543589+869156049
1438+872082660+873341048+871308032+869243525+869924349+871945006+872343077
1428+870633760+868839349+868278461+868695591+869854666+872096209+874642243
1418+874885315+871693745+867189665+863745718+862037741+861258572+860292316
1408+858905059+857530012+856358727+855581792+855829182+857196263+858650895
1398+859369985+859622511+859293527+857366748+854074228+851340809+850307327
1388+849903970+848202619+845398103+844144181+846358030+851261969+856648180
1378+861320884+865616065+869669217+872504257+873748053+874887250+877376109
1368+880952870+884721334+888404555+891395860+892194088+890463627+888069839
1358+886748542+886500483+886584162+886933396+888103415+890165018+892286105
1348+893550747+893927973+894262838+895591356+898499950+902693882+906926006
1338+909745709+910802791+911105197+911937075+913776005+916046434+917772651
1328+918569017+919071241+920258904+922486451+925482595+928845543+932019989
1318+934464626+936520720+939276175+942881822+945898961+947038903+946815262
1308+946646192+946995798+947208867+946755034+945969835+945668992+946389124
1298+947820007+948932180+948963597+948046775+946598992+944714871+942527600
1288+940470017+938873860+937718359+936779872+935743264+934173908+931695398
1278+928497947+925620323+924155418+923900807+923478763+922046912+920218776
1268+919017936+918641231+918514671+918085480+917405103+916921566+916611343
1258+915679259+913418433+909959523+905907562+901759937+897938466+894797000
1248+892273821+889931327+887427505+884709199+881926794+879431310+877617170
1238+876605650+876333395+876761097+877643450+878506149+879236555+880182635
1228+881362927+882229795+882519024+882781527+883721205+885258473+886658982
1218+887675936+889066767+891580416+894866013+897763142+899476926+900414147
1208+901846594+904422630+907191486+908777443+909288824+910207657+912676116
1198+916334919+919602350+921289780+922120020+923874229+927003188+930164531
1188+932119005+933120325+934431050+936992271+940521163+943912847+946355995
1178+947764693+948588083+949559029+951065923+952569169+953290492+953450108
1168+954296354+956811418+960657978+964643307+967969850+970509631+972307615
1158+973795302+975902318+978840840+981566591+983293403+984579337+986167156
1148+987654917+988148653+987877739+988249530+990078708+992763810+995497378
1138+998110042+1000659575+1003420093+1006604292+1009148539+1009136479
1130+1006302854+1002708821+1000727546+1001597094+1004909045+1008705576
1121+1011212823+1012767661+1015246246+1019568749+1024131271+1025926278
1113+1023856411+1020337123+1018615968+1019727471+1022657283+1026317351
1104+1030499818+1034859471+1037970934+1038526909+1036843872+1034147305
1095+1031651448+1031179674+1034454624+1040831733+1047433375+1052034982
1087+1054317695+1054189869+1051057411+1045732396+1041549408+1041436918
1078+1044416534+1047157175+1048597885+1050397582+1053313546+1056044284
1070+1057153033+1056468934+1055162452+1054892208+1056409376+1058931437
1061+1061052227+1062285079+1063080329+1063260492+1061936143+1059922931
1053+1060282066+1064507713+1070012891+1073277717+1073741823+1072845101
1044+1071440349+1069953184+1069128379+1069202826+1069565312+1069688597
1035+1068958489+1066727964+1063999161+1063422937+1066352004+1070737415
1027+1073016331+1071986720+1069610948+1067787800+1066013714+1063092315
1018+1059853843+1058559572+1060107561+1062990545+1065028176+1065380462
1010+1064801781+1064285412+1063624317+1062405163+1061646095+1062029649
1001+1061774145+1059213222+1055712397+1053131968+1050946409+1048370001
993+1046569932+1046462578+1046818140+1046349418+1045491856+1044690948
984+1043283963+1041221689+1039630744+1038708338+1036932316+1033255646
975+1028608700+1024453406+1021152771+1018089028+1014836040+1012082073
967+1010624091+1009656421+1007412198+1003110540+997396611+991527161+986473433
957+982218528+978154433+974273553+971079080+968465671+965931772+963611017
947+961865890+960242262+957883240+954873547+952369054+951282789+951461836
937+952250236+953272625+954260024+954936529+955487367+956240107+956929715
927+957358682+958024021+958839743+958795819+957701812+956339346+955174389
917+954690405+955706243+957795690+958870118+957516660+954588040+951610582
907+948787156+945668992+942970415+942017113+942712677+943696354+944077377
897+943797975+942838717+941222310+939481502+938399257+938334190+938678882
887+938120078+936281148+934735094+935110906+936670955+937102230+935664275
877+934104895+934141523+935466393+936647132+936911570+936361626+935403485
867+934663848+934371715+933898228+933025926+932620261+933041932+933518248
857+933887210+935020526+936744807+937440967+936330358+934476314+933281653
847+933166110+933653593+934138322+934475867+935093261+936156969+936531887
837+934885850+931899384+929467478+928159955+927303956+926827789+927326588
827+929064121+931986786+935552380+938265028+939024170+938635479+938426951
817+938606147+939034593+940021098+941600728+943339228+945298764+948061887
807+951097936+952366746+950714456+947774520+946159304+946167717+946030361
797+945321843+945511535+946788535+947238571+945861514+944130234+943831774
787+945134533+947098610+948727821+949313724+948569844+946633312+944007470
777+941740540+941078552+942135634+943667245+945154931+947694712+951361927
767+953602502+952061065+947432135+942502214+939968613+941082126+944809494
757+948476784+950151483+949837165+948588902+947531969+946967656+946139427
747+944600371+943148642+942730470+943223686+944141848+945786768+948466808
737+951581101+954789049+958787556+963571634+966359102+963580419+956057264
727+948942752+945954499+946831492+949509670+952243461+953686107+953073775
717+951238493+950415102+952344189+956296017+958900865+957151569+952018332
707+947367142+945019139+943167850+940183841+937667734+937452730+937712626
697+935448451+931060062+927238442+924958856+923310735+921647128+919784821
687+917328794+914509910+912746693+912569209+911759740+907921221+902391997
677+898520051+897097580+896229372+894181393+890214451+884585020+880441861
667+881736803+886280937+889364111+889001700+885807525+881866342+879104112
657+878347650+879060635+879572760+878517763+876804128+876670271+877713803
647+876521822+871854254+867312726+866883759+870277901+873288116+871691810
637+865007754+856692253+850928072+849601490+851370365+853443210+854639732
627+855483968+855887176+854283351+849714799+843261158+836202184+829345856
617+824642330+825453288+832949419+842407691+846428309+844306105+843135342
607+846790645+850516302+848870265+843706132+840241786+839847214
##END=
