##TITLE=<SNM>
##JCAMP-DX=4.24
##DATA TYPE=INFRARED SPECTRUM
##DATE=2/5/2025
##SAMPLING PROCEDURE=Instrument type and / or accessory
##ORIGIN=Admin
##XUNITS=1/CM
##YUNITS=ABSORBANCE
##RESOLUTION=4
##FIRSTX=4497.3318
##LASTX=599.83466
##DELTAX=-1.4281778
##MAXY=1.8043994
##MINY=0.29520059
##XFACTOR=1
##YFACTOR=1.6804779e-09
##NPOINTS=2730
##FIRSTY=0.31057039
##XYDATA=(X++(Y..Y))
4497+184810758+184309867+184484480+184917253+185246121+185488994+185981089
4487+186628041+186782100+186310595+185904441+186002547+186343634+186582392
4477+186567655+186325864+186233858+186667057+187405235+187990843+188354187
4467+188463200+187983023+186990373+186377879+186820566+187781701+188078806
4457+187212745+185767531+184627508+184149920+184166998+184443247+184775112
4447+184784281+184128905+183084932+182445233+182681527+183622072+184884994
4437+186053800+186561909+186089446+185083301+184378393+184238415+184188812
4427+183931485+183855670+184278654+184816699+184906630+184381975+183382320
4417+182401376+182281615+183296539+184526954+184938180+184560241+183943793
4407+183296787+182740831+182585991+182907073+183484418+184239160+185079045
4397+185493906+185054199+184107623+183348058+183021779+183002289+183199674
4387+183545921+183894065+184056335+183769410+182780556+181214800+179673412
4377+178757500+178570543+178753616+178966464+179200452+179496564+179670291
4367+179676054+179836214+180230326+180302878+179580962+178420279+177602314
4357+177452015+177702106+178021698+178270175+178296865+177947178+177361605
4347+176933141+176854684+176912338+176745936+176219950+175664668+175736652
4337+176741839+178089780+178794529+178591080+178071869+177670982+177248370
4327+176791389+176706016+177137299+177682403+178049860+178293088+178304136
4317+177908996+177440558+177402677+177630175+177494010+176903081+176511788
4307+176849860+177682686+178402031+178796622+179134108+179491315+179391967
4297+178440514+177119476+176458000+176908791+177951860+178808504+179130242
4287+178969355+178510299+177971119+177545262+177272489+177014258+176626264
4277+176159919+175877782+176027461+176564123+177147710+177495961+177683857
4267+177962536+178367856+178649444+178515655+177916143+177175801+176770746
4257+176914750+177517437+178413292+179303720+179771359+179828039+180013133
4247+180498489+180673670+180106576+179266761+178822656+178816750+178897069
4237+178857681+178742478+178774223+179139659+179570446+179436196+178645205
4227+178067080+178561233+179860067+180848655+180849524+180225485+179682616
4217+179421778+179285950+179324948+179717252+180387560+181038946+181349103
4207+181128114+180613709+180355141+180463729+180453018+180142523+180083166
4197+180638892+181176600+180750247+179408743+178285036+178297752+179200789
4187+180093736+180473217+180527254+180671878+181012379+181221965+181044603
4177+180884496+181514512+183072855+184654145+185133667+184371015+183317625
4167+182867774+182987197+183066364+182665920+181789910+180878697+180575350
4157+181115594+182002794+182498117+182291085+181677155+181267028+181439123
4147+181992260+182443034+182566377+182439026+182161464+181816920+181546221
4137+181452672+181422400+181148509+180484000+179737965+179417345+179661636
4127+180136547+180481428+180615412+180651431+180739996+180961109+181223543
4117+181344191+181364603+181647609+182378658+183056326+182926812+181962484
4107+180912836+180406483+180514751+181032189+181611360+181810996+181546682
4097+181271373+181414543+181954167+182597519+182933870+182553200+181595328
4087+180857540+180835762+181142816+181216467+180997412+180703854+180603370
4077+181074432+182197111+183278485+183397342+182415936+181012841+179843113
4067+179106620+178858231+179258710+180231479+181185290+181544519+181380795
4057+181080834+180684310+180137026+179851998+180295376+181178196+181646208
4047+181295120+180591914+180217717+180271754+180285853+179900147+179317198
4037+179076524+179514139+180517057+181721704+182802121+183543580+183806759
4027+183545566+182889445+182224386+182026842+182394158+182886253+183068439
4017+182994238+182879124+182670655+182300201+181970713+181878884+182025672
4007+182485827+183384786+184413188+184875666+184511773+183835471+183403708
3997+183249933+183234770+183337470+183387889+183169117+182924683+183194832
3987+184103722+185215369+186025478+186338934+186324906+186328223+186549903
3977+186941196+187340876+187505080+187150604+186263226+185250625+184611920
3967+184588244+185120579+185929960+186691814+187292355+187790054+188111952
3957+188108494+187925457+187979015+188560793+189628476+190724429+191070144
3947+190346934+189325714+188996811+189332595+189541063+189249775+188761121
3937+188556838+189171584+190883986+192994525+194014716+193302253+191959614
3927+191466544+192069373+192779460+192866146+192976684+194105605+195920352
3917+196896632+196125539+194226111+192346828+191215992+191143245+192266367
3907+194688749+198273215+202080655+204570357+205036595+203928282+201638022
3897+198659737+196472620+196561150+198612403+200260163+199836842+198977307
3887+199868267+201890525+202882181+202736900+202703347+202378966+201116807
3878+200350431+201534967+204166030+207250686+210519479+212761945+211954354
3868+208955958+206724754+206054233+205496431+204337149+203530463+204072516
3858+206525951+211495263+218336321+222354340+219286939+212851007+207772930
3848+205387542+205424501+207155505+209801536+212999693+216640802+219690025
3838+220178804+217878098+215020230+213190356+212106374+211230062+210841873
3828+211109557+211658030+212898287+215992893+220291134+222730984+222406550
3818+221457936+220159172+217105835+213203940+211048816+212084897+215894644
3808+220182564+222642773+224247615+227285435+230843104+231929356+230918103
3798+230283742+229941308+228804868+227691961+228112391+230251625+233527299
3788+237772195+242895974+248140738+252923449+257992127+264399489+271844918
3778+279348180+287073636+296068061+307094268+320146137+333698365+344894964
3768+352226059+356439193+358610987+359970828+362023269+364835950+366582934
3758+366487523+366960784+371178990+380241959+392178154+402789765+410148101
3748+416863847+425496792+435246899+443107367+449185171+456882979+468158850
3738+482684628+498594755+512801029+522732738+529021048+534649035+541771893
3728+550484253+559284468+566392323+571265674+574183095+574986890+573736648
3718+571484162+569826028+570434674+573869408+577497483+577173865+572576178
3708+566237572+560272737+556329238+555224418+556307212+558685151+562228278
3698+566172487+569094093+571230170+574585595+579947956+584977441+586258257
3688+583507611+579433799+576284980+575225560+576698830+580186945+584967545
3678+590671968+595183111+594935467+591254083+588574623+587293523+584829394
3668+580950022+577803863+576462005+576180595+575396804+573462899+571339024
3658+570041360+569386179+569243097+570881475+576030632+584244300+589950034
3648+586997712+578051223+570265097+566892008+566748466+567488736+568255112
3638+569382455+570678026+571649908+573153504+576893519+582337174+584970844
3628+581735764+576681805+573998869+574093004+576168145+579128625+581408032
3618+582866441+585290596+589078174+592501877+594910001+597992600+602630296
3608+606779940+608037170+606663177+604753959+604190855+606032470+610357472
3598+615767255+619456371+619201350+616185007+614363681+616277652+620446662
3588+622870888+621845909+619832696+619228732+619797014+620198806+619820140
3578+619269663+619872492+622172010+624865232+626405928+627150987+628405308
3568+630365034+632278225+633599795+633952000+632899214+630247348+626455514
3558+622497614+619567956+618788989+620066861+621490014+621710914+622176904
3548+624364482+626285476+624729599+620020894+615440303+613213283+613045587
3538+613191647+612104739+609628303+606861164+605016287+604809929+606494842
3528+609429394+611859295+612290029+610906530+608853521+606762915+604729556
3518+602946678+601544239+600359863+599449661+599272387+599855212+600436192
3508+600460098+600129457+599661623+598824628+597547536+596179928+594738970
3498+592686706+589934641+587716347+587618453+589671710+592111401+593031392
3488+591903447+589411404+586365941+583379959+580990599+579370523+578286275
3478+577789746+578368847+579750678+580329991+578969476+576666731+575193248
3468+574723179+573814680+571529172+568750683+567095954+567081306+567756314
3458+568218225+568811690+569938287+570645749+569808294+568031091+566663979
3448+565555612+563703463+561474032+559860944+558505324+556868152+556141288
3438+557612395+560084114+561011270+559504482+556720034+554318331+553472540
3428+554133751+554843376+554213414+552365025+550183512+548042044+546109700
3418+544887017+544562867+544719817+545178004+546107146+546930414+546453358
3408+544654129+542951907+542252319+542048479+541634238+540967495+540214491
3398+539488053+538908598+538172938+536571944+534122252+532026396+531337449
3388+531773432+532458407+533271992+534476160+535344438+534598811+532308267
3378+529984596+528702609+528346111+528587938+529269863+529781607+529500588
3368+528861261+528742121+528971640+528480858+526853617+525015514+524211186
3358+524621597+525408509+526017651+526630411+527245832+527567463+527747007
3348+527769955+526830633+525046833+524296134+525432734+526597922+525973422
3338+524299504+523186314+522840882+522654210+522586216+522856098+523010140
3328+522244296+520545124+518957715+518533579+519176806+519695645+519108671
3318+517724144+516588040+516307623+516950177+518386170+519987093+520574280
3308+519518939+517592980+516185362+515929135+516310035+516596908+516851077
3298+517497746+518291433+518557556+518157892+517533179+517118158+517021718
3288+516940104+516524480+516036819+516073493+516639541+517233432+517721625
3278+518331725+518954027+519155738+518664742+517516970+516091902+515009747
3268+514587348+514502684+514234043+513622559+512893639+512393741+512239274
3258+512044514+511302789+510238191+509850445+510789661+512470566+513577266
3248+513311320+511890012+509955611+508047457+506706450+506370098+506806472
3238+507167509+506957747+506547797+506449088+506434226+505770284+504313933
3228+502797426+501695940+500528412+498819380+497065941+496033620+495735433
3218+495766823+496062598+496663795+497164793+496890476+495449837+493045013
3208+490494163+488799425+488357199+488749308+489335111+489700902+489671782
3198+489370438+489047033+488518583+487259367+485322164+483464659+482207288
3188+481510644+481198731+480957010+480312328+479145864+477724449+476185951
3178+474685228+473722426+473494609+473358941+472660027+471533997+470352919
3168+469086361+467708963+466550869+465766227+464973817+463828634+462603433
3158+461791728+461353120+460771466+459721339+458335641+456934976+455775392
3148+454956274+454401612+453961018+453504924+452868577+451893041+450680290
3138+449581429+448798383+448203995+447624718+447059982+446516067+445858900
3128+445027829+444283302+443935424+443813198+443359941+442313220+440891627
3118+439358805+437981265+437302285+437689463+438566892+438796411+437979527
3108+436821894+436115354+435864625+435528841+434811483+433913057+433044708
3098+432076337+430855818+429623417+428826786+428586910+428537608+428226369
3088+427603288+427054478+426928918+427157692+427419417+427473401+427237852
3078+426746750+426081531+425201371+423917292+422257810+420715482+419835641
3068+419647195+419713345+419651735+419413455+419152405+418954737+418617960
3058+417791500+416551153+415534226+415176380+415201989+415090510+414579900
3048+413635045+412503375+411779066+411816450+412147977+411961943+411069653
3038+409993279+409144155+408327342+407235610+406072232+405264712+404823692
3028+404389376+403698300+402744365+401705269+400859621+400344542+399964422
3018+399385925+398495692+397584000+397145250+397241725+397199943+396441867
3008+395378120+394795473+394668885+394339202+393571478+392677060+391823288
2998+390883825+389846289+388912359+388225575+387737736+387344351+387054216
2988+386937630+386825264+386215235+384794352+382969621+381529550+380844468
2978+380675282+380628215+380514466+380348188+380196452+380014816+379604867
2968+378845088+377950244+377282224+376902884+376560007+376056845+375353037
2958+374425419+373357239+372422493+371850380+371626855+371579859+371501189
2948+371259043+370911412+370565626+370100772+369262571+368071669+366981001
2938+366537782+366809864+367187926+366968197+366055937+364838008+363639231
2928+362659191+362092611+361899589+361662870+360958068+359794548+358559238
2918+357597464+357006943+356800124+356954591+357196311+357093061+356516692
2908+355717721+354972201+354472090+354350751+354451163+354298895+353598208
2898+352579719+351697005+351188169+351006320+350937369+350686888+350045681
2888+349117709+348289902+347839128+347632415+347347033+346899345+346481202
2878+346239375+346106367+345904940+345466864+344713115+343796315+343119569
2868+342967834+343060478+342741968+341807363+340887797+340697330+341084685
2858+341214359+340606210+339612763+338841350+338478965+338326201+338216815
2848+338159852+338142897+338041847+337782179+337413835+336942879+336241731
2838+335241154+334109307+333138879+332548464+332436666+332723361+333006828
2828+332756986+331923928+331084061+330688158+330447608+329790476+328669270
2818+327588391+327019967+327034581+327354226+327568174+327363022+326699329
2808+325795653+324893502+324074065+323356175+322817652+322424940+321916849
2798+321164270+320511927+320412259+320767303+320931914+320410805+319343795
2788+318245928+317467634+317030906+316813482+316667705+316405484+315856355
2778+314993468+313973986+313068253+312514797+312325039+312189725+311701957
2768+310801225+309928762+309586204+309747481+309850199+309386975+308377496
2758+307233554+306310796+305653345+305079459+304458966+303910724+303672196
2748+303762925+303883165+303690604+303090187+302241205+301382255+300623009
2738+299848439+298922312+297992566+297387893+297186944+297124856+296953896
2728+296662342+296301375+295837975+295279305+294759579+294371089+294021047
2718+293562008+292973172+292328189+291670383+291006938+290390666+289935211
2708+289721369+289697285+289691823+289528347+289125669+288526990+287855458
2698+287218189+286661079+286226072+285959097+285809951+285638689+285377674
2688+285081083+284803504+284534916+284246944+283909955+283482377+282949777
2678+282360018+281791754+281300883+280900138+280569284+280275424+280021662
2668+279888069+279931625+280003183+279833074+279377707+278869084+278456404
2658+278061156+277626290+277215171+276845550+276483944+276170772+275951042
2648+275759085+275509473+275220473+274952594+274672213+274255329+273676442
2638+273135364+272860729+272825916+272818911+272730789+272608084+272503345
2628+272402223+272224666+271867760+271337394+270804741+270441149+270243233
2618+270083304+269892712+269730814+269672503+269694423+269714445+269664275
2608+269472760+269112645+268727435+268538528+268566868+268617517+268558816
2598+268423148+268237415+267964216+267637725+267395065+267336081+267435943
2588+267575052+267581543+267328756+266889368+266497401+266287656+266192227
2578+266119232+266068388+266044003+266004331+265920021+265795224+265646166
2568+265515446+265466765+265507997+265551482+265532897+265544761+265709035
2558+265916191+265917805+265727638+265649784+265824256+266012719+265920784
2548+265526973+265026135+264583643+264193645+263751845+263260211+262879630
2538+262699147+262556154+262237005+261814624+261609029+261772204+262058295
2528+262105505+261836030+261455112+261151339+260944821+260770847+260574970
2518+260335023+260090412+259948501+259981948+260122795+260232128+260251316
2508+260185078+260003354+259720933+259506240+259523566+259713378+259867437
2498+259872225+259787047+259728895+259738649+259742001+259625486+259347215
2488+258967716+258598911+258341956+258232588+258201943+258101743+257820724
2478+257407919+257047733+256883388+256896228+256955248+256920701+256713261
2468+256381557+256107187+256058896+256219056+256389661+256378134+256156117
2458+255841525+255561623+255354538+255176998+254971261+254727342+254491297
2448+254322146+254254258+254288113+254376839+254415766+254281888+253927838
2438+253459773+253085736+252939871+252983072+253082757+253116346+253014089
2428+252820447+252672028+252601746+252473810+252244362+252135348+252371606
2418+252847882+253219241+253286065+253164867+253073872+253074652+253094125
2408+253086676+253056013+253000185+252955548+253019197+253224012+253480984
2398+253743471+254121676+254753766+255727121+257288762+260040365+264753486
2388+272011852+282139491+295441114+312333551+333109475+357586575+385031745
2378+414414580+444741773+475177926+504816278+532347815+556178921+575236094
2368+589666496+600293323+607446188+610879574+610606818+607000699+599944239
2358+588425015+571488596+549116006+522478355+495435614+474300604+464017257
2348+466200011+479522969+499152858+517470399+529446001+535401153+537593980
2338+537938170+537875425+538120551+538483823+538190460+536470539+533053788
2328+528201824+522365990+515812407+508459498+500215328+491390568+482358988
2318+472963782+462862249+452305580+441923346+431834262+421584647+410892841
2308+399894548+388760516+377616021+366781772+356685631+347495966+339011069
2298+330931687+323169006+315861320+309144120+303001480+297350403+292175637
2288+287531344+283445986+279865085+276712524+273976171+271675554+269776055
2278+268175841+266734103+265323524+263931726+262674744+261637972+260768949
2268+259973932+259229600+258563885+258003512+257555612+257189786+256836463
2258+256441304+256014081+255587320+255152206+254704181+254293026+253921560
2248+253476036+252887802+252282296+251858443+251684734+251646552+251542078
2238+251278633+250999174+250915609+251037037+251189500+251238500+251164530
2228+251005736+250827487+250679493+250553862+250443519+250395104+250428196
2218+250473986+250476877+250494683+250622388+250860437+251125816+251360442
2208+251563572+251748347+251938762+252185005+252497113+252795867+253016164
2198+253200141+253399441+253586042+253751913+253974054+254303152+254698825
2188+255094657+255433917+255674999+255816892+255860980+255781423+255637101
2178+255615021+255827409+256141361+256301610+256177380+255866620+255586221
2168+255461618+255442093+255434432+255429164+255435336+255389085+255237030
2158+255048264+254930313+254882288+254843095+254824101+254891651+255105954
2148+255533815+256232534+257247369+258701983+260744706+263340903+266338873
2138+269747059+273689477+278140234+282955682+288086289+293579973+299473356
2128+305770570+312455706+319488331+326797294+334246110+341623138+348735036
2118+355502708+361876535+367634515+372385569+375813742+377797232+378297343
2108+377294780+374800503+370890415+365870364+360291750+354572927+348755430
2098+342741578+336529915+330187302+323825996+317605395+311654464+306029599
2088+300742184+295815257+291349230+287440206+283989830+280776777+277738212
2078+274997090+272652012+270680848+268989196+267507856+266276998+265385240
2068+264820043+264435791+264029265+263468431+262834283+262332381+262028466
2058+261833175+261685997+261562299+261430745+261333525+261340583+261417125
2048+261497426+261601598+261781266+262055511+262403674+262760455+263094572
2038+263474372+263964162+264543865+265187217+265910161+266728641+267626411
2028+268545232+269424204+270260932+271076379+271874925+272685513+273485211
2018+274061616+274183310+273899470+273458698+273017519+272597089+272187973
2008+271761939+271255195+270626066+269928784+269294725+268798870+268362301
1998+267885405+267490778+267464407+267840785+268207675+268137163+267673780
1988+267139796+266696843+266356129+266145462+266042797+265954036+265874001
1978+265910143+266113274+266391456+266601077+266716439+266904779+267329803
1968+267866393+268173252+268101516+267860488+267742660+267862704+268168925
1958+268551457+268901286+269162621+269370663+269622421+270018360+270601468
1948+271347361+272276805+273453644+274632328+275141253+274622219+273630811
1938+272982387+272906111+273139603+273458858+273850399+274325362+274786812
1928+275206303+275857281+277005301+278360318+279395530+280192303+281144075
1918+281959451+281975022+281373133+281065795+281579313+282683441+283801775
1908+284533710+284906470+285210828+285652806+286246856+286952190+287764037
1898+288658438+289468121+289961067+290260159+290867261+291841272+292405138
1888+291989053+291114018+290537295+290316909+290148964+289943918+289804437
1878+289820345+289985381+290239338+290751119+292003861+294129989+296131905
1868+296432185+294750304+292463307+290882336+290270143+290240385+290404712
1858+290595641+290766477+290894005+291011762+291278310+291885307+292950632
1848+294649200+297082382+299484884+300170922+298631715+296504417+295338218
1838+295250309+295595917+296055629+297056490+299093449+301647917+303321373
1828+303626796+303420509+303098416+302238935+301025545+300363518+300596513
1818+301183275+301607837+302091384+303147221+304654152+305772591+305944154
1808+305595247+305574178+306414968+308188943+310454907+312319896+313129898
1798+313271632+313939262+316085590+319391430+321825055+321457527+319282612
1788+317804411+318018572+319248420+320662882+322102245+323479501+324514766
1778+325474766+327312656+330693903+334975279+338053480+338345531+336748510
1768+334903490+333690030+333840772+335709981+338263456+339891335+340595499
1758+341383049+342297969+343219592+345146970+348935683+353538655+356586353
1748+357160559+356537016+356234431+356942957+358602191+360521127+361928035
1738+363356047+366514834+371709710+375744258+375309339+372200457+369358727
1728+367674772+367312528+368153353+369675571+371960298+376096890+382555167
1718+389213206+392049119+390125394+386594858+384115124+383583161+385188234
1708+388662410+392820389+396212419+399211205+403601967+409341149+413522077
1698+414694004+414147038+412105840+409126314+407539508+408586939+411622542
1688+416122441+422715323+430720788+435477128+434107958+430730187+429369708
1678+430961019+434698019+438675958+441614838+444559073+448509808+451694380
1668+451944897+450988408+451961922+455351681+459081516+461378303+463116880
1658+466466134+473091931+483663569+495496408+500908070+499730007+499936897
1648+503793924+507819498+508405479+507162721+507440088+510521552+516595985
1638+525352894+534750760+540502817+541318317+541658393+545185310+552033816
1628+560427843+569048373+578161141+587927671+597208596+605605070+614796117
1618+626114942+637676019+645788741+650545897+654634322+658992311+662989368
1608+666124958+668639488+671068821+673581578+675833212+677674401+679677541
1598+682514057+686183169+690193492+694280924+698602522+703155022+707420649
1588+710885177+713567900+715850535+718166155+720867038+724174794+728421481
1578+733935755+739769390+743785104+746509468+750995854+758485956+767286208
1568+775191083+782539594+790785679+800389868+811946547+827245120+845914796
1558+859612518+863323412+863938301+865666628+867908757+869510318+870211395
1548+870577718+871459687+872817577+873885119+874353946+872899510+866744668
1538+858051888+851813623+848341151+844959052+840360656+836232221+834276397
1528+834258734+835130913+836570949+838971269+841726562+843024935+842453390
1518+841317606+840126490+838702415+837421989+836879670+837601958+840245807
1508+844162634+845055740+839685896+832796778+829167958+829156679+831072211
1498+832577297+832022067+830166903+829444545+831168686+834305836+836078570
1488+834683935+831398737+828517459+827162478+827194825+827818865+828470924
1478+829375451+831041566+833321008+834865535+833889148+830779522+828321742
1468+828181214+829483206+830019708+828735309+827345284+828407719+832926381
1458+838854577+840632418+835857387+829279260+825173526+824644259+826714080
1448+828792769+828625427+826555393+824368311+823125269+823232173+824839409
1438+827170210+828421481+827844899+826867590+826479135+825939511+824359089
1428+822369854+821334234+821512500+822308492+823676172+825757698+827167160
1418+825786782+822117315+818547870+816216360+814914440+814186619+813938337
1408+814286641+814719148+814041125+812120132+810623558+810931073+812693663
1398+814596213+815439805+814593659+812607616+811250861+811763598+813465466
1388+814204637+812436443+809605034+809015967+812265696+818091244+824079595
1378+828816533+832400875+835395440+837890178+839732147+841183888+842662372
1368+844260741+846107818+848503243+851095024+852642460+852446033+851334155
1358+850448072+850015565+849593202+848926316+848398823+848536726+849274975
1348+850149424+851010112+852105887+853661410+855699096+858171560+860943806
1338+863437126+864691376+864419826+863689664+863946033+865530853+867682040
1328+869861956+872332930+875380415+878669727+881822625+885159465+889070404
1318+893105484+896539580+899295085+901612408+903638886+905912512+909182812
1308+913249247+916960212+919708482+922061416+924634114+927109274+928700052
1298+929190445+929106667+928908184+928442265+927272430+925226657+922659704
1288+920391258+919181273+919107143+919535607+919563414+918552906+916598572
1278+914416953+912632869+911357054+910351157+909380445+908635386+908702351
1268+909685122+910855027+911648253+912362170+913501005+915101644+916994262
1258+919268810+922123557+925304192+927974643+929472919+930132072+930858049
1248+931853944+932358240+931764846+930392130+928858882+927231712+925377613
1238+923740299+922836836+922280329+921365375+920336281+919893133+919758635
1228+918962430+917370303+915772289+914530240+913188666+911506165+910085140
1218+909738822+910807357+913323377+917162598+921461070+924433219+924773720
1208+923248133+922268554+923854792+928036288+932979442+936666856+938441647
1198+938948639+939244450+940233747+942210924+944688211+947210686+949944626
1188+952613233+954022411+953974954+954196634+956120749+959251231+962334540
1178+964667398+966089771+967110706+968686517+970906088+972941930+974651529
1168+976648426+978886015+980506020+980754657+979664699+978610848+979663209
1158+983276422+987497076+990225766+991101847+991172785+991928059+993904384
1148+995764585+996032587+995503676+996367130+999216840+1002246165+1003509708
1138+1003068475+1002435569+1002735707+1004103741+1006225914+1008473860
1130+1010166647+1011428345+1012624214+1013180011+1012745375+1012460986
1121+1013408714+1015529114+1018731456+1022651120+1025436845+1025743793
1113+1025411733+1027343580+1031665320+1035973723+1038602250+1039981350
1104+1041127278+1042058691+1041853681+1040211188+1038527907+1038652970
1095+1040502955+1042260934+1043460988+1045695455+1049361517+1052080419
1087+1051700264+1049110256+1047264811+1048769684+1054128604+1061050070
1078+1065780907+1066452333+1064687331+1063052003+1062217988+1061484989
1070+1060912096+1060869817+1060623663+1059392468+1058581649+1060202506
1061+1062973617+1063645043+1061489103+1058499291+1056581063+1056847505
1053+1060184204+1066107150+1071429324+1072550282+1069950769+1067902016
1044+1069039077+1071058958+1070353057+1067311105+1065482117+1067076656
1035+1070525861+1072033075+1069405116+1063918224+1058372099+1054881112
1027+1054619493+1057535105+1061646869+1064427628+1065616260+1067115033
1018+1069815561+1072452388+1073741823+1073388198+1071681082+1069779951
1010+1068744260+1068237764+1066985430+1064298379+1061158037+1059918896
1001+1061882098+1064779621+1064661226+1060885352+1056881556+1055526290
993+1056583901+1058569306+1060498529+1061483215+1060329839+1056502393
984+1051317484+1047518059+1046997092+1048966536+1050805952+1050713803
975+1048915248+1046050570+1041764512+1036137164+1031203941+1029420992
967+1031348867+1035137225+1037696730+1036274996+1030266428+1022437598
958+1016830112+1015152789+1015809176+1015665598+1012520503+1006800226
950+1001201962+998206403+997827525+998064528+997243920+995248300+992893522
940+991145687+990423896+989947265+988504888+986094920+984096250+983661472
930+984279908+984358649+983344452+982314365+981829009+980721458+978339724
920+976396810+976814988+979102730+981480279+983217828+984170947+983640901
910+981633646+979739183+979280145+979831119+980050316+979026472+976983111
900+975348209+975329907+975892443+974657417+971287662+968115256+967167173
890+968235921+969708091+970178338+969470166+968542584+968098656+967869882
880+967604930+967333380+966548383+964503603+961631689+959541083+959183769
870+959915989+960632673+960747166+959958551+958350322+956854458+956347324
860+956492392+956770964+957791191+960263016+963463727+965738842+966285275
850+965698407+964907806+964287597+963804441+963409246+963080237+962784994
840+962235227+960850239+958573989+956444580+955882682+957709187+961542804
830+965470342+967022034+965202269+961000769+956142953+952401129+951147305
820+952512359+955555943+959315785+963352851+967574497+971746629+975178809
810+977014536+977343332+977709513+979045200+979752094+977944175+974608967
800+972206660+971107977+969531882+966684867+964335197+964674705+967367217
790+969655952+969758812+968867692+968999636+970601056+972825876+974597758
780+975041261+974117297+972720462+971468269+970087963+968376519+966873420
770+966061324+965535250+964601284+963441594+963195511+964906245+968387018
760+971933124+973420334+972339952+970728814+971179695+974295635+978478691
750+981134245+980134945+975712829+971027888+969574870+971986966+975944298
740+978905452+979962141+979324127+977635170+975743403+973835958+971430247
730+969462647+970476418+975654589+982814689+987701093+986993631+980535176
720+971377469+964079537+961747246+964634625+970793439+976852372+979238789
710+977019218+972960090+969674680+966916195+964170125+963125495+965166587
700+968422700+970252964+969790876+966748853+961957080+958501845+958837806
690+961145481+960709853+955660363+949334207+946084904+946330775+946401145
680+943576759+939550546+937700206+938888342+940936740+940830263+936445672
670+927790631+918647112+915429234+919213975+925315968+929166965+927886751
660+922726599+918730463+919330029+922746178+922550106+914578194+903562345
650+897812770+900180601+906449439+910728333+911126790+909432371+907414831
640+904985072+901812595+899200951+898749290+900600552+903852977+906655159
630+905913292+900470595+894540342+893765986+897821283+900584095+898667003
620+895061309+892330632+888799351+883514065+879670658+880757353+886223957
610+890714528+887900216+877391925+865172688+857568660+858712318+871175581
600+892586433
##END=
