##TITLE=<SNM>
##JCAMP-DX=4.24
##DATA TYPE=INFRARED SPECTRUM
##DATE=2/5/2025
##SAMPLING PROCEDURE=Instrument type and / or accessory
##ORIGIN=Admin
##XUNITS=1/CM
##YUNITS=ABSORBANCE
##RESOLUTION=4
##FIRSTX=4497.3318
##LASTX=599.83466
##DELTAX=-1.4281778
##MAXY=1.7809172
##MINY=0.24519196
##XFACTOR=1
##YFACTOR=1.6586084e-09
##NPOINTS=2730
##FIRSTY=0.26280111
##XYDATA=(X++(Y..Y))
4497+158446754+157473646+156999661+156787600+156820032+157070402+157224462
4487+157185525+157332487+157885479+158544753+159040928+159460721+159825028
4477+159916882+159671201+159383889+159529773+160398018+161628431+162259225
4467+161720483+160568986+159736768+159476210+159526233+159706671+159872985
4457+159850686+159752508+159810689+159783341+159190011+158129434+157301133
4447+157177763+157459146+157435769+156809359+155980267+155479833+155479797
4437+156001955+157025266+158082411+158346886+157574700+156585564+156463632
4427+157454366+158696656+158964887+157803561+155983232+154691188+154324886
4417+154349395+154277342+154297898+154743565+155450670+156006681+156227744
4407+156106584+155648411+154917372+154001422+153000553+152237998+152177031
4397+152824913+153528066+153712654+153620997+153954578+154890025+155835209
4387+156089047+155401024+154024152+152596231+151825141+151887293+152170221
4377+151972786+151408529+151211650+151705634+152484936+153135890+153635085
4367+153867019+153370682+151939545+150131775+148895325+148776788+149516578
4357+150369711+150848601+151039676+151150360+151092700+150720218+150158332
4347+149675058+149410133+149339473+149365096+149368878+149243280+148936068
4337+148499645+148075459+147829932+147960400+148621389+149642194+150495300
4327+150792055+150637034+150347655+150157362+150282232+150755436+151090400
4317+150684174+149656317+148712390+148209646+147980120+147995608+148520920
4307+149553817+150664606+151469315+151891983+152022253+151985472+151835473
4297+151438032+150675621+149856393+149611711+150230367+151327240+152291381
4287+152828489+152945516+152675525+152075618+151330043+150658892+150240537
4277+150242028+150673797+151198785+151402186+151321868+151464715+152184470
4267+153152780+153625615+153244670+152312512+151282337+150410265+149887128
4257+149849233+150293615+151183440+152336248+153228948+153507618+153519153
4247+153655173+153577784+152892672+152041605+151702741+151842750+152072384
4237+152372975+152827950+153175941+153229253+153238219+153326120+153128379
4227+152550879+152269550+152749932+153336793+153147929+152416405+152065215
4217+152373335+152958328+153585097+154123211+154217670+153770008+153256781
4207+153162160+153591925+154415285+155241969+155564571+155371215+155141419
4197+155100002+155043797+154824494+154512008+154286542+154383894+154830603
4187+155248833+155288022+155104278+155048541+155117934+155056842+154799968
4177+154561313+154650921+155320113+156535702+157806850+158486877+158306008
4167+157471993+156412512+155596411+155325342+155477928+155695416+155888809
4157+156260177+156824866+157293604+157494579+157566991+157617554+157471795
4147+156944498+156171522+155520531+155250378+155274240+155245581+155004446
4137+154845912+155078566+155526461+155875908+156242856+156895733+157653095
4127+158017078+157741068+156991270+156155332+155649939+155668662+155982298
4117+156168251+156114167+156125666+156465536+156958837+157206638+157076026
4107+156766577+156494196+156423005+156763774+157466459+157946032+157675394
4097+156923907+156371023+156175169+155958364+155522508+155085483+154936544
4087+155210435+155899284+156830687+157658522+158056159+157984574+157729622
4077+157662690+157900249+158146899+158038964+157664182+157392070+157227535
4067+156899596+156496567+156308386+156208896+155914072+155608504+155699890
4057+156229793+156894529+157338758+157321167+156907951+156460343+156215813
4047+156098283+156069534+156288764+156737019+157043270+156914563+156477198
4037+155981992+155434104+154834341+154575688+155123540+156289627+157262195
4027+157501120+157270191+157152302+157410290+157991887+158764181+159500377
4017+159916181+159853364+159299869+158369814+157422850+156940348+157095073
4007+157656797+158401006+159319041+160314771+161034131+161200103+160911515
3997+160445418+159933412+159375192+158874129+158696171+159014443+159672315
3987+160365855+161034149+161765942+162296743+162120708+161344640+160896080
3977+161508187+162868565+164033268+164410081+164098637+163470053+162764906
3967+162166419+161974195+162390951+163190575+163891139+164244863+164284375
3957+164001123+163412716+162947841+163364921+165021344+167184777+168355536
3947+167838049+166749568+166635829+167515285+168094870+167673460+166859803
3937+166510715+167016073+168410788+170261484+171470156+171180471+170062557
3927+169626252+170247702+170747723+170268905+169709463+170367515+172058365
3917+173258915+172833246+171154399+169403625+168373198+168262334+169308303
3907+172072057+176653139+181777294+185416893+186606770+185524505+182399158
3897+178221895+175276608+175398558+178057701+180283071+179843441+178546366
3887+179197608+181379656+182730834+183131598+183904001+183968794+181780978
3878+179296110+179408286+182245367+186057318+189423925+191135546+190408873
3868+188839758+188657578+189452243+188952689+186434238+183713106+182971932
3858+185565185+192037158+200801307+205423339+200826229+192213517+185503302
3848+182534800+183266414+186533639+190603326+194606189+198799750+202649793
3838+204038722+202094035+198710412+195671043+193161666+191113841+190016429
3828+190110025+191293002+194224328+199577560+205118813+206492128+204074587
3818+202014992+200667013+197659448+193606004+191390282+192514377+196546511
3808+201290188+204385025+206671487+210357786+214075439+214298892+211870768
3798+210042442+208913083+207341362+206237230+207153630+209980847+213585049
3788+217402461+221517896+225990611+231077429+237378074+244717196+251715280
3778+257823917+264716850+274384265+287479647+303246067+319049628+331196645
3768+338514690+342609120+344797188+346222575+348593344+352304115+355742919
3758+358082675+361283830+367981934+379133401+393144447+406075241+415812318
3748+425158334+436884965+449054659+456396135+459548524+464480957+474045791
3738+487751160+503783098+519288456+530925391+537598590+541638432+546145162
3728+552550742+560209574+567244654+571973795+573259425+571032905+567116253
3718+563930874+563190617+566149955+572206304+576325387+573249973+565525594
3708+558899723+555431343+554886078+556705438+559553013+561650988+562560434
3698+563403290+565319893+568377877+572052748+576241762+580318295+581417127
3688+577358778+570923154+566640561+566754480+570790980+576596995+583131336
3678+591190824+598599285+599242226+593846426+589505400+588319458+586643737
3668+581938422+575613304+569907732+566242564+564764494+564801616+565755049
3658+566697413+566726521+567139324+570994704+579606536+590127677+595288775
3648+590167638+579300860+569606260+563676947+560663236+559108334+558846033
3638+560604947+564269756+568717046+573698354+580538586+589365211+595647745
3628+594033979+587833776+584185606+585732782+591215835+597376904+600993701
3618+602172060+603845049+606882046+609075110+608916701+607828112+607373227
3608+607075026+606405743+606298796+607741936+610701669+614597549+618903897
3598+623043571+626117870+627099800+625933300+624559949+625488621+629096362
3588+632958893+634379896+632959468+629929299+627098722+626233657+627644526
3578+629742645+630820741+630683966+630454835+631502529+634687800+639706769
3568+644271212+645406520+643109456+639929432+637101729+634074651+630688422
3558+627920015+626735475+627125099+627794597+627032742+624842194+623016403
3548+622386507+621860396+620602976+619114557+617803017+616437572+615030657
3538+614206201+614780898+617063587+620257195+622843404+623872339+623308638
3528+621327241+618244389+615153631+613373623+613030860+613146576+612897176
3518+611932208+610037634+607730292+606628694+607681203+609516195+609976901
3508+608904555+607870876+607573681+607107728+605736318+604204343+603849505
3498+604871756+605950068+605703831+604132039+602346783+601304336+600932393
3488+600315470+598625878+596027666+593677704+592617971+592788311+593189255
3478+592784573+591455173+590007325+589029420+588349214+587675907+586807967
3468+585504836+584186828+583849528+584192362+583605195+582145884+582003719
3458+583750666+584849606+583231024+580130815+578231209+578822437+581315822
3448+584044447+585138212+583652523+580126790+575913769+572297296+569915494
3438+568697964+568587998+570071027+573148453+575851204+575461508+571963625
3428+568085641+565422061+563175811+560963774+560053214+560912349+561788445
3418+560896788+558681121+556940606+556513321+556475480+555549179+553964630
3408+553278098+554230452+555562476+555303661+552838882+549501060+547347742
3398+547381199+548715487+549484745+548734569+547163100+545925015+545136711
3388+544092718+542838461+542477191+543457684+544625873+544799985+544485181
3378+545074181+546821524+548347928+548116461+546109154+543698459+542133926
3368+541764713+542485529+544028140+545676765+546569860+546641949+546560301
3358+546407786+545330804+543152834+541256140+540792414+541094892+540932926
3348+540342273+540137220+540548369+541228936+541787210+541811862+541101469
3338+539977266+538883394+538006722+537461169+537146832+536488978+535227713
3328+534155295+534119071+534767833+535055541+534487313+533310032+532026199
3318+531121029+530805830+530844426+530837813+530685371+530614073+530718684
3308+530729932+530454658+530200299+530390655+530923414+531208499+530762023
3298+529732298+528908632+528943814+529539786+529850637+529669516+529724571
3288+530714731+532276748+533267519+533302988+533343596+534160578+535087489
3278+535033907+533964256+532730519+532046934+532025193+532363966+532769187
3268+533059410+532924181+532203150+531428394+531222119+531251623+530656945
3258+529258438+527643846+526527621+526313727+526568696+526141519+524617414
3248+523105528+522846246+523676667+524461701+524566995+524378364+524517331
3238+524898653+524819449+523952480+522733980+521654518+520763041+519907284
3228+518913998+517698193+516622504+516218254+516262133+515939962+514986098
3218+513790418+512558585+511287581+510214840+509462508+508608440+507209934
3208+505551607+504442030+504279309+504646724+504963433+505138624+505201800
3198+504804737+503691603+502281777+501328883+501130478+501290252+501260748
3188+500879533+500232963+499335663+498222493+497050243+495887157+494652270
3178+493342527+492014384+490512524+488581977+486334578+484345886+483120270
3168+482639260+482613098+482815995+482808377+481844846+479714205+477304337
3158+475780304+475464458+475734629+475805567+475497124+475156553+474830214
3148+473980566+472283104+470177941+468345968+467108745+466491176+466387642
3138+466397848+465898115+464706998+463457449+462822199+462587713+462093154
3128+461372267+461077084+461304455+461232797+460156211+458470895+457244381
3118+456880847+456585987+455367846+453290355+451320817+450155431+449626553
3108+449201208+448669815+448152364+447673618+447117140+446633291+446631997
3098+447100825+447328268+446697581+445496295+444486083+443942794+443598450
3088+443247638+442883636+442435867+441891716+441523654+441546114+441697766
3078+441503026+440771251+439631200+438337053+437230675+436626797+436591220
3068+436936319+437334352+437306717+436410531+434746166+433058047+432063755
3058+431780899+431602186+431027849+430257800+429821567+429657301+429109736
3048+427961743+426784067+426101883+425851729+425721819+425467460+424897578
3038+423858257+422293688+420483277+419201062+419095121+419783737+420141161
3028+419515794+418118401+416442213+414968815+414164520+414170090+414588966
3018+414815151+414526149+413849931+413089802+412292154+411233859+409890695
3008+408637156+407808352+407299131+406774458+406089004+405360714+404769091
2998+404381372+404094850+403695487+403073461+402413379+401990478+401729004
2988+401215542+400260960+399192603+398448429+398090501+397841892+397444038
2978+396843359+396118591+395344410+394519882+393565300+392406562+391145297
2968+390065081+389362090+389014009+388986051+389268368+389582525+389447116
2958+388726517+387808159+387123280+386674936+386070016+385024838+383857331
2948+383214822+383197752+383172668+382672683+382008828+381688741+381705703
2938+381714256+381504063+380969112+379926233+378361844+376716022+375567850
2928+375052268+374802725+374431501+373891302+373402637+373168942+373136563
2918+372995656+372480075+371646131+370761338+370022195+369521563+369339185
2908+369450301+369596347+369412603+368719064+367677372+366697203+366123368
2898+365911378+365640345+364880503+363541220+361987755+360835989+360387932
2888+360277715+359933227+359270234+358628731+358237202+358048068+357904645
2878+357658480+357273851+356902627+356746015+356820081+356905430+356728478
2868+356149792+355173612+353930388+352762127+352043144+351717308+351343819
2858+350715038+350016359+349404468+348907645+348605671+348471484+348236638
2848+347730041+347159728+346865983+346916833+347025649+346810425+346129787
2838+345196012+344388877+343956021+343802680+343580952+343072378+342381282
2828+341694894+341091484+340634695+340360930+340134781+339785299+339363260
2818+339007991+338609671+337889107+336837316+335826422+335181289+334812652
2808+334409731+333854224+333244992+332643163+332028468+331441589+330998994
2798+330777733+330733028+330679123+330366655+329686664+328781458+327860441
2788+326977013+326094627+325291769+324743449+324474248+324224489+323674229
2778+322834895+322074442+321640365+321336917+320821407+320015746+319099795
2768+318300171+317758105+317440677+317175825+316840609+316402183+315764417
2758+314788453+313535166+312328561+311498355+311107114+310960097+310851209
2748+310714974+310511070+310125004+309512609+308788776+308049992+307278794
2738+306518521+305938864+305606236+305356944+305000489+304507979+303926346
2728+303264970+302576426+302016391+301690339+301515795+301323732+301024632
2718+300631720+300214317+299830389+299403930+298725682+297724867+296681522
2708+295999267+295786486+295795794+295762175+295659469+295555450+295337693
2698+294772231+293855400+292948758+292439968+292326678+292249810+291922572
2688+291422137+291013000+290761965+290449156+289880711+289173822+288623184
2678+288341765+288152200+287826471+287335650+286824129+286395819+286031585
2668+285733527+285599466+285633785+285624352+285371556+284924829+284453234
2658+284021834+283626604+283308565+283096755+282937035+282778142+282618584
2648+282383415+281917695+281223671+280525460+279988622+279561103+279153151
2638+278749979+278333061+277914401+277604682+277468015+277409582+277312410
2628+277116250+276743229+276167202+275559839+275170466+275060195+275075720
2618+275049594+274921857+274683239+274328401+273923558+273627567+273537744
2608+273551004+273466895+273202384+272845588+272539534+272353042+272223850
2598+272021473+271716641+271444961+271312876+271213602+270959620+270529981
2588+270075078+269748541+269614120+269637138+269707843+269725937+269688186
2578+269665995+269689731+269673883+269495925+269155462+268778596+268451304
2568+268166722+267931895+267778230+267702278+267733489+267956817+268326173
2558+268593487+268565223+268317189+268061913+267911968+267828631+267701164
2548+267423213+266954691+266372878+265861303+265581555+265508604+265449039
2538+265266392+264993688+264692342+264381293+264147580+264106307+264204485
2528+264253359+264171675+264056768+264035512+264117591+264172879+264058026
2518+263759124+263357982+262940382+262632873+262572787+262714305+262822653
2508+262743341+262525081+262260929+261987884+261768096+261718270+261874809
2498+262090932+262162320+262044088+261858602+261714856+261616677+261530915
2488+261469966+261479957+261519990+261396979+260971041+260413360+260050868
2478+259958511+259930858+259836830+259725337+259576650+259260534+258803187
2468+258418577+258194836+257995514+257726008+257466726+257301867+257198855
2458+257091404+256989021+256977360+257098574+257237540+257199699+256894795
2448+256386114+255832386+255435700+255312833+255367097+255404274+255354591
2438+255262163+255136636+254963710+254792113+254686855+254638448+254594695
2428+254549505+254541222+254574445+254592359+254542354+254452369+254413234
2418+254469349+254557896+254601326+254619923+254675337+254745970+254772509
2408+254784171+254856205+254972227+255037955+255021100+255013715+255147741
2398+255456597+255843526+256244057+256819994+257944394+260051084+263597661
2388+269136057+277296885+288638116+303456871+321723019+343233194+367772388
2378+394930565+423752352+452884632+481293113+508571066+534187314+556755964
2368+574760494+587801720+596211877+599867449+598680142+593563929+585401195
2358+573752151+557557996+536008830+509313695+481375767+459437659+448981708
2348+451442211+465068017+484859383+503470414+515991602+522330197+524502956
2338+524702871+524540150+524385264+523685005+521904098+519042579+515362461
2328+510876503+505313886+498352224+489816290+479994977+469562384+458893437
2318+447973005+437085959+426865247+417492099+408367992+398739802+388377286
2308+377575409+366758582+356256632+346346520+337262553+329067226+321614706
2298+314719886+308314701+302424199+297049907+292108687+287466207+283030327
2288+278836371+275056799+271904661+269475208+267657052+266214488+264962010
2278+263838615+262835087+261909722+260994921+260070238+259210762+258524643
2268+258034954+257671815+257367954+257079833+256745982+256332263+255880523
2258+255419008+254892933+254281975+253706290+253311509+253101137+252948281
2248+252733740+252441342+252151550+251951886+251840375+251730158+251550529
2238+251321937+251142434+251111115+251227208+251364000+251402578+251367630
2228+251361736+251412012+251468216+251514395+251600373+251769365+251999340
2218+252227645+252414964+252570138+252733632+252961739+253295553+253708967
2208+254131689+254548984+255024945+255603075+256231694+256827325+257394277
2198+258005217+258636765+259146885+259497248+259860926+260393613+261012135
2188+261512820+261838082+262119088+262449399+262725948+262822114+262846821
2178+263054031+263510766+263996071+264226263+264106720+263783453+263481532
2168+263287439+263101719+262812394+262462749+262191770+262036919+261897863
2158+261710202+261540312+261479094+261552387+261753074+262087230+262595786
2148+263331389+264308216+265563443+267264571+269612126+272675464+276441793
2138+280893971+285948751+291484954+297451480+303814368+310492527+317441791
2128+324657956+332095921+339733262+347626651+355774866+364019284+372116037
2118+379814471+386889980+393190446+398677524+403395740+407396735+410786629
2108+413878141+417110741+420736917+424669704+428528390+431759085+433965625
2098+435203998+435803204+436055550+436153226+436074057+435411711+433505206
2088+429755947+423857036+415849440+405923696+394274256+381335593+367893746
2078+354740900+342409169+331208684+321305328+312822652+305883845+300432344
2068+296144846+292646944+289681353+287106105+284893331+283022582+281362835
2058+279843097+278591661+277702824+277088130+276659084+276428533+276447112
2048+276806172+277635192+279065179+281254594+284374784+288581426+294082735
2038+301080406+309557710+319283251+329903864+340806687+351176355+360494664
2028+368782744+376320792+383353214+389905235+395735867+400599914+404361894
2018+406670997+406978326+405117855+401489199+396608909+390792724+384168146
2008+376754295+368588507+359858874+350916031+342190962+334032326+326503872
1998+319479393+313076831+307710320+303469736+299785361+296036173+292212508
1988+288692182+285739816+283424191+281656886+280185087+278769439+277395369
1978+276222491+275388781+274867072+274460091+274042706+273802829+273963017
1968+274247239+274038340+273208062+272322550+271869821+271779872+271803159
1958+271891131+272050869+272195550+272279318+272375861+272592846+272988094
1948+273576034+274444351+275694259+276985010+277456515+276699386+275405473
1938+274497878+274231175+274370196+274646422+274896091+275087651+275295400
1928+275686461+276590481+278178966+279934753+281129661+281910400+282869151
1918+283701028+283607575+282886509+282714804+283633252+285141940+286422502
1908+287086106+287346035+287633402+288133297+288757102+289442771+290285267
1898+291343724+292390573+293056459+293455606+294263154+295647196+296644741
1888+296356548+295195797+294080741+293305050+292763792+292437902+292304200
1878+292243503+292166437+292132818+292558864+294165641+297105303+299938343
1868+300362358+297930568+294652904+292439106+291610409+291478917+291326205
1858+290875471+290323414+290059819+290276337+290910940+291879969+293281440
1848+295506613+298792704+302017541+302731780+300274008+297072853+295318772
1838+295093199+295403583+295794554+296956616+299666267+303156190+305329668
1828+305462166+304870219+304226883+302948621+301156987+299948567+299810768
1818+300211927+300601947+301188179+302519538+304472474+306022812+306350948
1808+305851682+305612992+306462424+308635830+311580757+313968956+314727576
1798+314376117+314722329+317174531+321247830+324120166+323232353+320011613
1788+317815208+317927366+319396236+321065129+322738082+324350627+325461461
1778+326273016+328092195+332136026+337906213+342482372+343071336+340502197
1768+337246130+334830620+334381988+336427352+339590810+341541194+342051996
1758+342523807+343273910+344282972+346801620+351811821+357756587+361385387
1748+361630618+360439214+359868434+360712547+362782923+365077363+366460165
1738+367595364+370831378+376734889+381337210+380457124+376366827+372655337
1728+370261173+369421947+370234724+372139288+375063804+380338641+388872311
1718+398179803+402535096+399953307+394667366+390659831+389406939+391261552
1708+395857692+401536456+406225887+410336595+416352013+424329601+430094469
1698+431236748+429587225+425919721+421309279+418791421+419775579+423298366
1688+428770782+437275272+448003228+454169974+451314888+445482890+442650875
1678+444132934+448743053+453873425+457735238+461594750+466715527+470696721
1668+470666750+469142573+470487534+475270113+480388698+483242023+485224319
1658+489549820+498437861+512455878+527436564+532881381+529668331+528930446
1648+533066526+536805076+535318633+531378335+529644181+531547416+537198257
1638+546394921+556691279+562161539+560525312+557628432+558495652+563417449
1628+570157994+577063415+584432850+592258354+599018916+604678561+611790618
1618+621761858+631584320+636701684+638287132+640472864+644335683+648193901
1608+650455172+651392972+652314241+653955391+656142417+658472614+660937861
1598+663933818+667773062+672158326+676311081+679775867+682722591+685427247
1588+688020787+690637542+693289299+695770933+698110042+701056695+705762728
1578+712443762+718744372+721404898+722098329+725479454+732892731+741619632
1568+748380517+753708900+760294414+769815441+783502950+803358032+828500816
1558+847169058+851526147+850939807+851934099+854338757+856457431+857401340
1548+857821367+859327611+862580658+866929698+871660815+874185142+868968234
1538+857814611+849070316+844921946+841802798+836524655+830815920+828042697
1528+828723551+831313425+834749677+838816615+841893358+841461904+838486574
1518+836027437+834184755+831613495+829300907+829892638+835002670+844119986
1508+853258001+853747026+842973179+831529476+826144098+826147116+829034474
1498+831976382+832328632+830077064+828335867+829540460+833000071+835329333
1488+833588783+828804623+824384932+822384489+822410866+823174661+824629804
1478+827811481+833008480+839132641+843961793+844672259+840905606+836267852
1468+834037415+834450469+835391072+834945172+834367672+836696575+842877300
1458+849232821+848926498+842079150+835832517+833236893+833186869+833746113
1448+833392857+831773413+829810272+828485723+828108676+829106850+832314258
1438+837291972+840720605+839565461+835905109+833139001+831390976+829122015
1428+826455955+824898465+824715117+825133634+826342611+828792764+830507081
1418+828312652+823124135+818690069+816356637+815011317+813564225+812343532
1408+812304936+813232890+813650760+813120337+813167413+814792392+817007879
1398+818518939+819210214+819200296+818284777+817021392+816494346+816708169
1388+816304601+814294024+811959083+811777316+814825813+820156998+825956868
1378+831046129+835489179+839566108+842557609+843872311+844704673+846477926
1368+848852397+850902217+852863849+855080056+856659395+856789988+856097706
1358+855478017+854960674+854250640+853515091+853199209+853282007+853223718
1348+852726787+852086254+851774181+852204485+853811208+856635964+859622075
1338+861003403+860210212+858831543+858918150+861001822+864161075+867333050
1328+869845661+871278019+872011556+873538284+877086227+882137467+887081184
1318+891095583+894580853+898017608+901300339+904070399+906253544+908286330
1308+910756752+913677889+916389014+918349424+919572775+920319249+921018359
1298+922186152+923697643+924590451+924285781+923366165+922451580+921056379
1288+918369404+914677500+911163266+908486137+906291349+904076508+901924485
1278+900207868+898959864+897910661+897146003+897289102+898678193+900616323
1268+901976305+902521175+903134324+904716897+907234252+909860926+911793808
1258+912883189+913623050+914599086+915987387+917602231+919273711+920825595
1248+921603693+920676890+917926451+914343506+911055600+908765580+907991794
1238+908771833+910052899+910354406+909255826+907602242+906336557+905655057
1228+905212031+904745575+904416612+904736088+906163128+908464575+910409892
1218+910681860+909481148+908685154+909936320+912915388+915831135+917459491
1208+918311043+919665492+921839940+923873588+925019461+925797200+926888880
1198+927936645+928508324+929509803+932239255+936423922+940492225+943660103
1188+946606181+949936851+952891482+954129208+953761290+953901730+956424546
1178+960566736+963733464+964602840+964201285+963947789+964181880+964811775
1168+966106569+968190026+970346434+971577045+972032361+973132522+975625583
1158+978366463+979771510+979958667+980752649+983608670+987910130+991299664
1148+991998055+990902781+990494614+992037441+994951320+998129260+1000658689
1138+1001922218+1002113616+1002002716+1001674184+1000867121+1000945463
1130+1004150355+1010099074+1015299882+1017257705+1016915805+1016128722
1121+1015563872+1015747939+1017658900+1021161275+1024154214+1024723305
1113+1023767321+1024231478+1027685267+1032419043+1035394876+1035677912
1104+1034740400+1033794910+1032655434+1031312988+1031066536+1033199944
1095+1037136792+1040902941+1043521134+1046125886+1050450274+1056660683
1087+1062469609+1064403210+1061035669+1055084506+1050577273+1048861663
1078+1048654309+1048650500+1049054067+1050890281+1054587001+1059145119
1070+1062353462+1062212375+1058932806+1055412679+1054848691+1058185398
1061+1063974990+1069906172+1073741823+1073100571+1067638361+1061869037
1053+1061411637+1066060316+1070036335+1069963815+1068392382+1067998517
1044+1068041138+1067482540+1067072936+1067723962+1069327522+1070665871
1035+1069828693+1066530078+1063411434+1063214717+1065651646+1068383254
1027+1070098792+1070791721+1070296731+1068594776+1066759210+1066120258
1018+1066802621+1067993917+1068785168+1068302253+1066676268+1065686073
1010+1066693518+1068714445+1069971002+1070234201+1070391531+1070482738
1001+1069265280+1065871362+1061487894+1058587384+1057643547+1056364638
993+1053023330+1048576183+1045184780+1044018496+1044551578+1045188302
984+1044808381+1043780165+1043264978+1043714257+1044281695+1044105462
975+1043485341+1043177078+1042887860+1041175125+1037444337+1033222800
967+1030340330+1028808427+1027523840+1026096728+1024654595+1022458225
958+1018388915+1012724670+1006960305+1001985825+997621836+993393111+989423202
948+986936681+987239770+989859615+992441296+992987244+991195880+987581311
938+983280785+980161924+979285935+979896497+980439498+979966789+978948563
928+978909895+980453514+981822983+980604878+976637916+971780589+967815926
918+965732038+965794424+967575439+970374895+973395937+975175083+974157647
908+970908769+968159911+967525631+967703373+966961212+966087235+967145351
898+970100412+972428956+972024670+969299243+966120009+963627738+961688315
888+960150878+959601193+960295056+960955497+959815303+956981850+954533638
878+954097943+955423714+957262587+958480260+958323361+956719801+954500289
868+952791290+952071625+952185616+953118960+954933324+956765297+956855497
858+954489004+951213317+949345408+949326289+949169822+947404259+945778419
848+947256057+951803683+956144601+957776479+957112731+955318851+952549869
838+948830365+945068816+942736462+942833850+945201709+949032113+953749287
828+958485220+961257724+960357441+956221649+951317389+948963977+951345060
818+957208826+962653858+965246392+965547253+964389162+961856283+958997028
808+957649048+958361742+959991679+961185060+961652954+962253453+963776875
798+965274638+964515515+961161414+958077052+958026885+960536118+963456609
788+966345188+970174441+974032157+975039961+972602314+969264816+966770245
778+964628499+962722856+962420846+964104688+966164283+967414012+967920502
768+967343864+965357508+963259892+962822329+963847167+964536358+964209479
758+964359694+965914237+966793101+964430848+959992542+957673629+959826587
748+964593928+968755164+971723450+974798180+977356287+977226915+974299597
738+970170776+965911505+962895136+963208215+967372469+973173418+977362756
728+977784004+974392169+969428471+966125256+966464281+969919939+973532999
718+974214499+972396470+971036990+971102898+970814399+968491677+964129269
708+958858456+954715045+953991212+957203291+961998807+964756361+964017362
698+961545863+959242115+956807199+953669723+951518562+952392611+955092595
688+956051094+953602234+949051015+943859479+938588020+933983328+930596740
678+928116616+926516146+926209176+926434354+924753243+919400711+912252287
668+909517875+915568439+924415296+928386643+926280402+920868934+914840508
658+909222764+905063901+903411539+903703415+905483711+909537856+914154264
648+914535479+909908002+905586130+904849863+904984912+902417103+897270703
638+891817045+887888607+886420455+886971650+888280459+889601630+889413107
628+885774676+879475000+874864845+875551233+878987413+879062664+875276606
618+872661936+872869361+873092240+872464428+873684977+879350300+889066822
608+898073884+900476961+896629235+891965607+887830677+883112784+876716296
##END=
