##TITLE=<SNM>
##JCAMP-DX=4.24
##DATA TYPE=INFRARED SPECTRUM
##DATE=2/5/2025
##SAMPLING PROCEDURE=Instrument type and / or accessory
##ORIGIN=Admin
##XUNITS=1/CM
##YUNITS=ABSORBANCE
##RESOLUTION=4
##FIRSTX=4497.3318
##LASTX=599.83466
##DELTAX=-1.4281778
##MAXY=1.6989276
##MINY=0.29543853
##XFACTOR=1
##YFACTOR=1.5822497e-09
##NPOINTS=2730
##FIRSTY=0.30305669
##XYDATA=(X++(Y..Y))
4497+191535314+191600428+191851486+192752835+194129572+195109560+195009073
4487+194113279+193438651+193763110+194914123+196017257+196379669+195995935
4477+195353685+195042769+195357396+196033380+196634719+197126776+197580709
4467+197721296+197496741+197531605+198213918+198887416+198601098+197240353
4457+195568522+194500272+194356087+194619368+194602454+194241078+194048636
4447+194512081+195573193+196450791+196209642+194827782+193294994+192501872
4437+192535230+193041318+193674584+194064081+193882753+193292244+192942715
4427+193152768+193442061+193240277+192626129+191988042+191456017+190974151
4417+190442691+189672718+188742588+188305531+188949928+190256541+191055237
4407+190814012+190194214+190000078+190221017+190435025+190479853+190263472
4397+189617116+188820868+188589588+189150243+189962426+190575179+191151223
4387+191956248+192809266+193218032+192813485+191573550+189844610+188275733
4377+187573191+187983107+188915139+189383896+189025119+188387409+188137274
4367+188417922+189038869+189696620+189900721+189280621+188131756+187192697
4357+186800544+186720550+186722208+186873701+187339482+188149273+189166592
4347+190199093+191069176+191550835+191412225+190657302+189626025+188853604
4337+188847482+189668047+190605674+190817685+190361868+189918728+189685225
4327+189452626+189419457+189829749+190137727+189644992+188732662+188424326
4317+188956069+189777518+190586744+191314695+191470652+190689246+189639474
4307+189276478+189617304+190128441+190661784+191316145+192036035+192721870
4297+193160810+192992196+192255562+191523335+191216035+191333700+191833874
4287+192636112+193352103+193495534+192945484+192036412+191230011+190735017
4277+190444367+190184872+189890286+189655710+189754483+190347158+191103513
4267+191484025+191471764+191626628+192239947+192786626+192586952+191849395
4257+191533318+192130852+193102684+193683549+193801534+193926187+194255129
4247+194448098+194263228+194098531+194487464+195289946+195911986+196125259
4237+196110153+195925736+195478677+194822508+194083708+193300663+192618539
4227+192385865+192777152+193492483+194130363+194693448+195327824+195765503
4217+195544092+194770861+194212598+194490232+195380394+196020289+195831238
4207+195214341+195103400+195767763+196453146+196400068+195757347+195207541
4197+195180626+195722746+196664404+197563512+197839903+197331177+196516546
4187+195963934+195752431+195644278+195563719+195538329+195370901+194858276
4177+194291726+194303310+195149283+196381100+197265009+197470315+197328032
4167+197399475+197879175+198498125+198848577+198704185+198247030+197996256
4157+198217327+198509653+198307624+197608190+196938685+196891653+197751188
4147+199160115+200214427+200335369+199904547+199674378+199829638+199903096
4137+199452553+198685990+198298639+198607088+199170964+199490846+199598151
4127+199669029+199558371+199035688+198235277+197704401+197993468+199023840
4117+199926283+199939015+199385876+199174561+199469147+199688147+199665732
4107+199736723+199773396+199384162+198950476+199236078+200197173+201184582
4097+201969944+202772897+203590957+204098383+204035623+203503786+202961421
4087+202855396+203196505+203547861+203430441+202800642+202184743+202242002
4077+203170626+204563090+205727024+206158393+205883546+205343290+204946974
4067+204856301+204991671+205056257+204830609+204494623+204373587+204554237
4057+204946070+205326979+205321083+204865059+204501818+204716241+205428803
4047+206448985+207735444+208968674+209522736+209064489+207817604+206329983
4037+205218374+204902221+205367833+206280785+207314962+208250140+208950290
4027+209486647+210087365+210765044+211223837+211299480+211231315+211374747
4017+211801727+212258485+212481666+212475997+212433542+212449194+212482137
4007+212505757+212488032+212363964+212222321+212315010+212707729+213155409
3997+213435774+213527521+213405712+213099825+212984534+213413002+214118783
3987+214644706+215066242+215541328+215722619+215464611+215452613+216332641
3977+217786320+218980448+219451314+219243560+218574300+217703520+217020454
3967+216947259+217598607+218676878+219814781+220850879+221672970+222068080
3957+221955068+221615880+221484446+221817852+222722083+224076764+225167522
3947+225254033+224863651+225215892+226129070+226052617+224563038+223095382
3937+223085381+224897197+228035214+231177921+232517363+231466573+229659071
3927+229155186+230239013+231429110+231601454+231544533+232580123+234322116
3917+234673491+232259977+228255852+224988322+223591356+223804423+225617199
3907+230119258+237977127+247302106+254218318+256428409+254189123+248293621
3897+240662530+235135655+234821273+239039237+242939599+242550459+240618549
3887+241927139+246140093+249079020+249725112+250264860+249750050+245941775
3878+241562109+241191918+245352754+251404195+257288000+261221230+260979835
3868+258036425+256655658+257451454+256708981+252416692+247374905+245290842
3858+248391603+258196451+273594983+284129666+278277937+263461627+251036151
3848+244885937+245013980+249798702+256844276+264318487+271520866+277190042
3838+278585990+274933070+269343172+264668392+261103678+258115384+256248681
3828+256015857+257089871+260255877+267445354+276939512+281627664+279250089
3818+275581121+272792463+267903826+260933387+255974946+256041793+261191846
3808+268001733+271922097+273758381+277734517+282993382+284101564+280807646
3798+277259865+273695809+268514263+263366338+261171806+262293793+265176798
3788+268686456+272286186+275222306+277596265+280939720+285543358+288800415
3778+288728558+287375836+288293667+293433059+302525911+312765330+320314882
3768+324399530+327203670+330305373+334992678+343285193+355420698+367824757
3758+376790677+384012964+394714378+412577015+436118039+456317435+465650946
3748+469694042+476515362+485728326+490518962+490306122+492091907+500632636
3738+516494086+536239775+553003893+560641012+558539997+551745461+546438095
3728+545799235+549152353+553830541+558120457+561614463+563760532+564755645
3718+566773482+572429530+582684055+595820963+607114638+612078409+611729765
3708+610081855+610572518+616094156+626522004+636198245+639391751+638235483
3698+637865555+639631714+642777755+647815700+655711052+663926606+666079795
3688+660126449+652056907+646912504+645456678+647500923+653766032+665152113
3678+680008506+691311862+691884609+687259160+687032005+689595353+686752336
3668+678034932+670789401+669160741+671922464+675952639+680123628+685494131
3658+691899753+696961506+700392414+706015160+717086012+731099934+737964538
3648+731004175+717156984+705788307+701036057+702221935+705432016+707146943
3638+707811983+710223066+715367997+721912925+728813014+735536502+739237058
3628+737228450+732945428+731219878+733124515+737287141+741339768+742857148
3618+741965028+741705099+743893548+746778982+747446585+745276971+741346925
3608+736597539+732278956+730072124+731022483+734403741+737928675+739759703
3598+739975557+739452686+738250233+736572224+737034144+743287952+754619787
3588+762209554+757533701+745325491+735614933+731983918+732932394+736029237
3578+738663482+738495244+735917580+734225106+736517677+743430046+752894238
3568+760451230+761083422+754459686+746126674+741114722+739406501+738013736
3558+736406472+737612240+743092064+749429878+752313655+752225656+752579460
3548+754135265+754816504+753450636+751026895+748608880+746594772+745896958
3538+747522228+750464997+751843222+750223828+747217546+745235006+745492901
3528+747662740+749526165+748215069+743739248+739528705+738359102+740043741
3518+743129961+746427966+749008794+750630372+751809318+752209533+750523236
3508+747587097+747156218+751565738+758208837+761736333+760057420+756139051
3498+753307110+752304463+752696014+754114019+756037868+757834766+758643106
3488+757471694+754576616+751868838+751185414+752670247+754917688+756053991
3478+754639753+750576578+745728720+742815334+743084906+745410251+747887710
3468+749768840+751420480+753060969+754549117+755923499+757069219+757557584
3458+757478098+757275505+756524047+754438138+751670237+750247486+751530629
3448+754720142+756882899+755244520+750946581+748357842+749615068+751889029
3438+751257214+747996127+745365950+744894462+745775356+747205868+748861877
3428+750020406+750355224+750877944+752632425+754777251+755236459+753307260
3418+750181185+747738308+747800540+750616358+753597100+753625277+750721309
3408+747729794+746896967+748335089+750859034+752982990+754055403+754627924
3398+754955434+754294688+752322470+750191205+749741340+751948851+756224941
3388+760406929+761923255+759992852+756424069+754248805+755526449+759430502
3378+762303354+761203291+757359059+754633725+755350752+758271069+759737067
3368+757208300+752374757+749584404+751146236+755283321+758529792+759276202
3358+758474266+757741267+757772534+758364041+759123786+759549692+759107060
3348+757821355+756416987+755591468+755619721+756512821+757803800+758654709
3338+758796050+758745194+758911247+759288935+759640328+758852782+755815308
3328+752161163+751632416+755730850+761700018+765439224+765657112+764404708
3318+764172731+765195418+765464765+763556135+761009964+760681700+763060914
3308+765463559+765308431+763273152+762332587+764058513+766675882+767485277
3298+766414295+764989133+763047503+759745128+756440644+755825781+758627285
3288+762644652+765331561+766512616+767872081+770323773+772649946+772830314
3278+770447936+767135240+765007742+764796635+765426114+766017923+767316361
3268+770013592+772682720+773302405+772242499+771482603+771282948+769815895
3258+766218633+762169623+759684554+759037821+759473220+760748528+762956265
3248+765492942+767385374+768186481+767840513+766718299+766004738+766603403
3238+767733302+767670165+765834089+763433479+762254608+763622887+767446777
3228+771343598+772282807+770004551+767124692+765696666+765856089+767541934
3218+770554017+772781342+771193819+765805007+760626174+759425303+762100082
3208+765641441+767532064+767329395+765732680+763547395+761164038+758671962
3198+756737942+756601649+758414972+760524236+761249098+760384854+758586299
3188+756757682+756179585+757622679+760338595+763157578+765807946+767825143
3178+767786417+765210035+761863359+759843977+759483693+760048228+761001149
3168+761501418+760109104+756442000+752347709+750398772+751447753+753923856
3158+755457059+755291684+754743272+755213103+756706751+758302863+758851049
3148+757331032+753986842+750739843+749443138+750221417+751879009+753159440
3138+753432930+752818971+751835913+750736980+749378269+747840772+746657456
3128+746301166+746701908+747172567+746958295+746120346+745336341+744607561
3118+743157460+740993648+739367700+739092477+739360241+739017588+738217535
3108+737777464+737747780+737843614+738664461+741278440+745766692+750507791
3098+752885649+751280269+746698367+741769064+738131495+735638364+733809597
3088+732986489+733767330+735854972+738080112+739635691+740554105+740532030
3078+738497429+734218325+729273276+725822403+725216807+727374893+730417038
3068+731870077+731346151+730788924+731522526+732695520+732995078+732402365
3058+731397082+729593478+726794386+724600738+724886886+726835974+727411735
3048+725425955+722996489+722316229+723466847+725568050+727690348+728427792
3038+726965411+724726709+723616626+723162165+721577429+718976259+717273387
3028+717179963+717613027+717892921+718356800+718732604+717873634+715588522
3018+713259033+712123258+711972725+711786180+711010311+709899625+708863828
3008+708012166+707383967+707115374+706965369+706145577+704378966+702496630
2998+701255075+700542871+700256573+700626349+701198418+700910613+699636511
2988+698447168+698117473+698323833+698390511+698057350+697356673+696368492
2978+695404646+695101773+695763197+696778652+697261366+696948020+696164843
2968+695327195+694474478+693021515+690392091+687068319+684380883+683210526
2958+683484167+684579710+685499104+685208436+683609158+681853623+681296622
2948+682179400+683305682+683261306+682080251+681039858+680893092+681142398
2938+680880360+679739160+678013309+676114549+674139091+672094092+670375851
2928+669276466+668332586+667224385+666731048+667440541+668357448+668066705
2918+666423805+664219083+662140331+660586109+659606064+658790642+657717475
2908+656434784+655447884+655440651+656577481+657741660+657232426+654781562
2898+651957004+650233037+649644091+649497552+649481504+649567393+649612146
2888+649718001+650263550+651095623+651276142+649925944+647078482+643733539
2878+641122122+639843575+639772528+640367350+640724093+640029669+638415022
2868+636630329+634888204+633061923+631657969+631319007+631675524+631666935
2858+630701695+628955615+627023139+625561436+624838269+624535735+624036597
2848+622870120+621154892+619559985+618504712+617609691+616273770+614427297
2838+612466004+610964859+610427221+610638856+610547354+609499954+608055617
2828+606894376+605767491+604189235+602455774+601389125+601383964+602003310
2818+602392186+602006399+600998290+599923730+599042195+597952378+596068460
2808+593522026+591293684+590228504+590233212+590433696+589824710+588115585
2798+586140880+584855100+584005359+582674487+580875856+579536206+579114556
2788+579144166+578998794+578413276+577288576+575570410+573513922+571733486
2778+570716638+570418360+570464959+570521051+570305084+569542815+568135659
2768+566205971+563917733+561553738+559839489+559585550+560535797+561169948
2758+560367371+558687591+557247436+556148917+554778000+552912767+551006360
2748+549797918+549657443+550036110+549867194+548689491+547009260+545566844
2738+544611098+543838168+542866712+541709163+540694877+540083555+539819670
2728+539437462+538403021+536839984+535477543+534723185+534365538+534040552
2718+533347861+531916633+529937220+528120281+526875938+526055656+525406889
2708+524788448+524096246+523265831+522315245+521415365+520858213+520653058
2698+520258117+519201676+517797873+516649667+515718821+514581689+513300278
2688+512302717+511651992+511057433+510330763+509411896+508335453+507370138
2678+506704231+506023858+504948017+503717161+502914584+502631224+502300587
2668+501422970+500253630+499449358+499061574+498443773+497305850+496202585
2658+495698587+495585047+495206229+494287099+493210768+492501992+492195389
2648+491852283+491102596+489937551+488522296+487035240+485791914+485220335
2638+485397275+485724371+485458226+484545349+483559165+482867378+482266340
2628+481430274+480401446+479571595+479272376+479385200+479372919+478764234
2618+477623901+476508543+475876050+475580523+475122408+474333618+473483087
2608+472744098+471989099+471141167+470339532+469685001+469087994+468443898
2598+467795245+467254367+466839573+466446026+465967456+465418630+464934824
2588+464634286+464488764+464401405+464403552+464564896+464665515+464267297
2578+463274407+462139046+461307425+460730082+460087493+459242273+458311427
2568+457469371+456803728+456308432+455958809+455763523+455721633+455746421
2558+455644521+455196728+454328453+453240181+452320561+451824210+451585490
2548+451174125+450448359+449733630+449242817+448687323+447831103+447032557
2538+446767543+446922671+446978311+446691674+446271418+445972199+445772694
2528+445494382+445070924+444562217+443984987+443292485+442530103+441909928
2518+441653013+441723796+441782374+441518566+441016301+440676698+440760855
2508+441050204+441036643+440501077+439751767+439180376+438835612+438569204
2498+438271642+437834096+437226993+436681783+436459525+436435378+436217678
2488+435674088+435067212+434647973+434383448+434170872+434035219+433947748
2478+433748431+433429586+433166003+432939451+432554040+432118189+432008718
2468+432233688+432322252+431998848+431518243+431172237+430892041+430513864
2458+430086715+429760824+429600535+429574919+429577631+429461304+429160351
2448+428758027+428393449+428139434+427952060+427725620+427450962+427256958
2438+427191787+427094069+426841110+426566565+426438220+426384803+426261393
2428+426115494+426029266+425857487+425436591+424946004+424726232+424814834
2418+424965818+425019424+424985257+424910894+424873374+424921819+424943593
2408+424793135+424516217+424232970+423939439+423619350+423381497+423349966
2398+423521444+423723736+423702716+423401085+423088455+422998384+422961241
2388+422631132+421927139+421024810+419998544+418617946+416513616+413540183
2378+409935387+406092624+402314542+398893240+396200454+394373533+392950593
2368+391158667+388732101+386210228+384292331+383218788+383005910+383975067
2358+386601590+390811756+395915023+401560560+407988709+414716982+420044728
2348+422377908+421537548+418974425+416598639+415151402+414221535+413159557
2338+411351847+408526159+405138723+402046326+399819603+398492084+397772382
2328+397356233+397088017+396967734+397120715+397722167+398847395+400355847
2318+401925063+403229830+404158981+404859959+405539993+406297930+407180143
2308+408233909+409412478+410590106+411750404+412965326+414111310+414830672
2298+414928315+414661719+414497549+414688540+415179052+415797192+416412960
2288+416962389+417427774+417830324+418216488+418591840+418846834+418843104
2278+418637083+418478903+418488923+418487417+418266929+417895683+417631686
2268+417638203+417882875+418268474+418759325+419313990+419772406+419980424
2258+420010109+420066879+420210518+420360259+420483819+420583873+420624671
2248+420630095+420719262+420962277+421331036+421770956+422187181+422458562
2238+422578957+422650871+422714535+422781966+423002415+423532632+424263747
2228+424902192+425310205+425601287+425917572+426248020+426490696+426620321
2218+426729453+426917920+427198455+427495113+427685200+427709271+427687159
2208+427819647+428140037+428487061+428747969+429010195+429457197+430157762
2198+430928205+431454429+431636794+431714395+431958615+432390624+432870249
2188+433279731+433554577+433689477+433752575+433803355+433840913+433917272
2178+434186505+434717250+435350383+435870127+436261904+436682499+437190414
2168+437630108+437857376+437988998+438270776+438739740+439197365+439508225
2158+439736435+439973949+440197073+440341880+440444910+440650969+441050016
2148+441529867+441879452+442038649+442160929+442435511+442907527+443452247
2138+443883578+444091596+444081312+443916502+443682717+443483589+443439552
2128+443669193+444210108+444943974+445681794+446312554+446769163+446935931
2118+446780727+446537600+446540463+446840473+447160374+447296629+447396532
2108+447714399+448245746+448743340+448993248+448977991+448847010+448781161
2098+448853263+449017583+449190605+449290094+449276457+449209441+449175499
2088+449169321+449173691+449288399+449608940+450026784+450285847+450224330
2078+449916899+449592365+449414634+449358278+449328669+449361442+449607697
2068+450082123+450507879+450556399+450228210+449823663+449564563+449449856
2058+449416668+449418740+449368072+449152784+448730305+448189729+447730221
2048+447512558+447508302+447566239+447588088+447551020+447424974+447164819
2038+446773156+446358664+446103933+446079259+446123560+446036390+445816392
2028+445587467+445425520+445371161+445454677+445645254+445921494+446331503
2018+446776094+446870685+446314739+445270693+444175150+443380408+443037981
2008+443032104+442998803+442680070+442227380+441964287+441957506+441975588
1998+441850785+441856473+442533681+443895331+445052202+445089082+444069182
1988+442694875+441480443+440646034+440248306+440135519+440087263+439998548
1978+439787516+439362024+438785585+438270399+438074662+438492431+439560097
1968+440610473+440675342+439647192+438451558+437862839+437806784+437898211
1958+438017402+438169404+438245574+438104158+437711100+437253551+437133795
1948+437717957+439155814+441274120+443150089+443233191+441011290+437987378
1938+435966113+435341568+435462228+435694129+435785594+435747547+435687311
1928+435805823+436546130+438159798+439934508+440866861+441232682+441881260
1918+442162398+440650216+437866681+436002578+436229582+437693659+438701579
1908+438438863+437458781+436638386+436172247+435772711+435397434+435429379
1898+436204418+437389994+438110336+438240489+438900255+440580073+441748471
1888+440856689+438721959+437073635+436314153+435912093+435571285+435287510
1878+435084578+435030068+435281408+436430406+439635100+445305802+451142820
1868+452959609+449526667+444145503+440181704+438323666+437655009+437359029
1858+437207291+437209363+437313560+437489784+438032433+439413935+441798083
1848+445254306+449894372+454318357+455049435+451016435+445997287+443488938
1838+443469651+444008682+444210673+445455468+449481612+455313018+459193979
1828+459332193+457851014+456184080+453435956+449674148+446757673+445768098
1818+446129173+446970551+448268461+450484523+453321550+455272409+455096863
1808+453482291+452341581+453169096+456407506+461142954+465058196+466125561
1798+465062339+464879146+467955270+473697547+477799560+475993056+470145527
1788+465578693+464754682+466632987+469392487+472162498+474143720+474452168
1778+474037827+475753281+481714123+490848356+498083489+498573285+493629216
1768+487436886+482624815+481046521+483457077+487558864+489661763+489617085
1758+489776998+490446446+491272793+494219028+501265430+510420759+516207939
1748+515954678+512509078+509773498+509650842+511976450+514876087+516238791
1738+517164325+521749542+531315256+539452192+538456778+531486696+524699243
1728+520078013+518303491+519542748+522708189+527494004+536096512+550456253
1718+567082496+576042727+572798855+564347331+557891908+556220943+560087514
1708+569083532+580496397+590131124+597587009+607113394+620372695+631700198
1698+636059767+635155742+630173550+623259824+619949426+623108802+631147190
1688+642188809+657488588+676816582+690163957+688777746+681193178+677416151
1678+680250729+688363141+697700833+704955254+711731256+720031117+726258857
1668+726182310+723987457+726232940+733082098+739027759+740545818+741308878
1658+746725490+759266483+778587697+797842836+802515524+796093478+794469715
1648+799264683+801038979+792968457+781788285+775611852+776107977+782625481
1638+793715696+803784730+802930054+791005657+779677589+775261665+776129902
1628+777853492+778141523+777872931+776421172+771373810+764975421+762879265
1618+765994040+767749048+762210307+753588511+748106728+746644799+746690983
1608+745731734+743532812+741652059+741115099+741247550+740796705+739714347
1598+739157196+739810031+740971423+741585608+741653038+742003754+743008736
1588+744207572+745233123+746462171+748382705+751120771+755357156+762704774
1578+773422048+782875465+784371373+780743748+780573702+785918137+791508035
1568+792360526+790914192+791625342+796135745+806125444+824314423+846627228
1558+854546011+844259466+832843775+826867752+824998450+825716908+828323126
1548+832988657+840938180+853095835+869055455+887386077+902424721+902394283
1538+888886431+877949386+875952907+878443551+878311176+875280785+875154286
1528+880900970+890504091+900819341+910747185+918312842+919760080+916650730
1518+914418433+913427841+910856958+907368188+906827159+912206477+923833802
1508+937187431+939986523+926908344+912312634+906183365+907976873+913835891
1498+918507751+917435564+912164738+909435713+913074112+920759336+925890855
1488+923795981+916785818+909895071+905824061+904529691+904836558+906538149
1478+910818609+918532614+928681133+937459866+938851200+931419199+922054007
1468+917246758+917602446+919153806+918148597+916603491+919570822+928718578
1458+939221655+941367159+933565004+924229421+917895223+914680622+913781946
1448+913665242+912884552+911765653+911371466+911805810+913266007+916856865
1438+922129725+925006495+922642500+918897719+918135337+919805134+920872499
1428+920410052+920307437+922052048+925520702+930461230+936658532+941522061
1418+940592797+933970267+926611121+921820372+919772888+919354290+919733861
1408+920952587+922951928+924478049+924520692+924387940+926059621+929540404
1398+933325719+936152462+936689347+933622641+928351287+924477371+923612750
1388+923787919+922059130+918828104+917515728+919841223+924112943+927895395
1378+930887588+934244586+937872964+940100289+940240349+939523850+938789194
1368+937771780+937045638+938109160+940817994+942360463+940261294+935633886
1358+931466966+929133334+927846724+926501650+925033467+923941164+923450615
1348+923430423+923529724+923484217+923594065+924454844+925907807+926655874
1338+925415148+922367729+918994157+916643497+915598885+915353196+915379792
1328+915384162+915035857+913907240+911944514+909758627+908079563+907039246
1318+906230001+905404031+904819681+904791353+905080363+904992666+904243468
1308+903423525+903222363+903443415+903269828+902339886+901029093+899774956
1298+898658392+897570082+896312178+894530725+891967753+888797904+885422373
1288+882093703+879079134+876647256+874526087+872231030+870168477+869281330
1278+869464862+869570491+869013415+868170718+867259612+866155330+865298168
1268+865589514+867297207+869803975+872362351+874412322+875352661+874988007
1258+874220502+874299309+875390482+876709564+877817462+878859889+879800002
1248+880484632+881269466+882713238+884823030+887166532+889462041+891562490
1238+893222870+894447322+895813793+897871524+900339114+902448002+904039217
1228+905772226+908218192+911166612+913940465+916048600+917445660+918722776
1218+920895102+924349667+928152235+930997286+932727657+934234415+935955971
1208+937325682+937944915+938595566+940446635+943454800+946351235+948317727
1198+949892593+951985057+954758458+957724884+960161734+961477652+962043317
1188+963095463+964972298+966639910+967765741+969499728+972302739+974918751
1178+976339996+977016187+977393875+977261575+977248240+978973789+982769200
1168+986720944+988879332+989158849+988506617+987918877+988397371+990170688
1158+992077660+993400584+995584286+999954930+1004664009+1006289957+1004261308
1148+1001665637+1001533111+1003879401+1006629070+1008390934+1009363896
1140+1010038656+1010593396+1011220917+1011795698+1011707096+1011034220
1131+1011101726+1013183566+1016726959+1019544963+1020440549+1020887777
1123+1023149006+1027252790+1030970146+1032753332+1033426510+1034403390
1114+1035573747+1035796457+1034458389+1032223379+1030904750+1031806589
1105+1033949004+1035243524+1035261003+1035215196+1035824182+1036913698
1097+1038118185+1038556372+1037320693+1035394584+1035330318+1038196540
1088+1042263256+1045034397+1045877394+1046058892+1046426108+1046220877
1080+1044498944+1041838706+1040087690+1040766669+1043743267+1047532349
1071+1050880682+1053638563+1056057180+1058004310+1059297097+1060152149
1063+1060368531+1058782589+1054750832+1049747318+1046581839+1047562486
1054+1053431148+1062493165+1070461900+1073512483+1072449789+1071576881
1045+1072958948+1073741823+1070334120+1063843363+1058643282+1056769988
1037+1056916075+1058023447+1060269381+1063096200+1065259710+1066399026
1028+1066579470+1065653898+1064690278+1065608693+1068161720+1069730107
1020+1068954012+1067524329+1067566295+1068625598+1068071762+1064547280
1011+1060188238+1057836147+1057040992+1055209587+1052262674+1050816717
1003+1051958444+1053757452+1053849821+1051906685+1049297076+1047587574
994+1047508315+1048198218+1047455877+1044003949+1039657640+1037911296
985+1040186991+1044424280+1047457158+1047651991+1045111923+1041076700
977+1037371850+1034822666+1032334659+1028918593+1025492583+1023174998
968+1021345854+1018594829+1014432656+1009255931+1003969208+1000086703+998606315
958+998386392+996950757+993309873+988772196+984784514+981416742+977939499
948+973778004+969065761+964772492+962026516+961132662+961436515+961818347
938+961273551+959926217+959149746+959644213+960239110+959661089+958378322
928+957593639+957483188+957418470+957082823+956775806+956924831+957210452
918+956654958+955072557+953723414+953632703+953765606+952149151+948554375
908+944704869+942175198+941301762+941576835+942155534+942446202+942479880
898+942513783+942748021+943347665+943920337+943406130+941559054+939680561
888+938732010+937872286+935986334+933625127+932223546+932303107+933208789
878+933909617+933750646+933082743+933341616+935753076+939505241+941901030
868+941146408+938276946+935415923+933184529+930926088+928635175+927176786
858+926708387+926173989+924984571+924220757+925076261+926869619+928031462
848+928305329+928505662+928851707+928771091+927690089+925348320+922229628
838+919972016+920232924+922886909+926258221+929219374+932069699+935255746
828+938621483+941879181+944205354+944149676+941661971+939016801+938245830
818+938742030+938719503+937941902+937557810+938077441+938751900+938902432
808+939155882+940549853+942477921+942882430+941140381+939098095+938376472
798+938908008+940387039+942320833+942924998+941005670+938659380+939259326
788+943008929+946562191+946849017+943830454+939728026+937077432+937124897
778+938730051+939619459+939338058+939567850+941261831+943199166+943958309
768+943523135+942266286+940224452+938067948+937272567+938830858+942334320
758+945725824+946617191+944912812+942726699+941345310+940113625+938493252
748+937213047+936935413+937425359+938449026+940453340+944031691+948887234
738+953343240+955462827+955152721+954099068+953578984+953473054+953208680
728+952511393+951286489+949882422+949138574+948991206+947868163+944578747
718+940467429+938334356+939728629+943494204+946783771+947921204+947180068
708+944870621+941256708+937897526+936244455+935657694+934773710+933975240
698+934582343+936233681+936535499+933457944+927506858+921022052+915782794
688+912320017+910678097+909778668+907155272+901721482+896165789+894908639
678+899582006+906948233+911047045+907827169+897760621+883712419+868906053
668+859236782+860731786+869001737+875016712+875244621+871786891+869815879
658+872177312+876193850+877772483+876506744+873515756+868520530+862102627
648+856754576+854323979+854272822+854743632+854336637+852717846+850081642
638+847310953+846182787+847746729+850820518+853223012+854115434+853453557
628+850736060+846613139+843358229+841853129+840500521+837912158+834486525
618+831324210+828818422+826345483+823547822+821734198+822385828+824326327
608+824396847+821074130+816968086+817519737+825911968+838585261+846443469
##END=
