##TITLE=<SNM>
##JCAMP-DX=4.24
##DATA TYPE=INFRARED SPECTRUM
##DATE=2/5/2025
##SAMPLING PROCEDURE=Instrument type and / or accessory
##ORIGIN=Admin
##XUNITS=1/CM
##YUNITS=ABSORBANCE
##RESOLUTION=4
##FIRSTX=4497.3318
##LASTX=599.83466
##DELTAX=-1.4281778
##MAXY=1.7066952
##MINY=0.29108191
##XFACTOR=1
##YFACTOR=1.5894838e-09
##NPOINTS=2730
##FIRSTY=0.29890138
##XYDATA=(X++(Y..Y))
4497+188049343+189992786+191570028+191531310+190263306+189164106+189014840
4487+189362140+189474582+189365365+189555243+190228470+190876177+190762892
4477+189880925+189201530+189608942+190867515+192016571+192428689+192075389
4467+191256046+190586270+190812297+192116450+193735673+194598496+194453524
4457+194129848+194411525+194897198+194460630+192839288+191151817+190666875
4447+191483367+192557124+192769146+191804156+190289987+189332422+189635042
4437+190775342+191565997+191285183+190181220+188804656+187542146+186788990
4427+186757771+187070310+187232945+187422148+188073043+188945822+189387490
4417+189299816+189179275+189278104+189193731+188408587+187049966+185900198
4407+185620340+186144038+186890613+187395729+187694562+188161429+188927373
4397+189544968+189457089+188693208+187791235+187136402+186714122+186470714
4387+186567312+187033373+187377205+187021992+186096432+185352801+185259653
4377+185544160+185693108+185506324+185008369+184298881+183791927+184135346
4367+185441337+186887500+187465197+186901544+185640871+184343524+183625392
4357+183836983+184793779+185844999+186274198+185766138+184748817+184158540
4347+184563346+185551923+186193200+186083495+185733195+185872805+186633011
4337+187519721+187889221+187292569+185776225+184075854+183129838+183180931
4327+183613974+183823989+183884007+184190077+184762955+185069943+184626513
4317+183840976+183881438+185383719+187609326+189175731+189358540+188508111
4307+187481172+186843551+186542394+186309073+186258748+186770052+187765267
4297+188526092+188454637+187771061+187221020+187305825+187982970+188818924
4287+189187506+188683289+187629632+186809670+186531594+186447989+186362584
4277+186522332+186968499+187314750+187344974+187266582+187290619+187401767
4267+187569689+187895859+188451712+189001040+189057477+188485386+187889577
4257+188005207+188833155+189711372+190071553+189958437+189976305+190646831
4247+191668633+192107863+191526904+190524827+189992561+190219526+190797035
4237+191109011+190908314+190438804+189908094+189181918+188331283+187973126
4227+188529054+189592611+190449472+190799510+190773617+190694062+190885702
4217+191385681+191978247+192582136+193179801+193429772+192988292+192155225
4207+191623559+191677614+192035002+192361153+192627586+192954805+193299687
4197+193493577+193477303+193200951+192465045+191317826+190308699+189834820
4187+189704510+189750296+190150152+190709230+190663444+189736609+188786525
4177+188971453+190552520+192654341+194088786+194353494+193803041+193067435
4167+192662629+192907312+193622744+194087961+193836115+193267006+193072216
4157+193390342+193816953+193974413+193893227+193902583+194178954+194493723
4147+194526348+194250709+193825878+193324849+192784221+192385471+192335541
4137+192562318+192770327+192873732+193110428+193637931+194316201+194917935
4127+195266923+195236886+194932766+194802399+195211049+195877975+196057335
4117+195459913+194726763+194693445+195438782+196353542+196887589+196920139
4107+196661918+196488690+196733336+197379825+197934816+197828561+197099798
4097+196488559+196609550+197238734+197709894+197735488+197521966+197366250
4087+197367694+197389800+197304901+197259283+197470517+197823836+198049658
4077+198221442+198601405+199121090+199468484+199537070+199417728+199096190
4067+198521906+197902829+197642846+197993821+198873369+199937488+200762362
4057+201058345+200802993+200228146+199696311+199461340+199472721+199534951
4047+199661062+200036018+200590653+200931147+200845405+200570384+200406043
4037+200392937+200549291+201034026+201748746+202171701+202013923+201704515
4027+201829519+202426266+203182778+203968184+204710652+205068415+204750814
4017+203975946+203163053+202421766+201806645+201750564+202628368+204087732
4007+205364604+206132760+206607164+206972090+207110762+206821848+206135404
3997+205441665+205222538+205527539+205917926+206108348+206298713+206657282
3987+206975408+207109769+207273753+207629210+208022072+208314811+208643812
3977+209225896+210123837+211193432+212106241+212529440+212414486+212043617
3967+211841364+212190802+213149624+214155788+214356447+213556942+212573615
3957+212349200+212980464+213907355+214943350+216534486+218586039+219762657
3947+219116130+217772003+217438652+218026136+218062210+216932392+215456998
3937+214734010+215475691+217791090+220824039+222973260+223292398+222627572
3927+222658884+223906656+225121486+225042212+224403692+225054887+227326431
3917+229124244+228175604+224839135+221421142+219457900+219004438+220164050
3907+224072160+231532079+240773218+247613554+249248002+246382618+240901241
3897+234546429+229716678+228711489+231544154+234833374+235096338+234101142
3887+235878256+240115704+242944919+243603221+244281753+243750837+239535458
3878+234643252+234015756+238105644+244004258+249659482+253597704+253641916
3868+250761589+248703061+248304011+246934778+243189415+239232200+237996183
3858+241372852+250644853+264741786+274373688+268923529+254784465+242664405
3848+236545445+236522983+240889973+247147549+253542467+259752476+265118017
3838+267237126+264853928+260322335+256133243+252565965+249587727+248172651
3828+248624068+250005733+252839598+259456250+268738582+273638494+271177635
3818+266635711+262645065+257193256+250580954+246344481+247051738+252684819
3808+260079245+264988401+267901765+272314466+276878721+276627306+272512256
3798+269151563+266521619+262503842+258136965+255914678+256196973+257872839
3788+260461289+263874276+267310418+270414898+274436987+279872933+284261072
3778+285220269+284469663+285745916+291220375+300545156+310813047+318420226
3768+322926676+326451055+330287803+335581139+344370467+357134654+370747376
3758+381627257+390880902+403092198+421809973+445720810+466026308+475905331
3748+481336065+489810061+500104726+504674025+503578106+504799423+513073472
3738+528384616+546472138+559823153+563495916+559653956+553838178+550124052
3728+550431360+554691814+560410655+564408951+565436996+564240054+562974300
3718+564364064+569974158+579691858+592045952+603431586+609457885+610252797
3708+610024088+612080817+617386040+624107728+628198535+627969788+626557600
3698+626969755+629159231+632537250+637838761+645449109+652602714+654236337
3688+649849510+644884743+643077648+644437676+647826944+652543615+659151380
3678+668557797+677774918+680553847+678777201+678466332+677917491+671886242
3668+662467149+656066231+653850843+653390276+653534648+655489941+661018548
3658+670171620+680062680+687566080+693850374+702729776+714599078+721816807
3648+717067736+706520438+698798567+695540171+694602237+694339291+694840358
3638+696243434+697368566+697250593+697639686+702143211+711883073+720987696
3628+720432330+712166043+705774875+707094328+716316999+727849331+733099693
3618+730129593+726292582+727420338+732067560+735160959+734286698+731399997
3608+729365656+728846064+727945554+724600460+719218250+714780425+714027737
3598+717342382+723117810+728711367+732430629+736043994+743121551+753534902
3588+760854179+759171432+751807680+745618409+743059077+742729832+742010069
3578+739135367+734998511+732700475+734038003+738131434+744368255+753427203
3568+763326588+767616441+763727006+757076567+752029677+748181716+744671100
3558+742571585+742404863+742463587+740704566+736991978+733430363+733138918
3548+737314998+742352739+742561310+737937337+734496320+736054569+740621467
3538+744106059+744815697+743960337+743499619+744574726+746932837+749147475
3528+749809264+748212016+744132084+739217266+737010578+739257015+744004286
3518+747854497+748884379+747258632+744157283+741089310+739565635+740302123
3508+742954828+746966886+751490136+754360938+753649275+750592101+748096742
3498+747329430+747655450+748226865+748640558+749085976+750386304+753194632
3488+756625300+758102100+755884312+751945678+750440003+752564118+754636783
3478+752623592+747372555+743156275+742111693+742397663+741384580+739255665
3468+738545577+740334672+742528086+742808731+741590451+740712291+740764265
3458+740760365+740074352+739286415+738706899+738110734+738722874+742787806
3448+749795314+755035851+754195041+748655558+743078951+739965603+739173617
3438+740245799+743083451+747130384+751148141+753743923+753859871+751357988
3428+747163158+742910429+740610143+741576876+744903221+747897771+748932829
3418+748754331+748336738+747368505+745670308+744256582+743992811+744394729
3408+744470703+743661542+741889771+739755382+737918963+735913721+732950971
3398+730296915+730900355+735666975+741487628+744130284+742992253+741430629
3388+742084918+743775090+743626217+741237732+739336589+740609168+744550727
3378+747547752+746696366+743067777+740003853+739117893+739442787+739882955
3368+740457295+741334481+742139292+742386263+742159692+741928771+741601251
3358+740855239+740625817+742044944+743767590+743257448+741290906+741038311
3348+742547210+742929254+741543652+740172225+738711849+735641026+732301857
3338+732489653+737768815+745345188+750796097+752081576+750233232+747571976
3328+746498594+748266690+751265740+752063801+749709066+746827089+745705407
3318+745896204+745753482+744612301+743063952+741944970+741491378+741796848
3308+743749815+747760748+751733657+752724690+750574851+747842347+746747665
3298+747767873+749712215+750530302+749701566+749083801+749988736+750820997
3288+749321097+745930029+743268098+743337922+745980803+749111776+750594576
3278+750331180+749467345+747923270+744973795+742128192+742438387+746533994
3268+751486986+754002369+753588526+751928278+750242007+748430487+746282748
3258+744406354+743859388+745366788+748695232+752229173+753725773+752582417
3248+750728673+750073034+750266156+750242607+750226107+750771273+751249990
3238+750276806+747502827+744708524+744464328+746933062+749007152+748205191
3228+746020777+744909821+744454503+743273648+742291840+743203524+745225415
3218+745611209+743042652+739302915+737504595+739419988+744222007+748811181
3208+749889063+747046310+743211699+741225132+741121634+741409179+741333656
3198+740761715+739707683+739076568+740155575+742605934+744288456+743474495
3188+740265598+736265690+733833631+734591718+737514419+739328639+738004011
3178+735184958+734072052+735513603+737306598+737467095+736846481+737131176
3168+737686617+736326364+732654201+728844639+726961496+727138868+728376872
3158+729954096+731823515+733901730+735564452+736179067+735333681+732817848
3148+729267107+726402455+725765266+727139393+728642293+728378072+726023787
3138+722958363+720985521+720973746+722398722+723729500+723540803+721826557
3128+719734767+718046920+717037812+717282533+718832757+720144710+719942738
3118+719489521+720849323+723649476+725504420+725161451+723641076+722551345
3108+722228175+721685259+720171109+718027420+715758408+713588919+712254917
3098+712357290+712772708+711684101+709132719+706611636+704942164+704344049
3088+705417056+708554104+712802033+716122677+717073286+716222425+715324465
3078+714942497+713914489+711505079+708730801+706940206+706402390+706662635
3068+707048954+706811433+705844399+704877140+704229601+703506463+702956722
3058+703338691+704133828+704007455+703187643+703045371+703456514+702841524
3048+700677210+698153353+696382182+695198852+693823750+692227627+691393191
3038+692055204+693720177+695077579+694887082+693019913+691114120+691073171
3028+692552596+693223685+691783559+689172028+686781068+685140095+684298684
3018+684132712+684062288+683464248+682691611+682643387+682980131+682221444
3008+680192128+678613404+678513356+678728227+677692570+675439007+673078722
2998+671266677+670105846+669968974+671084430+672449032+672395708+670533864
2988+668259377+667149246+667516140+668378175+668476349+667375967+665714520
2978+664355318+663543381+663207537+663578031+664947808+666880825+668090630
2968+667488090+665176704+662210278+659771469+658719012+659203654+660315360
2958+660736103+660097339+659134430+658482991+658012074+657201862+655699337
2948+653627272+651400259+649255145+647239329+645611406+644837944+645075690
2938+645901801+646519191+646134372+644583623+642711129+641591548+641479950
2928+641892893+642201213+641751445+640187422+638181730+637112023+637436243
2918+637942634+637096573+634640664+631458843+628613428+626968705+626963830
2908+628222234+629621598+630027417+629113182+627479297+625992971+625081362
2898+624500046+623523338+621581883+619042838+617029459+616222885+616238447
2888+616377082+616482980+616732651+616993459+616863562+616202148+615234289
2878+614170844+612940640+611369978+609550284+607855387+606556334+605613375
2868+604882587+604267522+603632995+602830359+601873262+600925128+600083830
2858+599251681+598165549+596636925+594885704+593444228+592608142+592298697
2848+592490582+593212707+594033868+594096417+592831488+590465578+587873134
2838+585896579+584662662+583719066+582760469+581775061+580669017+579359126
2828+578088572+577205687+576798331+576732258+576788094+576606410+575753786
2818+574087352+571972650+570019270+568673005+568068402+568040203+568106014
2808+567700684+566608214+565064815+563566115+562531695+561851081+560930847
2798+559516370+558056407+556931764+555907618+554740488+553720880+553249700
2788+553216701+552935755+551739300+549734471+547760579+546537462+546155494
2778+546336916+546730584+546873382+546239905+544607070+542365920+540301542
2768+538959139+538276575+537776034+536948198+535584983+534013084+532881728
2758+532502797+532538834+532418048+531868083+530970760+529845441+528488264
2748+526951090+525452315+524162636+523094842+522320255+521926436+521620666
2738+520883841+519789085+519115858+519217857+519326192+518469519+516655299
2728+514695732+513243719+512451057+512191599+512098488+511593109+510344680
2718+508637671+507029323+505748269+504610163+503460170+502436025+501753649
2708+501445179+501299119+500923750+500087214+499121493+498560765+498262457
2698+497474970+495945858+494304623+493195842+492699050+492589252+492509566
2688+491953112+490666696+489034499+487715083+487030307+486819411+486638214
2678+486122035+485380560+484854744+484597648+484041420+482696842+480759700
2668+478907006+477791774+477674589+478153643+478319578+477573415+476253775
2658+475131606+474418181+473704980+472792433+472011583+471627177+471426443
2648+471073799+470497996+469791771+469022133+468233297+467456947+466685172
2638+465916548+465219359+464696018+464355861+464076004+463774996+463514113
2628+463296242+462963285+462430419+461749692+460853607+459630153+458337962
2618+457474539+457139482+456899374+456336883+455488047+454696435+454185731
2608+453873624+453580904+453244235+452804330+452130166+451291230+450685277
2598+450626666+450923098+450997347+450395295+449128191+447594617+446264739
2588+445400191+444960661+444736189+444619904+444693328+444950761+445104621
2578+444859525+444218211+443385724+442591225+442038635+441732602+441385283
2568+440748656+439914333+439090584+438297022+437494160+436828697+436525064
2558+436595788+436804622+436903545+436785797+436398579+435688716+434742194
2548+433842772+433260631+432997386+432768377+432273310+431535585+430914633
2538+430703512+430793960+430823885+430569001+430109971+429711653+429579505
2528+429627955+429512156+429041989+428486736+428234290+428266952+428220303
2518+427824722+427101247+426282035+425674471+425482661+425661233+425933329
2508+425945066+425513298+424812510+424182371+423730578+423346510+423030652
2498+422889430+422860668+422732420+422401188+421954533+421559364+421335156
2488+421277632+421289219+421256782+421011086+420353985+419331377+418350431
2478+417802115+417685567+417781565+417963325+418090522+417892976+417283123
2468+416548698+416014295+415762411+415757461+415901272+415923434+415570265
2458+414966675+414517132+414388247+414316585+414010328+413518599+413039694
2448+412609539+412225995+412040899+412132172+412274707+412197046+411920038
2438+411644155+411435696+411231137+411060027+411013078+410992754+410761382
2428+410319227+409998308+410064382+410371501+410503349+410226716+409748449
2418+409448979+409415492+409430230+409374468+409358043+409436155+409472979
2408+409344244+409104623+408901076+408810178+408797240+408781941+408676567
2398+408408147+408012978+407672222+407533774+407541986+407554511+407541799
2388+407503362+407238841+406425142+404937880+402878339+400250683+396915676
2378+393007192+389074670+385518379+382129824+378569783+375099741+372320625
2368+370260710+368304967+366124866+364185849+363217540+363625871+365506502
2358+368780647+373125212+378245564+384397448+391766900+399161964+404453238
2348+406258495+404782182+401641047+398790720+397042912+395913543+394621127
2338+392697034+390129115+387323637+384817629+382894548+381535009+380720972
2328+380516376+380772384+381082204+381174227+381162265+381384186+382110024
2318+383341166+384795392+386137719+387266375+388350557+389590399+390969963
2308+392287729+393391185+394284758+395043333+395728709+396329186+396732829
2298+396893552+397016625+397420380+398246529+399393972+400594590+401486288
2288+401806645+401617573+401256079+401029095+400999808+401082794+401268116
2278+401624060+402087440+402434984+402516845+402365873+402063815+401668872
2268+401301266+401154756+401331865+401723321+402129702+402455571+402721329
2258+402970288+403228883+403465654+403561878+403411768+403050199+402662718
2248+402499296+402704567+403180247+403730137+404303690+404897905+405344973
2238+405500370+405533895+405731967+406083936+406343581+406482591+406775837
2228+407320327+407774745+407829044+407682721+407757608+408137664+408549707
2218+408757603+408793265+408868489+409158509+409655226+410175905+410490787
2208+410512762+410404201+410402063+410558773+410784370+411034903+411284386
2198+411470758+411635530+411927350+412357843+412760887+413049294+413320940
2188+413686896+414153088+414679654+415218220+415660376+415880797+415907046
2178+415934196+416092818+416305177+416424463+416427463+416467062+416784869
2168+417480408+418316756+418903696+419116730+419148717+419153667+419134167
2158+419194316+419541936+420145713+420703479+421052973+421349143+421766548
2148+422275827+422782481+423274023+423721878+423991274+424000274+423896025
2138+423908100+424079210+424294794+424483191+424618301+424669037+424698587
2128+424847422+425129155+425409238+425605209+425751157+425899804+426098926
2118+426414933+426863763+427331080+427650313+427788235+427887684+428080768
2108+428330701+428501473+428515348+428443912+428479724+428728195+429014127
2098+429059914+428852992+428651021+428672958+428957316+429409558+429822501
2088+429986711+429923637+429884525+430030923+430234019+430274706+430151221
2078+430071010+430177058+430396542+430555839+430548339+430405354+430312468
2068+430499777+430951982+431290077+431154066+430649062+430200532+430070635
2058+430195283+430336580+430215607+429665266+428848980+428220453+428104280
2048+428357363+428559560+428532410+428497948+428650496+428815268+428714320
2038+428345663+427909246+427577039+427442904+427473803+427495253+427415416
2028+427365055+427451266+427550527+427505190+427376942+427380880+427601263
2018+427803085+427614988+426972136+426218512+425723145+425612934+425805793
2008+426025165+425926654+425473174+424987182+424700724+424550239+424449029
1998+424487503+424910571+425937266+427301493+428098655+427668725+426447408
1988+425324939+424612188+424128671+423765790+423539744+423416221+423334097
1978+423260298+423173975+423060577+422916579+422825831+423037777+423704966
1968+424411004+424350180+423318385+422096768+421495990+421533490+421811923
1958+422140342+422434337+422496699+422244253+421861384+421602151+421610926
1948+421991507+423003653+424855409+426876326+427449803+425818843+423283211
1938+421549877+420996686+421017348+421017611+420779040+420450695+420351660
1928+420743828+421889321+423801564+425687070+426638992+427042148+427748861
1918+428102893+426736565+424116934+422208141+422097630+423186387+424045498
1908+423742428+422599897+421627501+421316031+421325781+421261357+421311006
1898+421889321+422827406+423443670+423737140+424668400+426448383+427554502
1888+426692166+424730161+423222612+422487361+422055481+421727287+421568777
1878+421548790+421543915+421652325+422672946+425902054+431543797+437022268
1868+438286372+434563772+429347872+425864892+424629738+424620401+424912146
1858+425108793+425135980+425121542+425261265+425757644+426881350+428962378
1848+432409995+437304339+441957111+442830284+438928999+433896733+431083230
1838+430558914+430667475+430738611+432075351+436051560+441427770+444683053
1828+444500168+443096904+441772839+439630425+436694786+434559197+433979794
1818+434240677+434645746+435521881+437561134+440478398+442650699+442648187
1808+440984490+439595625+440181703+443301538+447937886+451689361+452657782
1798+451632999+451433690+454265343+459626890+463496788+461816291+456385145
1788+452287476+451698811+453301234+455229076+456996684+458428635+458977514
1778+459250959+461442873+467356036+476044866+482716454+482774503+477706988
1768+471716051+467192726+465690877+467975638+472056245+474391931+474579915
1758+474732538+475193630+475719446+478251817+484670622+493023457+498163571
1748+497733416+494493995+492039099+492029199+494231874+496883980+498018449
1738+498710950+502940691+512003315+519560263+518117175+511134754+504814235
1728+500726128+499010982+499814931+502515111+507011998+515119588+528339092
1718+543389615+551341170+548104336+539961197+533591704+531711823+534940219
1708+542626165+552190418+560262533+567111606+576603185+589483282+599668937
1698+602775535+601242298+596369142+589874363+586692354+589516131+597009181
1688+607529780+622123074+640153372+651949400+649842685+642289187+638505125
1678+641028983+648864777+658488616+666514681+673894183+682330042+688322067
1668+687673403+684466231+685219144+690442881+695514147+697309992+698479522
1658+703326616+714385406+732288207+751302339+756739373+750678274+749119275
1648+754581959+758067301+752005227+741910321+735551777+734901613+739916404
1638+749864313+759805022+759874921+748767156+737371847+732380380+732898697
1628+735113260+736733457+738176808+738776273+736365289+732684800+732441954
1618+736142692+737593093+731778665+723341081+718188293+716925314+717309607
1608+717458630+717127060+716857665+716832615+716779291+716564720+716625244
1598+717660376+719805790+722221725+723790699+724286891+724570236+725604469
1588+727563211+729961746+732372580+734721691+737287173+741007336+747283306
1578+756201857+764058726+765797947+763840629+764909061+770389145+775781555
1568+777230005+777027359+778752705+783764421+793897877+811761528+833131071
1558+840572671+831104080+820754178+815642638+814460583+815051648+815918934
1548+817838376+823848401+835851650+852410548+870158927+883337181+882746491
1538+870793116+861474672+860152444+862496005+862283308+860232693+861778042
1528+868450530+877259583+885912188+895323931+904765523+909598592+908520185
1518+905271915+901238707+896055019+891999312+892493853+899174967+911679883
1508+925931219+930185748+918130900+903536819+896968053+897907413+902297914
1498+905892154+905832605+902907879+901353830+904438304+911168391+915810663
1488+913010885+904990219+898011361+895151659+895317631+896092668+896981478
1478+899935754+906924437+917422237+926769330+927581867+918714015+908598709
1468+904384979+906586793+910728898+911835130+910853171+912969861+920629483
1458+929746255+930787238+921719965+911203490+904634125+902483161+903433245
1448+905003044+905064843+903898163+903058027+903270873+904942970+908943778
1438+914766831+918424970+916409978+911773631+909261248+909391896+909913062
1428+910002686+911160441+913926020+916939620+919858571+924029476+928463027
1418+928584000+923109241+916413203+912013027+910068609+909201774+908623684
1408+908764906+909950711+911306914+912108350+913367654+916305130+920370662
1398+924033526+926254614+926106191+923167815+919317230+917340713+917700782
1388+917942953+915334796+910525427+907084784+907485803+911232515+916187157
1378+920850354+924985035+928208406+929387536+928428753+927033326+926446836
1368+926269839+926178565+927073300+929324088+931127507+930370470+927579767
1358+924863012+923114566+921898462+920909528+920224265+919770672+919605825
1348+919856471+919900420+919050609+918113725+918358596+919155383+918515868
1338+915877112+912600717+910011985+908432512+907455203+906423445+905099118
1328+903897188+903235849+903065302+903282273+904166133+905858330+907488053
1318+907587951+905839955+903625167+902373513+902252990+902719932+903303948
1308+903495419+902798906+901221307+899253865+897486145+896435712+896146067
1298+895829873+894697166+892984870+891205000+888992837+885926738+882582544
1288+879569769+876562845+873344198+870724867+869433389+868974697+868266858
1278+866867007+865199110+863943406+863464839+863638311+864121378+864804766
1268+865825499+867056679+867937239+868143110+868014788+867975263+868136736
1258+868654302+869737434+871239359+872745033+874000962+875067670+876363723
1248+878392439+880961971+883117585+884283291+884936230+885879414+887439613
1238+889471104+891707116+894070702+896647959+899310639+901606876+903148325
1228+903996786+904659850+905741482+907525777+909915387+912590667+915067651
1218+917019868+918708690+920625058+922881695+925424603+928200306+930763463
1208+932759105+934771021+937357053+939842812+941576558+943338653+945987084
1198+948946984+951219446+952647948+953587757+954712513+957235021+961723546
1188+966557065+969045073+968533057+967064432+966698288+967574723+968702254
1178+969643563+970991216+973372726+976654146+980170762+983028290+984366867
1168+983911250+982280252+980589630+979957616+981374042+985211053+990396466
1158+994831292+997090855+997443724+997087480+996761085+996603963+996942732
1148+998243135+1000444873+1003062255+1005565188+1007300659+1007912649
1140+1008103895+1008824933+1009831642+1010274659+1010071938+1009820167
1131+1010315683+1012156828+1014660511+1015940964+1015506422+1015318400
1123+1017005197+1019836699+1022067312+1022752575+1022247084+1022103161
1114+1023923531+1027467672+1030925339+1033367748+1035393239+1036835990
1105+1035890181+1031917647+1027617744+1026054770+1027005079+1028234759
1097+1028838724+1029680810+1031518804+1034144210+1036566670+1037705600
1088+1037944097+1039027903+1041350765+1043450654+1045321948+1049061611
1080+1054778540+1059139267+1058987920+1054476445+1048581094+1044627235
1071+1043854823+1045026528+1046428180+1047725958+1049409980+1051052977
1063+1051239874+1049226608+1046215333+1044775507+1046617551+1050840506
1054+1054597118+1055857022+1055551927+1056373613+1059396588+1062762907
1045+1064049060+1063047302+1061526852+1060788565+1060374196+1059465062
1037+1058614501+1058890271+1059958178+1060656492+1060987836+1061830972
1028+1063041677+1063614217+1063957712+1066035027+1070214107+1073713473
1020+1073741823+1070871246+1067552176+1064923695+1062610434+1060573693
1011+1059379938+1058885921+1058281056+1057332697+1056374363+1055461929
1003+1054783715+1055262582+1057114376+1058504703+1057631192+1055266182
994+1052986220+1050471587+1047121543+1044522987+1044644334+1046703500
985+1047647884+1045559844+1041254091+1036715092+1033283899+1031380956
977+1031097611+1032180893+1033129627+1031350807+1025649927+1018060804
968+1011998880+1009069279+1008169669+1007066288+1004283759+999725410+994116854
958+988402100+983647554+980697854+979399925+978601789+977254061+975164971
948+972642613+970098581+968046540+966626964+965250062+963346519+961082982
938+958736421+955966942+952794120+950512433+950338961+952012183+954366469
928+956275337+956521858+954286970+950722580+948342720+948225647+949128706
918+949547199+949467476+949847869+951222971+952942693+953605607+952468251
908+950394835+949080332+949292429+950029666+949486225+947016142+943837395
898+941345487+939700764+938761330+939029600+940525450+941778829+941292612
888+939492043+937968143+937181406+936092724+934146882+932277988+931123007
878+929870078+927836637+926168815+926675657+929172590+931517051+932164815
868+931414003+930259322+929384012+929098341+929033692+928397853+927237922
858+926580708+926898703+927400145+927330696+927123849+927583592+928422153
848+928358104+926755005+924331196+922097658+920437036+919376854+919004185
838+919452753+920916053+923286163+925582100+926565784+926161615+925478002
828+925557726+926927203+929716181+933075975+935209014+935322787+934847670
818+935718406+938211589+941019992+942864511+943264629+942029175+939410744
808+937014609+936953485+939343545+941830203+942329320+941166240+939758588
798+938826429+938771305+939922010+941638957+942547416+942269846+941878278
788+942419694+943906769+945736213+947243538+947840603+947028517+944633882
778+941367761+939023375+938959776+940256430+940905769+940548100+939886536
768+938467335+935698756+932941952+932443135+934993993+939255721+942673789
758+943503650+942215097+940311854+938549083+937158007+936682740+937461001
748+938686781+939135873+938881478+939126199+940390303+941798929+942581616
738+943083882+943383577+942701839+941364836+941501859+944326162+947983701
728+949544424+948494217+946507725+944634782+943060483+942664489+944192214
718+946733546+949236105+952045783+955159881+956428334+953059241+944769554
708+934958068+928061859+925503651+925280305+925384478+925653574+926173390
698+926248014+925668274+925436678+925845496+924572467+919278080+911883804
688+906741290+905342113+905362363+903782965+900213999+896744182+895379280
678+896408938+897716916+896612034+892662600+887181692+880554128+872883781
668+868372382+873046978+883135210+889849848+890176767+886185484+881008170
658+876822040+874341157+872138369+868516829+864798841+863014621+861195602
648+856815375+852859491+853799675+858665894+862431806+862424756+859935398
638+856546429+852554546+848113570+844270185+842683586+844265535+847516580
628+849592546+849293526+847373183+844419132+840796168+837818042+836316493
618+835226311+833320668+831683520+832861225+837234627+841689478+842733010
608+838842000+830011498+818511415+809376943+807015232+811488083+819166754
##END=
