##TITLE=<SNM>
##JCAMP-DX=4.24
##DATA TYPE=INFRARED SPECTRUM
##DATE=2/5/2025
##SAMPLING PROCEDURE=Instrument type and / or accessory
##ORIGIN=Admin
##XUNITS=1/CM
##YUNITS=ABSORBANCE
##RESOLUTION=4
##FIRSTX=4497.3318
##LASTX=599.83466
##DELTAX=-1.4281778
##MAXY=1.8479463
##MINY=0.3886382
##XFACTOR=1
##YFACTOR=1.7210341e-09
##NPOINTS=2730
##FIRSTY=0.41143733
##XYDATA=(X++(Y..Y))
4497+239064022+238949854+239052784+239295284+239452501+239456830+239448483
4487+239527447+239727401+240262516+241392401+242915909+244111753+244368713
4477+243725075+242647537+241441251+240170323+239106465+238772897+239311319
4467+240172816+240775933+241189400+241731164+242237084+242278592+241810266
4457+241220085+240954570+241123129+241277766+240847849+239846885+238785399
4447+238054019+237871797+238420904+239373174+239771004+239082429+237996614
4437+237567909+237995419+238741796+239409798+239948602+240204246+239903752
4427+239042324+237852143+236652748+235998842+236285638+237023720+237359436
4417+237210964+237092640+237182842+237315157+237469101+237641972+237587009
4407+237104069+236490562+236455704+237427749+238980227+240106667+240029054
4397+238652980+236579240+234845060+234161421+234249891+234300143+234015044
4387+233789514+233985225+234445914+234719134+234533154+234004100+233498665
4377+233307179+233370506+233392550+233371250+233827506+235112150+236664229
4367+237503717+237354708+236700144+235888865+234858584+233668367+232724115
4357+232331411+232338008+232442998+232587003+232744011+232668079+232253469
4347+231848747+231781663+231841267+231600931+231022974+230485227+230433762
4337+230987995+231648811+231670630+230954817+230134135+229634086+229313522
4327+229064528+228998465+229032233+228967573+228858375+228848833+228954170
4317+229232533+229719854+230050098+229706330+228772329+227989051+228010142
4307+228777766+229632995+229989403+229871737+229703871+229708928+229769172
4297+229661394+229164687+228215378+227213755+226913158+227784716+229531728
4287+231220227+231972439+231712449+231102353+230631275+230128161+229405785
4277+228886756+229048302+229533754+229468141+228662317+227866831+227717684
4267+228058975+228535456+229193553+230018062+230468880+230107969+229351896
4257+229103646+229789259+230929327+231574627+231278220+230665544+230690307
4247+231349477+231680898+231129627+230231973+229725638+229656943+229604197
4237+229303046+228865994+228550331+228417929+228340922+228345113+228659044
4227+229374701+230278624+230926175+230844632+230047639+229324674+229453353
4217+230137633+230428654+230109164+229800168+229823701+229939670+230094999
4207+230531272+231170823+231597571+231628550+231399920+230955856+230186846
4197+229214853+228556184+228757610+229855910+231238150+232151838+232313228
4187+231882722+231128674+230399926+230057769+230131641+230353431+230615569
4177+231003926+231425601+231638559+231594766+231448320+231326897+231230322
4167+231060032+230784509+230597230+230695848+230910659+230929154+230846831
4157+230991181+231317996+231435662+231116155+230518336+230024867+229973126
4147+230374315+230895525+231260505+231426674+231166373+230048747+228304281
4137+227103813+227373639+228804936+230490249+231977097+233164612+233746707
4127+233452690+232493372+231325979+230352548+230030045+230607482+231490936
4117+231577830+230619361+229590812+229358216+229682745+229919150+229991083
4107+230147763+230375925+230632487+231070300+231476754+231159619+230017040
4097+229049012+229115161+229726989+229784029+229141586+228645901+228746371
4087+228927849+228733055+228519006+228704188+228927017+228477238+227293238
4077+226136910+225816676+226444781+227474005+228329320+228792693+228826564
4067+228476701+228072880+228062698+228458536+228751445+228491645+227780733
4057+227127519+226869780+226850472+226790124+226804930+227208578+227928651
4047+228568479+228921840+229010639+228874341+228707461+228828556+229192809
4037+229338718+229024007+228533603+228289544+228478208+228988733+229523901
4027+229866872+230124992+230598841+231354603+232031212+232111248+231369322
4017+230059241+228641693+227434645+226650103+226551225+227213184+228172242
4007+228675859+228450034+228030524+228199897+229250421+230787297+232055178
3997+232440713+231880540+230911525+230212544+230017092+229991325+229743024
3987+229429958+229611938+230405398+231145298+231174321+230719173+230653163
3977+231506763+232954078+234221007+234818427+234792677+234431073+233955787
3967+233475842+233097511+232992053+233268252+233794189+234249648+234350275
3957+233999338+233367424+232924709+233304426+234867502+237028430+238305091
3947+238026347+237574611+238526985+240251364+240702875+239211992+236977485
3937+235454497+235651403+237868420+240995922+242871111+242542218+241500179
3927+241565393+242621407+243156868+242622688+242234781+243050389+244434550
3917+244800241+243302171+240500012+237644102+235845175+235883358+238389197
3907+243789371+251567641+259418536+264274902+265037435+262472668+257157968
3897+250466933+245684959+245584506+249500239+252986816+252467061+250522139
3887+251498825+255002702+257417975+258263281+259419592+259236435+255361327
3878+250915137+250389858+253964143+259170806+264237481+267278608+266283185
3868+263171701+261872477+262476391+261625266+257944207+254117083+253315640
3858+257202333+266513305+279456348+286668020+279683627+266434601+256174493
3848+251218488+251226350+255170568+261392221+268177786+274395560+278495523
3838+278287534+274075845+269098800+265306880+262382934+260127162+259272280
3828+259802218+261007846+263969248+270729393+279159404+282552264+279880810
3818+276613771+273591346+267786571+260459640+256082508+257084650+262958223
3808+270053598+274032675+275992212+279931149+284544218+284738440+281123669
3798+277857513+275009621+271125993+267567933+266543920+268201475+271473466
3788+275857871+281196052+286755365+292183869+298514616+306232243+313367792
3778+318166996+322453182+329377677+340228763+354083954+368136449+379106361
3768+386227814+390700499+393046679+394330422+396713626+400337523+402646231
3758+402777490+403916294+409652842+420658495+433288645+440903966+442525485
3748+445033229+452435695+461476478+466663503+469625078+476150948+488387598
3738+504831920+521602347+533386447+537043280+535425467+534840307+539641035
3728+550276357+563543133+574566068+581199923+584894645+586908487+587491361
3718+587672908+589086420+592608047+597130498+598783118+594062427+584934958
3708+576643738+573048690+575049926+579500099+580461927+575852235+570429428
3698+568618501+570331624+574269401+581023433+591088695+600710516+603079693
3688+597365657+590085168+585879609+585345152+587704770+592495905+600414819
3678+611127373+618106138+613693543+604505189+601297546+602908606+600163106
3668+590387722+580265904+574645862+573132641+572900911+572515584+573337287
3658+576186097+578835213+580007473+582854690+590370683+600026721+603138084
3648+594948755+582494644+573797803+570217682+568607765+566085510+563211764
3638+562263407+563666807+565833312+568077914+572184769+579617331+586508545
3628+585391352+577472715+570438017+568462583+572276789+580084150+586993754
3618+589080394+588473069+588477087+588766065+588539842+589423261+592441739
3608+595181974+595202893+593744149+593398788+594940651+597274295+599094469
3598+600180284+601045279+601782062+602286389+604138494+609978941+618955548
3588+624145033+619944529+611071406+605096029+603575984+604057107+604624881
3578+605088479+605398721+604649124+602618450+601846410+605710419+613776454
3568+620371970+620022246+613954122+607046839+602387725+600949969+602067300
3558+603413348+603000937+601559995+601307174+602697829+604091047+604410710
3548+603993243+603003431+601089401+598554055+596395585+595099132+594247921
3538+593444989+593062363+593426980+593776358+593136755+591650166+590068129
3528+588638892+587322490+586390238+586136170+586381996+586310513+584783611
3518+581533785+577898632+575660922+575546772+576903452+578182242+578099573
3508+576934310+575920324+575142639+573358933+570222703+567330290+566067396
3498+565869780+565366251+564084135+562682986+562165292+563109839+565078034
3488+566503773+565672026+562369280+558557949+556847457+557988374+560166273
3478+560940148+559657894+557639515+556179074+555225523+554241390+553349797
3468+552884364+552627006+552144949+551291590+550239577+549357439+548857303
3458+548608396+548572689+548773838+548611443+547464189+546129362+546092928
3448+547343735+548236021+547502112+545298827+542428372+539558713+537218731
3438+536186597+537207995+539636464+541028158+539495992+536139219+533576963
3428+532652226+532072850+530895084+529825858+529631047+529611688+528652041
3418+526897288+525285501+524018902+522441678+520324526+518568631+518260743
3408+519376516+520773543+521140134+519927112+517886914+516559499+516810380
3398+518050797+518941663+518445406+516302418+513320894+511067218+510449226
3388+510790915+510829912+510208769+509466236+509184496+509640925+510719052
3378+511823015+512365991+512504143+512840464+513394004+513583966+513216614
3368+512742383+512478306+512123491+511150476+509421767+507478715+506235666
3358+506190331+506989662+507861168+508240677+507877896+506830939+505582729
3348+504603342+503873312+503376812+503672752+505192727+507161338+508015701
3338+507105302+505368905+504081318+503571312+503466200+503703194+504608537
3328+505862426+506201726+504807365+502408888+500363461+499233004+498762306
3318+498694806+498998988+499429165+499436334+498828490+498258499+498479700
3308+499122282+498856265+497072802+494927355+494277535+495759171+498114737
3298+499337769+498441154+496169261+494205429+493819444+494982040+496503262
3288+497195022+496994393+496732325+496945006+497293657+497188719+496648444
3278+496308243+496773711+498078511+499516648+499986272+499013534+497451549
3268+496536060+496400437+496165798+495283382+494080612+493060218+492214860
3258+491133374+489649556+488260806+487642295+487866474+488547152+489522037
3248+490694193+491382732+490733501+488905500+487129518+486370673+486408389
3238+486425774+486106215+485701216+485299577+484710053+483998310+483494364
3228+483304541+483286843+483308524+483264851+483055979+482481660+481118295
3218+478943098+477089399+476883713+477992179+478504505+477227827+475056232
3208+473442817+472387271+470865426+468757036+467151448+466744475+467086199
3198+467440461+467298327+466296289+464701437+463522806+463369831+463675295
3188+463485991+462588960+461484894+460479115+459203026+457270814+455166857
3178+453880759+453664857+453774817+453540039+453046865+452532045+451765719
3168+450538428+449294202+448612623+448274986+447434754+445636710+443303413
3158+441386128+440670020+441056248+441477559+440927344+439501432+438050065
3148+437144065+436700208+436281529+435557075+434637533+433971263+433816973
3138+433970570+434033394+433722875+432917310+431619679+429972982+428263460
3128+426827263+425898647+425538290+425636925+425904327+425989420+425781622
3118+425445820+425061670+424483472+423622806+422588421+421545897+420616000
3108+419757828+418753020+417660416+417112383+417561539+418462379+418784847
3098+418107875+416827180+415623439+414943835+414646441+414176159+413337243
3088+412534380+412083354+411863746+411713265+411582629+411378156+411105663
3078+410882592+410562548+409846198+408831796+407908133+407257274+406918909
3068+406983569+407324912+407484744+407026514+405804591+404035882+402251934
3058+400932415+400164393+399799153+399679911+399562817+399184970+398538441
3048+397793692+397022830+396272990+395714670+395408549+395086219+394432659
3038+393504009+392665577+392191520+392096002+392169390+392005368+391250887
3028+389987058+388655037+387603058+386932389+386613973+386439145+386020155
3018+385141757+384048703+383225372+382918593+382911978+382770433+382294298
3008+381644443+381046954+380526419+379966576+379353433+378855998+378599852
2998+378466100+378249054+377840385+377102631+375888813+374440216+373399978
2988+373100922+373109857+372797918+372135388+371520166+371024914+370339249
2978+369397819+368576392+368188606+368099080+367917568+367409432+366659211
2968+365866807+365083581+364290415+363600317+363097514+362605206+361926502
2958+361171606+360564073+360093479+359625379+359236000+359180414+359541013
2948+360053166+360248185+359750127+358622198+357448346+356815496+356728013
2938+356778093+356675994+356270615+355428789+354346230+353578346+353372903
2928+353333871+352970779+352214878+351280132+350391587+349746131+349439490
2918+349326413+349128312+348741980+348293933+347848656+347301731+346649279
2908+346082128+345682359+345303958+344874993+344502238+344158817+343633676
2898+342921413+342310105+341970771+341741361+341382805+340846028+340276245
2888+339893723+339829964+339960946+339920079+339392271+338429992+337394360
2878+336580830+336035014+335716043+335634482+335757257+335919997+335918266
2868+335663470+335244861+334811117+334413252+334053692+333786567+333577176
2858+333215884+332603052+331908002+331259117+330606077+330039203+329829050
2848+329974231+330069230+329773949+329162918+328551956+328169400+328007767
2838+327861824+327505796+326902107+326225343+325667890+325279653+325000407
2828+324754824+324490747+324190583+323857655+323471947+322986669+322390704
2818+321778599+321342812+321218063+321293979+321281511+321030283+320666498
2808+320361277+320117391+319831114+319419985+318836038+318064552+317197825
2798+316466999+316092997+316042987+316007834+315713973+315202096+314723745
2788+314447477+314335578+314201340+313832741+313182921+312458675+311890797
2778+311473191+311044261+310478427+309691460+308695656+307723715+307003209
2768+306410949+305689647+304924430+304438978+304330646+304370613+304240081
2758+303747079+302961083+302164349+301557302+301079123+300598105+300148429
2748+299884006+299861564+299928579+299853113+299568984+299207935+298844876
2738+298345329+297575818+296660778+295890955+295431582+295219975+295063779
2728+294754160+294212014+293611789+293200453+292946385+292581387+292009595
2718+291418548+290961323+290570350+290110423+289534251+288891271+288311081
2708+287954205+287869354+287898688+287784364+287392613+286830744+286348721
2698+286115190+286064609+285959082+285623107+285128114+284723202+284571890
2688+284567561+284442536+284067408+283582701+283209149+282995411+282780271
2678+282369696+281756259+281169419+280854120+280797339+280739796+280481780
2668+280133112+279977350+280062183+280067967+279700562+279058674+278457912
2658+278073606+277896077+277841928+277784230+277602891+277271245+276857657
2648+276462615+276147905+275888659+275642020+275461582+275417217+275409511
2638+275225281+274782168+274207502+273712648+273470684+273533509+273754970
2628+273865207+273717774+273384465+272976384+272547385+272208137+272090333
2618+272133520+272126922+271981308+271777821+271591270+271426140+271282794
2608+271179865+271101854+270946559+270590514+270070897+269619698+269440576
2598+269524232+269715562+269870545+269936140+269942634+269934668+269913992
2588+269846510+269679111+269378998+269028131+268805441+268794375+268901253
2578+269008736+269083353+269107164+269042590+268885027+268670579+268450712
2568+268292162+268247468+268299538+268376580+268438781+268538125+268771223
2558+269135892+269453459+269512457+269288571+268954155+268688606+268532827
2548+268416529+268282274+268141317+267992274+267768926+267437228+267040575
2538+266591177+266080444+265635686+265460668+265548653+265627807+265457153
2528+265068033+264678411+264454717+264399945+264410248+264362368+264174068
2518+263873817+263597618+263447796+263412574+263474030+263653758+263870457
2508+263914753+263699353+263416176+263328485+263476541+263658624+263648910
2498+263391673+263023991+262739602+262634439+262690146+262851207+263020857
2488+263034572+262794530+262406952+262042993+261730586+261436638+261247264
2478+261273048+261443131+261557490+261503999+261312461+261051709+260785588
2468+260595314+260529096+260519243+260430859+260201883+259871016+259497187
2458+259141489+258892460+258796596+258772439+258668488+258415494+258104835
2448+257922752+257976243+258166915+258287542+258235471+258050860+257783233
2438+257440279+257059229+256731895+256538210+256482468+256493671+256485689
2428+256428925+256356663+256298116+256236850+256162129+256123150+256161108
2418+256213577+256191515+256141211+256200936+256386119+256539526+256521655
2408+256364594+256217421+256184693+256239361+256293527+256335468+256448302
2398+256702855+257118486+257786887+259013485+261318054+265319833+271617020
2388+280723570+293076432+309080325+329065945+353101969+380829770+411466505
2378+443839913+476465485+507982210+537639800+564902237+588736627+608442204
2368+624727422+638057472+646908638+649820515+647763312+642671355+635254966
2358+624766626+609783264+589043406+562582412+534138815+510921343+498948736
2348+500385487+513680523+533095494+550259387+560453277+564746942+565761448
2338+565409923+564864210+564764120+565414217+566405588+566545263+565026535
2328+562159404+558390082+553277449+546028719+536769541+526567478+516208320
2318+505784224+495445915+485675900+476573055+467383662+457135018+445572085
2308+433159464+420396461+407603016+395223712+383793666+373537333+364244492
2298+355490817+346900645+338399169+330273530+322831651+316061515+309757055
2288+303832000+298364412+293469759+289241740+285712252+282786834+280271159
2278+277990833+275865750+273903130+272176777+270771991+269676254+268751188
2268+267867197+267022358+266266458+265555407+264765566+263868397+263015645
2258+262370725+261889066+261365016+260673758+259885129+259171083+258644851
2248+258241809+257776739+257184324+256619285+256244279+256041693+255896979
2238+255736507+255536864+255306797+255092384+254940847+254851321+254788081
2228+254730676+254678623+254606240+254478202+254339531+254293261+254323323
2218+254255736+253978568+253592600+253274530+253094092+253020878+253016133
2208+253064637+253163410+253305527+253458466+253560149+253556270+253453029
2198+253324385+253256192+253287223+253410465+253606038+253830356+253998759
2188+254040752+253966706+253837127+253689330+253545482+253457323+253467765
2178+253538503+253582574+253562833+253500753+253411227+253306808+253246668
2168+253289526+253397859+253474432+253487852+253475869+253435158+253310704
2158+253098040+252858830+252630771+252412947+252229288+252114739+252055326
2148+252010113+251983549+252055049+252339784+252870328+253510797+254087714
2138+254601790+255209686+256045104+257148652+258486128+259969946+261549368
2128+263276795+265220003+267380031+269748793+272341665+275140638+278071978
2118+281005102+283734307+286043275+287820695+289054479+289745235+289887283
2108+289459426+288380313+286588174+284241577+281714041+279288325+276964396
2098+274636900+272313577+270088941+268059272+266306684+264823940+263470879
2088+262157230+261007413+260190904+259678474+259308437+259005363+258792751
2078+258650946+258499392+258308945+258134013+258021595+257978147+258051362
2068+258325344+258749166+259084344+259148104+259014385+258865429+258783989
2058+258774378+258813219+258814657+258719087+258628781+258693458+258903352
2048+259143705+259393254+259739722+260203719+260618865+260773311+260690209
2038+260623800+260719803+260855235+260876552+260841555+260957541+261339215
2028+261854987+262253146+262443697+262566766+262843207+263479156+264516814
2018+265576827+266032615+265695411+265047998+264665597+264714586+265016776
2008+265320092+265490660+265563978+265618248+265674440+265761300+265896733
1998+266028165+266268016+267002618+268307573+269479001+269715822+269065535
1988+268165266+267475774+267181030+267299804+267578981+267669702+267540555
1978+267449384+267561162+267810883+268071584+268392580+269079630+270323615
1968+271657697+272178803+271586214+270568522+269919430+269771460+269861592
1958+270085131+270495689+271029419+271532983+271985723+272521964+273255094
1948+274250932+275704723+277756887+279772409+280346902+278902738+276675505
1938+275238424+274951957+275252901+275608859+275831446+275935206+276022204
1928+276329382+277309116+279175404+281244070+282585425+283395735+284316298
1918+284685971+283372357+281047736+279585304+279800842+280988305+281925926
1908+281914861+281179636+280424601+280074114+280088227+280338001+280895004
1898+281908627+283162360+284034195+284453393+285332605+287054837+288325956
1888+287840539+286232215+284911155+284327086+284257890+284531664+284965114
1878+285340813+285641930+286106567+287383210+290508028+295735314+300899828
1868+302304821+299080866+294390652+291298683+290356283+290582991+290994016
1858+291183875+291253210+291488507+292018081+292889725+294305524+296537796
1848+299891972+304433853+308691050+309514693+306066766+301709722+299504913
1838+299499302+300107320+300603889+302153163+306080411+311267402+314422022
1828+314334989+313109083+311920131+309863552+306989806+304932672+304515933
1818+304970769+305403855+306098732+307965626+310901123+313258940+313544663
1808+312263760+311261410+312020948+314940617+319108911+322505581+323536642
1798+322852570+322901645+325700099+330780142+334304123+332524331+327368268
1788+323660455+323290331+324956631+327059445+329300480+331389337+332452849
1778+332871424+334874530+340379348+348564417+354984205+355372372+350941733
1768+345453504+341274023+340055667+342486006+346558610+348934956+349301546
1758+349623634+350184931+350814906+353437736+359843221+368118024+373332236
1748+373294071+370632625+368616324+368691824+370725753+373316063+374769369
1738+375891306+379950610+387742975+393523022+391339998+384717641+378705622
1728+374423038+372225953+372344225+373966090+376964792+383285114+394355462
1718+406788793+412181019+407275456+398197721+390877958+387567420+388817188
1708+394135611+401211072+406954824+411584950+418452682+427956023+434690522
1698+435089494+431086746+423665301+415107546+410199247+410660767+414692261
1688+421195584+431770333+445628294+453210921+447714069+437658469+431632078
1678+431687421+436363575+441971114+445836750+449651615+454921794+457796024
1668+454354297+448972599+448014199+451887697+455838530+456187077+455300714
1658+458033365+467574213+484722106+503684492+509564733+503843666+502301976
1648+507768351+511994240+507809980+500198227+496600893+499065518+507448169
1638+521142628+536379088+544146032+541060367+536138111+536890167+544027171
1628+554681576+566135727+577987812+589887413+599767735+607561139+616957014
1618+630390201+644032641+651135531+652974338+655703491+661488802+668436813
1608+674026309+677722694+680670658+683779666+686965768+689861852+692394220
1598+694697178+697057766+699789344+702904516+706165079+709367388+712420637
1588+715415426+718495411+721474753+724026100+726424092+729905336+736198437
1578+745880172+755589269+759599221+759535842+762580225+771012054+780838626
1568+787777356+793440066+801360573+812483113+827627172+849778811+877923214
1558+895506409+892619814+883495116+877485521+875376300+875433029+875366810
1548+874945257+876898491+883556763+894320158+905717061+909451403+896727570
1538+876850213+865088694+862739050+862468635+857652633+850328784+846574008
1528+847929892+851822438+856292663+861863873+867514323+869290236+866518830
1518+862508393+858231490+852992965+848142816+846496153+850397704+860693484
1508+873711905+877409537+865330779+850831102+843984911+844433479+848368831
1498+850862479+848232515+842564957+839976899+843506006+850525638+854351204
1488+850487888+841786475+833627970+828689991+826953906+827462873+829878042
1478+834581071+841536286+849359128+854617740+852859213+844539179+836331356
1468+833197619+834843589+836925797+835382549+832527955+834484306+844007700
1458+856293771+859226220+849557021+838046592+831069835+828222999+827360290
1448+826538863+824891716+822953304+821567290+821044747+821904062+825053521
1438+829754056+832083475+829361248+825164208+823671524+824417382+824278642
1428+822208902+820460972+820879478+822924005+825601762+828840575+831290793
1418+829652512+823716963+817283529+812946156+810737400+809775017+809615081
1408+810445235+812033991+812998591+812457484+811821691+812871765+815404548
1398+818116523+820128564+820224636+817135577+812515875+810093918+811192963
1388+813314998+813025397+810388368+808828565+810841368+816032168+822372924
1378+828356128+833700768+838055942+840382659+840639290+840209910+839777690
1368+839360500+840327939+844265716+849716680+852807194+851999205+849427147
1358+847216867+846021403+846086375+847251292+848437127+848395498+847061018
1348+845717464+845687056+847198788+849713009+852704888+855496657+856997722
1338+856696692+855472206+854576527+854523746+855296201+856712000+858346818
1328+859850377+861468917+863696930+866600357+869949857+873528212+876933263
1318+879740409+882126418+884652760+887450763+890250221+893043653+896264457
1308+900356212+905223540+909994657+913576475+915600014+916664634+917585457
1298+918541329+919249367+919952972+921402919+923397921+924444601+923587571
1288+921490471+919162854+916804621+914265742+911832563+910147804+909559458
1278+909955452+911150292+912721316+913489754+912404147+910340918+909698267
1268+911726032+915172019+917824287+918809458+918999109+919747668+921776263
1258+924853340+928159479+930993085+933148576+934731376+935918666+936777011
1248+937012654+936233757+934685314+933153702+932098433+931400439+930710965
1238+929681671+928256729+927009524+926679332+927198689+927638252+927152697
1228+925688619+923823630+922271793+921633367+922217211+923620888+924651083
1218+924301982+922864572+921702495+922008651+923756442+925706282+926787318
1208+927461346+928961511+931333736+933424533+934801889+936402489+938993456
1198+942117080+945027363+947820102+950723183+953062575+953967814+953459193
1188+952331887+951691522+952567669+955301324+959122595+962348733+963171129
1178+961250588+958573593+957573182+958797045+961093216+963144254+964273568
1168+964752958+965679184+967950627+971588620+975892260+979725515+982130017
1158+983194360+984085468+985479240+986640763+986837548+986643742+987157835
1148+988231667+988874594+989482543+991566482+995202536+998664247+1000407536
1138+1000168845+998846140+998172250+999329548+1001299821+1002048034+1001335424
1128+1000834630+1001803801+1004321554+1008509797+1014369638+1020081666
1120+1023072506+1023307803+1023395494+1025119042+1027644968+1029451220
1111+1030337271+1030975281+1031749122+1032410475+1032447186+1031863619
1103+1031370375+1031411658+1031340868+1030282551+1028988176+1029712630
1094+1033546023+1038684527+1042291420+1043714422+1044243615+1045113181
1085+1046736086+1048485470+1049341183+1049698665+1050929039+1052654526
1077+1053080305+1052150892+1051894400+1053370599+1055357219+1056267722
1068+1056041845+1056497824+1059727771+1065652306+1071385114+1073741823
1060+1072251979+1069101411+1066775733+1066267459+1066844584+1066875338
1051+1065304106+1062839965+1061696451+1062961181+1065141815+1067087015
1043+1069633513+1072647142+1073586944+1071028601+1066767975+1063117861
1034+1060932100+1060127644+1059830423+1058720642+1056928798+1055955332
1025+1056311221+1057564452+1059813661+1062507211+1063284515+1060852790
1017+1057460138+1056159598+1057378542+1059804587+1061968805+1062167530
1008+1059927534+1057635173+1058231485+1061435734+1063802556+1062958895
1000+1060462961+1058623392+1056763667+1052738823+1046928299+1042159329
991+1040271136+1041026413+1043970776+1049216158+1055744694+1060321589
983+1059426810+1052606040+1043690733+1037632583+1036458315+1038337088
974+1040033761+1040231308+1039454073+1037715564+1034383450+1029961711
965+1026045337+1023588261+1022476056+1022478688+1023422300+1024238808
957+1023039743+1018718994+1012294427+1006657553+1004403427+1005446158
948+1007382907+1008625264+1009619232+1009809298+1006401822+998996447+992244389
938+990562886+993018576+995174691+994544716+992515428+990784330+988539970
928+985147248+982933712+984342376+988217606+991306111+992348843+992293707
918+991398581+988985559+985390233+981919656+979376968+978065969+978106974
908+978594538+978094783+976947529+977109543+978848468+980103292+979638794
898+978091459+976264289+974725404+973915822+973170450+971415801+969464784
888+969014485+969423501+968274723+965077608+962053798+961219488+962521067
878+964675380+966622173+967837931+967790692+965991921+962932715+960402771
868+960196081+962336126+964773184+965249873+963725050+962445359+963201259
858+965032308+965410501+963578621+961335647+960226558+959729228+958950400
848+958816647+960855148+964015552+965007857+962812469+960616873+961448273
838+964101164+965285961+964017907+961439684+958498993+956420664+956685330
828+958350902+958357552+955560310+951753169+949099655+948941382+951938872
818+957218609+962312506+965346014+966768671+968272784+970609683+973185827
808+975655647+978313595+980359092+979661651+975284866+969381526+965216764
798+964083779+964783712+965145004+964198968+962949062+962679201+963365005
788+964321915+965142511+965717488+966861002+970007483+974859434+978433564
778+977998919+974337860+970308029+967292391+964813912+962816625+962795568
768+966114314+971630595+975679059+975370895+971818029+968454330+966823460
758+965941634+965122908+964941708+965430727+966014571+967037492+969431467
748+973193931+977169388+980375369+983185702+986586251+989943924+990664638
738+987431782+982347444+978199583+975336469+972779166+971065592+971774045
728+974546213+976787871+976863094+975616027+973990560+972072790+970724179
718+970998196+972372989+973470441+973663624+973062395+971901634+970808546
708+971085887+974108867+979384241+982706727+979390198+970917501+963662502
698+961285914+962277181+963540594+964195851+965093401+965791395+964915318
688+962906532+961022703+958383526+953240104+947138732+944212102+945838954
678+948951495+949989516+948373400+946181128+946226775+949657593+953467228
668+950739183+940842376+933157581+931289960+931921389+931525257+928759739
658+923616386+917230053+913160463+914976897+921946658+928586782+929741793
648+926352604+922920400+920436796+916568424+911385104+908742603+911813653
638+918891954+924025402+923171836+918910448+915004257+909316403+898755334
628+887189838+881512651+882556422+884200453+882296466+879755232+880534130
618+884327833+889138501+894291690+898067107+897006851+891315534+886693616
608+888584718+896097872+903279656+907024596+908933916+908547273+901942128
##END=
