##TITLE=<SNM>
##JCAMP-DX=4.24
##DATA TYPE=INFRARED SPECTRUM
##DATE=3/5/2025
##SAMPLING PROCEDURE=Instrument type and / or accessory
##ORIGIN=Admin
##XUNITS=1/CM
##YUNITS=ABSORBANCE
##RESOLUTION=4
##FIRSTX=4497.3318
##LASTX=599.83466
##DELTAX=-1.4281778
##MAXY=1.7139634
##MINY=0.17844963
##XFACTOR=1
##YFACTOR=1.5962528e-09
##NPOINTS=2730
##FIRSTY=0.19745968
##XYDATA=(X++(Y..Y))
4497+123702012+123419430+123925251+124509964+124398531+123691081+123070185
4487+122729511+122401802+122352774+123255757+124865416+125808185+125162076
4477+123582299+122455106+122506495+123468439+124502655+124791734+124184197
4467+123311301+122872869+123000723+123437782+123889115+124004488+123538508
4457+122781740+122380770+122504180+122619646+122381181+122238616+122682900
4447+123326097+123403504+122866858+122227637+121598835+120755270+120029458
4437+120162744+121041801+121541210+121003919+119992052+119330894+119332985
4427+119907093+120493579+120236071+119013529+117690738+116925513+116593370
4417+116467440+116552445+116835532+117293912+117841117+118126229+117921949
4407+117515696+117149816+116571909+115692693+115053678+115045211+115237355
4397+115067485+114766671+114962726+115596000+115881588+115389601+114649571
4387+114493367+115134576+116011495+116337617+115785400+114688975+113568876
4377+112690015+112202611+112273184+112774637+113243259+113419561+113505220
4367+113719311+113918550+113797548+113266839+112529218+111921784+111792838
4357+112345989+113440603+114638248+115535238+116018646+116248149+116416433
4347+116416984+115855543+114697059+113664187+113442918+113759265+113859449
4337+113580769+113282336+113040575+112633024+112195853+112292125+113215403
4327+114546279+115544816+115843510+115659600+115472366+115595748+115919162
4317+116008368+115575659+114755571+113828961+112973634+112443811+112599558
4307+113457163+114470366+115047143+115158203+115267395+115690331+116116814
4297+115868510+114731141+113367705+112684227+113040697+114260952+115933389
4287+117406335+118049457+117834545+117255377+116665092+116092263+115554552
4277+115147850+114940061+115016300+115503648+116400937+117468964+118381562
4267+118959311+119257632+119479219+119757890+119930683+119684059+119082282
4257+118601077+118496571+118608218+118831579+119296877+120090752+121071813
4247+121837608+121919468+121296322+120448780+119732574+119221188+119156449
4237+119790246+120829484+121670855+122031769+121961858+121579036+121099679
4227+120830828+120873658+120937696+120707372+120406772+120595416+121315590
4217+122040096+122615697+123425423+124383109+124680003+123912388+122694737
4207+121852918+121678492+122132354+123062026+123975605+124234495+123750947
4197+123093766+122803155+122948176+123314615+123706969+124053095+124329059
4187+124469935+124470570+124492097+124637416+124761797+124767491+124834704
4177+125098392+125404919+125628224+125950517+126603619+127471894+128075529
4167+127964367+127167020+126235639+125782691+125990630+126582158+127151598
4157+127422801+127317296+126990428+126737811+126693376+126732387+126788874
4147+127007754+127410031+127720236+127714765+127491797+127291895+127262452
4137+127447856+127806445+128172035+128334531+128269923+128250833+128571596
4127+129129031+129471293+129348471+128978559+128666898+128489297+128476686
4117+128698329+129020193+129189672+129252114+129474420+129858204+130154491
4107+130300641+130505649+131035667+132028491+133198999+133809654+133425963
4097+132499045+131740942+131343547+131211680+131329461+131530744+131575403
4087+131658579+132184424+133015219+133576678+133600903+133272251+132889494
4077+132748264+132980558+133268331+133151614+132677214+132259040+132006021
4067+131717810+131402237+131297871+131532611+132078714+132784484+133282203
4057+133274660+132987139+132903478+133096565+133265259+133365294+133716144
4047+134442872+135197165+135485797+135077938+134199683+133493260+133531506
4037+134195436+134885317+135435985+136243153+137349986+138059294+137720888
4027+136513908+135306012+134907740+135412246+136198120+136634890+136703438
4017+136832262+137195014+137375032+136870415+135820096+134938677+134726238
4007+135083660+135735847+136599790+137593455+138453039+138969596+139227067
3997+139413984+139485761+139229046+138695144+138285446+138255247+138444460
3987+138662453+138950002+139260944+139328045+139117314+139064963+139590249
3977+140570442+141467955+141824798+141523798+140773434+140035131+139793296
3967+140147563+140717993+141125553+141383248+141638152+141804690+141716773
3957+141452403+141280936+141408145+141931143+142891500+144108226+145044610
3947+145261679+144963068+144591354+144119960+143308667+142399111+141941823
3937+142213446+143295075+145217953+147451934+148713337+148216487+146866586
3927+146225163+146695950+147320804+147284191+147112930+147808478+149283702
3917+150193910+149336763+147059720+144955712+144331045+145268531+147221581
3907+150171656+154344169+158806566+161626229+161979002+160496105+157690631
3897+154138060+151376395+150952629+152716391+154355465+153942639+153081925
3887+154298045+156864737+158077850+157970683+158437811+158668313+156834715
3878+154474637+154420400+157108775+161182663+165270069+167623370+166756439
3868+164313839+163177348+163278297+162356476+159816492+157524709+157309759
3858+160192957+166962651+176558992+182228770+177674535+168307632+161022305
3848+157748695+158044430+160616994+164073516+167842987+172003263+175592885
3838+176313049+173675289+170123139+167511293+165663991+164167483+163454208
3828+163747329+164845192+167577554+173105158+179403841+181522869+179167290
3818+176670098+174868108+171567725+167250340+164772415+165835234+170150248
3808+175360422+178680876+180713199+183688329+186261584+185238626+182006221
3798+179856985+178486426+176346730+174103565+173261465+173990927+175850048
3788+178760448+182238684+185060625+186965748+189311469+192793943+196071399
3778+197945231+199380912+202092008+207019572+214073483+221812066+228322207
3768+233428668+238148153+242765493+247816672+254852771+264269299+273990674
3758+282225473+290493897+301857631+317840721+336642859+352704177+362538768
3748+370044478+379711559+390507627+397379185+400062949+403840037+412539780
3738+427307853+446220481+463530946+473792747+477461997+478897062+481127551
3728+484627947+488358174+490939438+491909391+491944416+492340635+494753083
3718+500197083+508040499+517010175+526538611+535825195+543109028+547868430
3708+551425248+555835405+563112331+573070331+581785981+585369646+585076076
3698+584813798+586683803+590974396+597777585+606831612+615517987+619026375
3688+615992433+610557134+606379645+604512216+605007685+607469498+611812069
3678+618292749+624447559+625446302+622193957+619738082+618848485+616784086
3668+613606422+611567564+610842713+610748989+612277367+617514426+626634920
3658+636270897+641859926+643376169+645674244+652088122+660537572+664163021
3648+660139523+654150280+651414128+652032410+653408626+653870451+654006669
3638+654884018+656558882+659026482+663591788+671848189+682198562+687662352
3628+683570073+676483023+674141857+677768875+684283722+689389791+690990348
3618+691590856+695085539+701695006+707837196+710018843+708304473+705303877
3608+703307512+703637601+706607727+710777450+713164170+712178161+710430184
3598+711693558+715511759+717574962+715962606+713946526+714837989+717313057
3588+717378104+714494607+712076969+711858005+712910107+714255704+715370463
3578+715501975+714578324+713688130+713395830+713292845+714004553+717079307
3568+721667988+724274345+723934772+723274818+723371380+722464906+719604261
3558+716178060+713515991+711867489+711547707+712717580+714646807+716621738
3548+719030191+722543097+726237477+727561267+725052742+720554275+717779961
3538+718704434+721536550+722619719+720796240+718368370+717149581+716145648
3528+714351370+713252891+714401854+717150477+720240168+723437174+726237327
3518+726921104+724351341+719486789+714346366+710552138+709047471+710303675
3508+714061385+718627214+721310118+720222842+715932286+711458986+710369917
3498+714049958+719926733+723498786+723357639+721906668+721219754+721359407
3488+721930267+722513747+722106887+720378924+718837291+719407478+722227347
3478+725462515+726767635+724863576+721359930+720413800+724612200+731184775
3468+733720409+729547923+722851379+718682552+717905425+718673292+719830469
3458+721335211+723113433+724646404+725096057+723830144+721476880+719870274
3448+719943237+720833581+721689272+722780283+724024239+724193764+722844807
3438+721442826+721118263+720619471+718049708+713919192+711020087+711483855
3428+714670256+718183237+720788996+722825614+723730445+722048710+718267477
3418+714994147+714083639+715496225+718231406+720648372+721328191+721117517
3408+722101659+723998624+724186072+721447456+717712524+715877395+716956308
3398+718977989+718786060+715903085+713222272+713137061+714963453+716718225
3388+717717976+718506828+719506131+720969499+723307827+726190054+728383875
3378+729393259+729641498+728895811+726682350+723927976+722218011+721802040
3368+721938855+722666992+724568363+726959938+727958419+726969796+725808062
3358+725948313+726878536+727945350+728999244+729483324+728862279+727673811
3348+726786977+726105740+725096131+723720438+721949908+719670503+718028797
3338+719043185+722750485+726403118+727854762+727977761+728296050+728365727
3328+727244173+725913288+726039498+727063744+726688324+723934174+720334041
3318+717789072+716584995+716362671+717330010+719265136+720532617+719821657
3308+718117593+717449499+718534759+720574513+722520095+723909754+724812793
3298+725250347+725151096+725259906+726597064+728107482+727221096+723939626
3288+721699951+722901863+725829496+727305784+726757852+725685885+724583523
3278+722775802+720439864+718889268+719262000+721664777+724854390+726810427
3268+726922373+726862703+727475011+726678242+722940921+718736322+718041568
3258+721842592+727132002+729656509+727941392+724530649+722827705+723607521
3248+725323086+726752101+727670973+727733630+726614315+725003303+724155677
3238+724557086+725575357+726202003+725799325+724210866+722114504+721177112
3228+722439066+725037283+727399434+728969969+729840821+729728650+728560420
3218+727037904+725568188+723782647+721873584+720881376+720956580+720743142
3208+719081272+716203899+713042217+710710088+710352965+711823353+713113910
3198+712609218+711117247+710348857+710643995+711567497+713510614+716758478
3188+719213756+717814165+713040649+709095117+708740384+710383658+710836597
3178+709231858+706824675+704336463+701695230+699708126+699739641+701539595
3168+703159345+703473751+703213937+703106546+702793783+701874613+700439847
3158+698591276+696597376+695174708+694677036+694382047+693215833+691191687
3148+689749080+690171997+691801082+692664167+692040135+691211627+691450082
3138+692743254+694606388+696633745+698041551+697733344+695284115+691659338
3128+688515056+686520409+684901331+682865386+680885376+680071580+680601664
3118+681293207+680886048+679471521+678070511+677162020+676564724+676327762
3108+676580929+676997722+677451258+678325023+679262788+678866234+676560392
3098+673534703+671301899+670513047+671040666+671873356+671375161+669051695
3088+666616432+665977762+666860787+667652253+667745679+667707741+667832234
3078+667865168+667715657+667281986+665971713+663555046+661249503+660731443
3068+662087644+663715236+664258239+663683870+662314300+660082467+657227723
3058+654753028+653619898+653759924+654146546+653959172+653457915+653321548
3048+653375169+652730749+651073883+648959224+647041573+645819871+645663564
3038+646240921+646416719+645464241+644016257+643157653+642866174+642141697
3028+640700658+639465588+638992337+638694062+638266589+638446047+639335345
3018+639359840+637221433+633998960+631850994+631310604+631032195+629727299
3008+627517347+625609852+625237681+626695038+628899836+630112502+629420436
2998+627359323+625080441+623313719+622104041+621078862+620006521+619199783
2988+619050496+619244181+618985225+617908367+616303777+614690039+613580284
2978+613253556+613305048+612815927+611339975+609434982+608059625+607621548
2968+607705750+607550638+606616495+604941966+603146904+601906793+601336456
2958+601046210+600793266+600803236+601357703+602186584+602449796+601573605
2948+599995788+598621402+597614930+596355066+594613176+593019789+592161670
2938+591817877+591235928+589844626+587814021+586010407+585193475+585255534
2928+585341156+584730940+583574471+582581330+581958082+581147983+579828562
2918+578518886+577760429+577263914+576317710+574753522+573188924+572221062
2908+571534560+570296988+568474032+567051514+566713136+566960628+566852901
2898+566041570+564796792+563424683+562017661+560670533+559609768+559010642
2888+558846307+558937268+558976289+558564948+557471958+555838280+554135672
2878+552922522+552396209+552177507+551776322+551098296+550287002+549473878
2868+548751044+547909355+546401925+544079392+541577402+539600603+538405451
2858+538090709+538565529+539156328+539026570+538069836+536847424+535761866
2848+534822308+534108584+533820167+533679767+532899242+531109033+528838516
2838+526824639+525383488+524546728+524119293+523498173+522217698+520770722
2828+520106549+520304117+520503514+520180707+519660444+519210082+518468838
2818+517112114+515498152+514264165+513559702+512943698+511974492+510748907
2808+509726565+509136662+508802802+508420661+507714928+506509470+504975715
2798+503585608+502578650+501770493+500927161+499945633+498732781+497343906
2788+496089905+495104344+494126960+493048981+492145756+491435579+490460436
2778+489038590+487594004+486478199+485542487+484551960+483512927+482508023
2768+481630973+481071129+480862695+480584398+479712911+478306151+476982921
2758+476138917+475474856+474434292+472872718+471164285+469834259+469100559
2748+468600310+467720198+466415675+465328735+464781736+464182909+462875324
2738+461077199+459487396+458406094+457662349+457065314+456570592+456101746
2728+455400495+454196455+452594815+451067968+449859970+448648201+447067322
2718+445315238+443892795+442911341+442014687+440950338+439903165+439163228
2708+438702523+438228375+437505989+436556050+435681016+435251303+435280056
2698+435334834+435041227+434424961+433573751+432316464+430526516+428488219
2688+426719854+425576866+425076580+424931400+424737193+424261029+423523333
2678+422578883+421390079+420014273+418737121+417824822+417196757+416527916
2668+415720954+415047931+414686477+414399068+413867155+413081028+412195950
2658+411238693+410174642+409147035+408444439+408148890+407929852+407374190
2648+406467790+405508031+404641847+403800270+402960261+402188735+401519558
2638+400918080+400304354+399663332+399154234+398888333+398623478+398032791
2628+397192185+396389741+395604212+394637059+393630251+393009430+392906782
2618+392882847+392322555+391097380+389715078+388721899+388164221+387809786
2608+387595116+387528427+387385973+386864440+385975889+385081812+384514724
2598+384258158+384076722+383870939+383681287+383409748+382888962+382227627
2588+381736303+381484405+381220110+380741406+380101617+379434569+378812292
2578+378339301+378154429+378208872+378238109+378067613+377757912+377383463
2568+376877576+376165383+375338519+374642830+374287537+374250794+374306879
2558+374243401+374006065+373686507+373454063+373444653+373623028+373756632
2548+373611714+373227407+372900866+372815767+372840524+372786753+372622605
2538+372325712+371836180+371284738+371010622+371209758+371658477+371872512
2528+371581108+370990869+370488231+370196752+369991903+369806172+369678094
2518+369579068+369407302+369135427+368849811+368662101+368600078+368523867
2508+368182389+367508396+366816890+366493522+366540347+366677722+366771148
2498+366851280+366849114+366607858+366087745+365413639+364781878+364334354
2488+364072336+363940263+363959382+364154560+364395592+364458548+364259785
2478+363940973+363682018+363508460+363351593+363187034+363006941+362782152
2468+362547767+362402774+362394709+362489927+362587273+362518268+362180637
2458+361683375+361221699+360876338+360636165+360485534+360368098+360172846
2448+359848993+359494185+359247813+359101663+358944871+358788079+358711942
2438+358607165+358278383+357783773+357353836+357049250+356774537+356492916
2428+356217681+355948382+355732443+355629346+355587786+355522254+355462771
2418+355459560+355427858+355278608+355120210+355141644+355358890+355622401
2408+355808393+355908316+356000024+356163575+356341501+356358417+356194679
2398+356045392+355952938+355681324+355161770+354737920+354725411+354986905
2388+355108336+354769062+353831632+352239701+349947750+346938341+343297358
2378+339259484+335151933+331231084+327489394+323680491+319708486+315930015
2368+312832745+310506142+308683746+307224728+306386549+306734542+308832846
2358+312842883+318338169+324774563+332207086+340798840+349436112+355902043
2348+358545478+357478291+354629782+352177790+350433398+348207353+344753072
2338+340360427+335773165+331588020+328032696+325190759+323212131+322063504
2328+321384358+320908605+320727429+320972457+321585062+322537689+323935526
2318+325692277+327369718+328585259+329449240+330396714+331680288+333216135
2308+334803660+336264302+337445564+338284042+338838733+339206685+339492899
2298+339859320+340445601+341204581+341916176+342400966+342671608+342860513
2288+343053824+343240899+343372450+343392651+343266664+343053862+342885009
2278+342817385+342800955+342781352+342707754+342488865+342100861+341685711
2268+341405434+341261823+341149093+341012502+340896560+340887673+341040022
2258+341312233+341551136+341586759+341407152+341211115+341201817+341362008
2248+341546432+341715658+341902584+342030213+341980775+341809196+341711252
2238+341807030+342063595+342383976+342703310+343034818+343433426+343872288
2228+344200547+344309431+344302486+344392476+344643478+344922186+345097275
2218+345194734+345333938+345565822+345825375+346064876+346378721+346887148
2208+347518274+348046267+348351823+348524149+348731388+349120250+349785954
2198+350684102+351594011+352282082+352688196+352924971+353182694+353641308
2188+354337706+355090263+355678001+356093636+356511027+357038646+357616152
2178+358138095+358608136+359141767+359806761+360531350+361243282+361992777
2168+362833943+363736012+364734530+365997754+367612164+369457375+371441455
2158+373738671+376609958+380043963+383775908+387610538+391471082+395190144
2148+398565638+401605964+404511641+407475345+410525828+413455739+416057428
2138+418564683+421552397+425251967+429293389+433206882+436880837+440482239
2128+444141855+447797065+451326177+454755365+458140642+461249824+463581692
2118+464701603+464462476+463050040+460904537+458464905+455986215+453670591
2108+451819965+450726490+450535084+451284542+452893165+454946399+456596693
2098+456855125+455094341+451324310+446016229+439722811+432914955+426023270
2088+419343454+412892198+406581305+400529330+395021889+390235789+386179656
2078+382822048+380116553+377934756+376082712+374415838+372942351+371800931
2068+371083249+370653798+370205191+369556813+368837040+368254045+367794908
2058+367322179+366838659+366428774+366050068+365602059+365135080+364871233
2048+365057636+365787827+366934885+368345790+370095373+372431423+375560731
2038+379651217+384898620+391362534+398775976+406613940+414271439+421132094
2028+426592150+430119656+431348900+430285410+427509005+423923061+420073607
2018+415859113+411047286+405872398+400906019+396492912+392538830+388782652
2008+385109481+381577196+378266189+375207790+372414881+369890524+367609513
1998+365601424+364099221+363387141+363281094+362971244+361770005+359862174
1988+357929699+356375705+355258967+354571643+354230576+354012210+353698476
1978+353222910+352666613+352155386+351752820+351525193+351680268+352334732
1968+353052563+353039867+352084402+350882752+350168543+349957234+349836550
1958+349611052+349367518+349145828+348868688+348533671+348268591+348183418
1948+348328112+348837546+349818141+350854224+351035325+349997749+348492783
1938+347433288+346992784+346862428+346829420+346884534+347021946+347128478
1928+347182435+347507782+348406191+349517141+350208423+350560468+350984841
1918+351124680+350357784+349109123+348400067+348525232+348937096+348997326
1908+348529787+347843061+347346322+347138934+347032327+346921015+346983150
1898+347451360+348192940+348722090+348906290+349255422+349960744+350241954
1888+349428980+348066132+347101444+346806605+346948498+347294046+347677942
1878+347952132+348022967+347985850+348380052+350017240+352997187+355806713
1868+356220295+353935214+350953400+349016220+348311309+348262206+348427288
1858+348561116+348499990+348309068+348258248+348574596+349319909+350536010
1848+352502577+355414116+358242424+358719335+356226344+353067910+351364107
1838+351176882+351459399+351771490+352950512+355839311+359499375+361616274
1828+361488944+360600355+359682380+358156877+356238554+355130927+355268489
1818+355897786+356298373+356740483+357950497+359885736+361470946+361795097
1808+361232117+360964797+361934004+364356347+367517469+369946235+370594987
1798+370105492+370327891+372644897+376627321+379608425+379047088+376176100
1788+374283990+374811646+376943183+379420342+381777041+383784757+385067137
1778+385983507+387911539+392083763+398080064+403096106+404346709+402570913
1768+400175268+398600738+398868767+401489313+405145867+407570712+408581814
1758+409590601+410839935+412142703+414627442+419362012+425114443+428924317
1748+429550440+428522460+427768969+428295692+430199452+432620227+434401437
1738+436110542+440002976+446613040+452040983+452171936+449181347+446553893
1728+445200379+445355566+447144132+450038233+453897695+459915914+469028678
1718+479089925+484722306+483706537+479821497+476957492+476657537+479325617
1708+484696915+491273335+497037081+502255246+509334977+518567529+526059908
1698+529191084+529408852+527379591+524252747+523333764+526336451+532236115
1688+539919341+550119381+562497970+571326425+572132155+569785911+569791848
1678+573631743+580337660+587425830+593210187+599039203+606224346+612476615
1668+614929466+615766450+618971260+624895867+630483739+633602705+636127958
1658+641314160+651234820+666496868+683144318+690383418+688242770+687819181
1648+691907203+695767374+695133410+692641538+692331688+695032441+700510197
1638+708657787+717080053+719520918+714047046+707361629+704456400+705084689
1628+706826691+708190809+709147543+708924472+706426253+703473826+703315055
1618+705998781+707104055+702884446+696032192+690590806+687230846+684436294
1608+680939296+677240136+674714434+673785406+673719837+673793472+673993243
1598+674604206+675554816+676308270+676263163+675104566+672841517+669884758
1588+667095509+665319676+664732462+664782572+664924391+665537520+667817970
1578+672118234+676008875+676058837+673922520+674230279+678007630+682227015
1568+684108222+685079967+687945466+693986986+704065596+719260879+737042879
1558+747416851+748101673+748579181+753151657+760823457+769656019+778311961
1548+786705027+796057218+807227734+819346770+830575761+837566846+835543746
1538+827658061+822866098+823671903+826550396+827575090+827673893+830067932
1528+834861388+839678518+843629351+848037978+852894464+856294378+858102473
1518+859713186+860777610+860536392+860219820+861903721+866927940+875751690
1508+886438200+891721711+886317516+877504745+872660133+872794483+876215084
1498+879819473+880340894+877911904+876301489+878293971+883263374+887625325
1488+887875057+884487988+880657017+878568945+878372161+879403726+881665879
1478+885664359+891217766+897186771+901720188+902586410+899548100+895654024
1468+893721063+894033901+895104449+895598237+896365432+899661241+906246138
1458+912771888+912604603+905550338+898663134+895398467+895185178+896476333
1448+897519025+897109028+895666944+894431874+893982595+894664430+897244723
1438+901520343+904518549+903292890+899952645+898413849+899307329+900390573
1428+900186172+899833231+900614765+902273199+904544389+907689418+910258060
1418+909475033+905871614+902639508+900912815+899754144+898447755+897318582
1408+896905971+896867959+896045650+894152195+892575984+892345370+892725719
1398+892750214+892590173+892258441+890916205+888618728+886555823+884994249
1388+882720744+878984916+875351625+874327155+876743151+881363348+886402130
1378+891019339+895230883+898833032+901359929+903182437+905294482+907676572
1368+909426192+910634974+912528578+915412971+917929562+918805043+918055623
1358+916183452+913844676+912302744+912850601+915520885+918988086+922028113
1348+924658592+927321183+929546668+930529765+930587419+930759782+931250061
1338+931437509+931297931+931651768+933093778+935436587+938051905+940259915
1328+941470638+941598193+941393344+941865998+943296432+945018121+946187547
1318+946572302+946553856+946607103+946985211+947733512+948674489+949462968
1308+949928229+950133227+949870052+948787257+947320304+946575364+947011574
1298+948072413+948994346+949006743+947349877+944358616+941692141+940450127
1288+939965075+938932465+936789502+933785770+930726922+928572011+927370697
1278+925905312+923095600+919327360+915858292+913399729+911542643+909288705
1268+906221494+903101408+900996756+899945850+898842143+896667740+893451242
1258+889898979+886613476+884016006+882486770+881906052+881342064+879932316
1248+877872174+875957286+874638649+874013720+874085563+874574498+875079115
1238+875699787+876891840+878573127+880013569+880760973+881149014+881774092
1228+882913868+884409350+885679967+886167931+886233874+887004131+889053668
1218+891922005+894907217+897537621+899398515+900328289+900740975+901549020
1208+903814385+907842812+912262192+914943677+915301473+914767058+914978553
1198+916450510+918839173+921830583+925563349+930043519+934286056+936819748
1188+937402780+937416522+938267882+940203157+942740061+945541783+948622511
1178+951825343+954351418+955187692+954492714+954048662+955329137+957681729
1168+959505656+960515489+961474538+962568835+963663579+965615061+969521459
1158+974564797+978280386+979564446+979695735+979944795+980306100+980609603
1148+980925203+981037449+981065827+982116211+984993136+988966523+992633645
1138+995277491+997100671+998633568+1000239875+1002115182+1004433122+1007279652
1128+1010339769+1012804008+1013883070+1013755739+1013611232+1014044305
1120+1014327793+1014280296+1015273699+1018250696+1022335656+1026084329
1111+1028553049+1029032350+1027861879+1026834497+1027106857+1028022966
1103+1028651926+1028839524+1028439535+1027219849+1026095307+1026959363
1094+1030333960+1034045815+1035489020+1034839895+1034364926+1035114048
1085+1036281756+1037288452+1038489392+1040087261+1042069884+1044607460
1077+1047145334+1048585925+1049325189+1050577286+1051400716+1049878499
1068+1047498051+1048250907+1052821964+1057222376+1058218915+1057478904
1060+1058628315+1062363246+1065772943+1065939033+1063450971+1061089268
1051+1060067711+1059307984+1057689503+1056039807+1056332107+1059343831
1043+1064138183+1069151872+1072777695+1073741823+1072108481+1069470609
1034+1067422043+1066274200+1065172585+1063559855+1062440914+1063213486
1025+1065864651+1068649121+1069345370+1067339297+1064512109+1063223269
1017+1063417813+1063126856+1061696796+1060162854+1058821140+1056998856
1008+1054940208+1053849123+1054116480+1054684800+1054252697+1052485229
1000+1049809120+1046941605+1044833668+1044164155+1044297012+1043580899
991+1041551077+1039554040+1038305528+1036734993+1034390616+1032574307
983+1031946914+1031466941+1030110142+1028351187+1027371675+1026948310
974+1024897354+1019664701+1012842319+1007278233+1003493340+999768490+995152252
964+990550352+987016834+984419215+981887240+978889557+975584562+972353128
954+969483447+967303069+965942610+964890285+963365006+961009800+957943784
944+954798979+952841075+953034722+954761415+956182962+956195135+955527265
934+955467073+955793876+955137283+953524702+952576332+952676404+952110175
924+949955711+947915061+948084063+950191478+951931315+951569487+949533915
914+947552038+946857134+947368174+948074205+948050606+947301783+946410991
904+945577405+944512832+942937144+940704265+937986261+935867345+935800132
894+937630706+938977871+937641759+934209657+931126838+929772354+929685201
884+930002445+930242021+930161141+930029405+930282124+930386453+929557497
874+928636311+929279834+931775141+934761846+936294892+935347642+932996843
864+931377242+931363650+932113893+932487221+931921739+930579876+929425462
854+929271993+929684977+929839566+929900655+930480476+931345503+931481048
844+930151358+927648061+925170902+923945167+924263680+925435570+926676689
834+927745594+928540122+928733993+928475971+928644526+929482070+929860552
824+929074164+928095996+928092336+929472884+932602454+937600012+943072166
814+946479996+946596872+944818351+943198302+941968609+940083146+937680891
804+936426629+937221231+938969955+940063505+940065969+939607355+939483161
794+940193449+941572802+942619975+942585248+942102437+942280849+943374548
784+944898632+946077766+945981428+944286325+942258445+941404994+941317468
774+940605911+939269798+938625303+939391826+940906351+941888477+941567649
764+940083818+937959898+935827465+934730032+935768468+938462724+940542507
754+940715094+940391876+941506859+944080655+946553631+947494982+946571256
744+944393343+941848971+939706232+938870779+940329293+944133603+948823626
734+952727934+955491867+957468590+958339442+957468889+954991805+951584647
724+947859498+944183116+940697693+937951683+937110928+938982352+942983968
714+947266160+950082743+951130887+951132903+950225682+947668540+943271638
704+938062734+933662546+931483513+931247522+930264649+926157733+920189848
694+915325072+912279369+910068073+908730915+908758098+909338816+909221940
684+907939449+905593354+902961531+901456043+901395925+900920358+898070617
674+893585443+888943813+882993478+874977774+870970631+877351649+885457419
664+885097756+879447937+876933288+879740088+882841204+882317767+879187525
654+875601880+872126240+868844546+866553640+865560462+864401268+861765786
644+858588868+855967799+853476824+851616752+852657502+857007056+861272445
634+861615976+858048553+853307897+848917268+845211910+842954462+842034694
624+840324581+835751209+829373028+824373752+822316822+822324215+822508900
614+822270520+823541660+828428093+835071390+839207656+839132677+835434488
604+828974905+822371189+818193401+816021238
##END=
