##TITLE=<SNM>
##JCAMP-DX=4.24
##DATA TYPE=INFRARED SPECTRUM
##DATE=3/5/2025
##SAMPLING PROCEDURE=Instrument type and / or accessory
##ORIGIN=Admin
##XUNITS=1/CM
##YUNITS=ABSORBANCE
##RESOLUTION=4
##FIRSTX=4497.3318
##LASTX=599.83466
##DELTAX=-1.4281778
##MAXY=1.7108697
##MINY=0.17551665
##XFACTOR=1
##YFACTOR=1.5933715e-09
##NPOINTS=2730
##FIRSTY=0.19708061
##XYDATA=(X++(Y..Y))
4497+123687794+123540725+123697614+124475483+125340231+125319488+124252476
4487+123005344+122460676+122881327+124063070+125505031+126521534+126610967
4477+125822933+124798041+124330882+124688848+125467165+126193626+126708826
4467+126906424+126684446+126280805+126161521+126429548+126626136+126201781
4457+125139313+124071749+123647001+123768137+123721910+123114837+122361161
4447+122042016+122101298+121984230+121358238+120478442+119935990+120066927
4437+120562628+120782605+120464591+119918839+119578249+119626215+119980795
4427+120363104+120415868+119979486+119291275+118768313+118544473+118400051
4417+118175987+117927215+117630169+117147083+116484010+115721600+114865259
4407+114020505+113398103+113116703+113327216+114238883+115583163+116519707
4397+116549904+116051566+115677814+115719197+116072710+116431910+116560444
4387+116516920+116459199+116311419+115890235+115217791+114416037+113389313
4377+112005352+110662727+110154251+110711058+111696644+112479740+113045609
4367+113543283+113822580+113633062+112937360+111975211+111131635+110618380
4357+110373415+110410682+110858399+111484896+111841646+112050859+112688822
4347+113748568+114525521+114664098+114501608+114281275+113820410+113085336
4337+112446831+112260736+112566180+113081156+113302564+112950808+112415314
4327+112345221+112827203+113393081+113729678+113917615+114089307+114196116
4317+114047485+113560800+113071654+113165520+113988241+114968206+115424095
4307+115216743+114696933+114337340+114506807+115278317+116288573+116941770
4297+116877728+116230338+115455191+114988621+114985572+115253497+115535300
4287+115854651+116346901+116841564+117019401+116880973+116631855+116318592
4277+116017150+116078920+116736055+117663116+118257863+118221409+117751969
4267+117327473+117325201+117712026+118141431+118435074+118785997+119316871
4257+119706025+119631209+119368700+119477370+120038731+120633226+120915824
4247+120847293+120528540+120172595+120076008+120335085+120702655+120883513
4237+120872047+120890330+121004191+120879192+120104307+118863076+118025626
4227+118330276+119587639+120848508+121325169+121098543+120901310+121174808
4217+121547072+121485892+121081139+120774890+120733470+120893183+121199619
4207+121522832+121787353+122235359+123030267+123717281+123653164+122887659
4197+122167697+122046795+122316655+122446367+122351015+122377125+122588517
4187+122637914+122475826+122563781+123116903+123726315+124072310+124432295
4177+125096407+125841160+126351562+126662749+126915093+127119368+127287564
4167+127433146+127458349+127299871+127080258+126982493+127114627+127502257
4157+128007385+128266780+127977608+127344349+127001365+127316358+127991383
4147+128490395+128550397+128177768+127570292+127112813+127083242+127387817
4137+127802866+128237340+128564771+128542616+128160551+127848074+128078647
4127+128779203+129300781+129070395+128173709+127254729+126983999+127588482
4117+128695119+129686250+130291154+130642657+130788651+130570516+130033535
4107+129540948+129389924+129624789+130222249+131077720+131791481+131926308
4097+131581969+131271381+131153565+130941284+130617594+130564531+130857219
4087+131094563+131111593+131263020+131750202+132141712+131901114+131173045
4077+130708673+131026715+131904930+132718224+133022528+132753471+132132585
4067+131522977+131220553+131264965+131474973+131630627+131622304+131543224
4057+131631731+131989584+132399209+132552488+132391419+132107363+131928029
4047+132027347+132456724+133002309+133309876+133320528+133388068+133796375
4037+134349198+134653950+134662124+134683606+134931526+135255048+135339674
4027+135076529+134710296+134595753+134806107+135075275+135148165+135071039
4017+135052531+135120193+135057198+134697989+134203569+133991775+134394387
4007+135317978+136254231+136798600+137093795+137486306+137896979+137964912
3997+137698549+137478582+137468360+137500297+137549806+137847751+138441068
3987+139027614+139334826+139386159+139323772+139187542+138977590+138818420
3977+138879843+139102299+139181800+138955978+138627883+138471630+138530229
3967+138774026+139333526+140327659+141551504+142487244+142666923+142043549
3957+140980707+139950962+139356223+139499561+140455491+141878964+143133212
3947+143812165+144028598+143998503+143651433+142955123+142234217+141792795
3937+141638553+141811358+142486935+143520309+144327206+144564007+144603276
3927+145004607+145743225+146134240+145690069+144942472+144855331+145543215
3917+146079569+145645768+144446406+143286276+142757665+142969123+143794013
3907+145223237+147234584+149326208+150728601+151263262+151184173+150396073
3897+148901329+147542675+147364501+148425772+149519008+149625648+149602166
3887+150728030+152375052+152906805+152526264+152559389+152634065+151606087
3878+150175759+149936854+151302513+153642413+156064049+157369135+156792838
3868+155491615+155078314+155359013+154992528+153650773+152438347+152445594
3858+154152048+157749536+162581698+165508527+163744316+159702040+156469672
3848+154855690+154622069+155404426+156896879+158915745+161310653+163476083
3838+164424541+164104385+163520860+163014021+162094311+160818141+159989725
3828+159970815+160603139+162283445+165468202+168718292+169459996+168253817
3818+167771928+167911310+166636637+164126662+162535424+163228798+165997430
3808+169122353+170780270+171596828+173330065+175459771+175934626+174939857
3798+173987191+173038415+171708079+170929359+171755493+173958387+176594445
3788+179052778+181090049+182550901+183804738+185802450+188911998+192207015
3778+194740538+196961574+200017499+204552998+210332047+216330680+221622679
3768+226463688+231633980+237359892+243863176+251792112+261194245+270863788
3758+279758764+288648053+299256758+312473204+327163595+339986192+348843928
3748+356277022+365850558+377923538+388955532+396767457+403757866+412572134
3738+424013558+437645810+451776561+463552859+471171011+475606949+479197731
3728+483246909+486942994+488550859+488036838+487179374+487322534+488727200
3718+491531107+496166766+503103533+512273288+522066857+529677639+534184390
3708+537440409+541923444+549378459+559585310+569580171+575976768+578709339
3698+580257164+582558272+586061295+590393838+595388874+601103451+606462503
3688+609171881+608510023+606541172+605737726+606498041+607451568+608241210
3678+610027287+612573753+613872442+614252806+615660240+617480133+617451815
3668+615011587+611786654+609476306+608851370+610105582+613623905+619401476
3658+625311172+628457474+629971221+633970123+641781486+650528195+654833543
3648+652820999+648523881+645734675+645449478+646456573+647086746+647426260
3638+648863844+651525863+654234792+656731618+659709734+663091705+666244217
3628+669412290+672810795+675598206+677393035+678683532+679808163+680861269
3618+683145993+688256806+695098108+700279697+702144555+702724751+703941405
3608+704782708+704069340+702648215+702159967+703412981+705777533+708350896
3598+711048527+713784240+715122768+713489241+709634734+706025622+704724127
3588+705985371+707540865+707020746+705506625+706485589+711490613+718281714
3578+723242148+724281862+721795361+718066768+715495276+714789015+715086483
3568+715620967+716271490+716613472+716110636+715121422+714174554+712916676
3558+711338663+710860814+712334086+714219368+714575042+713895416+714424438
3548+717446396+721815860+725079323+726147917+726046467+726465510+727993996
3538+729233393+728188741+724899541+721620666+719982052+719554405+719639021
3528+720292537+720916126+720251538+718082480+715188232+712582998+711761297
3518+713668275+716996080+719448466+720319845+720045420+719023437+718406133
3508+719189902+720132282+719462082+718149215+718788591+721743065+724563394
3498+724870962+722772230+720697140+720810711+722493541+723083389+721492881
3488+720097193+721937885+726658534+730563617+731017450+729338360+728146021
3478+727753762+726698710+724338573+721716730+720515189+721993772+725599069
3468+728401218+727671989+723913021+720109089+718551948+719155936+720427654
3458+721552584+722885277+724221860+724131408+721834714+718450349+716075697
3448+716535065+720236799+725066530+727675954+726936849+724945328+724281414
3438+725469039+726976277+726458178+723265416+719547447+717423877+716935853
3428+717196511+717730471+718057491+717707279+717527796+719737030+724520151
3418+727892022+725916661+720204554+715940579+715650594+717780149+719987438
3408+721444849+722353038+723276189+724990143+727730943+730695368+732420245
3398+731769049+729089747+726042127+723694334+721488467+718842608+716679086
3388+715754812+714962663+713260006+711794365+712046494+713092045+713055534
3378+712290169+712428204+713730747+715594257+718219467+721930777+725508242
3368+726870113+725397590+723102916+723074635+726229017+730149288+731322473
3358+728467579+723660592+720235452+720255877+723400308+726873031+727245464
3348+723984245+720035545+717737654+716508880+715426595+715252424+716793554
3338+719389885+721728251+722876449+722389922+720366530+717714087+715967438
3328+716225852+717904418+719068102+718670531+717818305+718174129+720198269
3318+723373375+726825149+729600963+731468663+733182842+734922907+735205261
3308+732588057+727821396+723294519+720952262+721112518+722617362+723946389
3298+724391916+724204802+723967412+723868879+723558544+722984258+722817344
3288+723629544+725292623+727050045+727617149+725852769+722644220+721398164
3278+724655642+730927446+736314480+738792751+738877293+736809386+732308620
3268+726690705+722284282+719814913+718304907+717278360+717332302+718485587
3258+719689372+720713525+723062366+727262971+730578057+730066990+726843554
3248+724389672+724028312+724708237+725874914+727646850+729061093+728772154
3238+726806670+724150710+721702365+720286701+720457805+721906387+723594829
3228+724254704+722963908+720038089+717243421+716631054+718643822+721513829
3218+723180874+723414897+723278059+723014484+721805012+719637001+717980206
3208+718155201+719863169+721595304+722089013+721129650+719188780+716916850
3198+714933335+713426546+712254856+711746708+712340969+713140450+712433067
3188+710299996+708892636+709247039+709790725+708867424+706948325+705419240
3178+704761610+704792958+705415724+706126623+705463456+702515043+698704377
3168+696334214+695755664+695491714+694879796+694992842+696829868+699932253
3158+702873859+704173633+703015261+699992405+696580507+693416923+690398033
3148+688372621+688670088+690591282+691417847+689922429+687968766+687472288
3138+687863799+687620349+686536942+685292606+684060391+682702784+681483138
3128+680745380+680509934+680567767+680521531+680056925+679511144+679647234
3118+680532080+681276871+681042997+679708583+677730230+675958892+675386327
3108+676320103+677676512+677654891+675481867+672313420+670134486+669737963
3098+669991962+669466830+668515623+668652910+670039171+671131556+670989406
3088+670338583+669921860+669370991+668154786+666635129+665655491+665286650
3078+664587497+663073824+661614169+661089711+660973372+660084037+658399187
3068+657250989+657556088+658559068+658903819+658444450+657931214+657453067
3058+656555128+655422866+654666255+654442556+654505101+654203744+652431059
3048+648861076+645187323+643764328+644897936+646411085+646225916+644669823
3038+643448456+643204033+643316780+643375061+643374762+642954672+641819043
3028+640501912+639662255+639162860+638618126+638092995+637520430+636298988
3018+634180056+631820891+629944587+628582416+627473796+626671398+626441863
3008+626851965+627592753+628158061+628233102+627824233+626976683+625676834
2998+624087112+622561282+621441328+620868089+620471790+619422686+617420280
2988+615376800+614402325+614408048+614297396+613250125+611397650+609498340
2978+608214613+607617322+607300365+607017262+606990441+607343234+607535848
2968+606866321+605519526+604545799+604469973+604351652+602865287+600120484
2958+597700719+597000555+598045731+599696616+600599268+600161035+598870089
2948+597519664+596160973+594233831+591734312+589643174+588877510+589158069
2938+589313648+588677789+587751683+587237736+586834105+585605331+583537124
2928+581805925+581072955+580508957+579233011+577762919+577034438+576918362
2918+576679699+576052631+575167149+574216578+573525467+573184457+572585482
2908+570995573+568606631+566427996+565142512+564554498+564165531+563821977
2898+563583763+563394592+563214211+563115716+562956059+562223912+560524472
2888+558117163+555772700+554149385+553342759+553003133+552795369+552547729
2878+552109533+551435294+550672285+549862966+548827179+547602483+546563404
2868+545809000+544955240+543841944+542852842+542219041+541634730+540839289
2858+539915800+538830448+537460011+536229292+535859178+536294344+536595290
2848+536017937+534677763+533126458+531784525+530833654+530207634+529503730
2838+528190863+526212622+524257238+523123405+522861961+522784639+522311130
2828+521489466+520577762+519556901+518404401+517431236+516873484+516483283
2818+515877799+514982553+513934347+512859320+511791549+510653938+509449405
2808+508356683+507391336+506307443+505092435+504006671+503007582+501853249
2798+500685001+499767648+498918527+497825618+496569237+495413783+494490257
2788+493821554+493233839+492405254+491348669+490465394+489875734+489142465
2778+487900374+486363696+485032648+484215960+483888603+483660864+482916896
2768+481426978+479830223+479024196+478984730+478652361+477171122+474848018
2758+472706492+471439562+470949070+470612773+469885713+468787343+467770822
2748+467097368+466571001+465912885+465042703+463936365+462586614+461158306
2738+459886064+458790949+457705672+456574607+455533808+454657229+453830403
2728+452981169+452234059+451658688+451001320+449860305+448115938+446112223
2718+444426699+443417247+442889646+442260521+441146814+439731075+438479071
2708+437602642+436907379+436080964+434965723+433581220+432113635+430921745
2698+430334553+430367585+430671112+430698944+430037086+428804609+427621734
2688+426932793+426507840+425806704+424639167+423261360+421997647+420966536
2678+420099422+419266835+418396204+417556771+416878679+416315316+415656601
2668+414884764+414226049+413708773+413072577+412269991+411551311+410872096
2658+409766693+408093028+406483030+405695445+405747142+405987226+405864416
2648+405299520+404462855+403579057+402844890+402254107+401607886+400788279
2638+399854205+398934981+398199168+397768753+397563870+397364524+396993886
2628+396359449+395447931+394323114+393078254+391901664+391145539+391019587
2618+391212537+391116174+390443281+389423393+388414315+387519669+386668415
2608+385928450+385476263+385238087+384863148+384169195+383381310+382834818
2598+382605246+382498035+382292142+381905906+381364203+380733693+380122972
2588+379658703+379426400+379430552+379526990+379420452+378918738+378186591
2578+377555707+377133858+376774518+376349714+375840481+375215507+374467948
2568+373801452+373567354+373906381+374533749+374946133+374835593+374280572
2558+373558825+372892778+372427760+372281121+372420466+372579150+372465542
2548+372043020+371529186+371154097+370968367+370885695+370859697+370916819
2538+371012807+370997657+370767038+370347471+369832140+369341386+369026823
2528+368986872+369176567+369476616+369796977+369998156+369835357+369203576
2518+368347309+367621409+367178164+367026362+367128897+367282494+367226233
2508+367027148+367024455+367253316+367269289+366732561+365896233+365265873
2498+364953031+364642620+364137015+363628792+363352572+363229650+363044631
2488+362803275+362677360+362701937+362772975+362828413+362800058+362566408
2478+362185147+361931784+361898753+361826069+361488500+360978594+360498090
2468+360133849+359909589+359840347+359883029+359951860+359969816+359857704
2458+359591622+359320938+359255288+359384794+359486917+359423099+359242980
2448+359032225+358828015+358626686+358385629+358102639+357882007+357788899
2438+357702898+357478414+357165871+356889801+356615788+356270027+355976787
2428+355885848+355875374+355738124+355511021+355327723+355179700+355064783
2418+355074434+355182655+355253169+355282235+355362325+355479187+355546858
2408+355517867+355380056+355176071+355001563+354879015+354748088+354638221
2398+354663733+354793837+354844712+354742476+354576124+354384707+354106991
2388+353677960+352951724+351654905+349607348+346791133+343103988+338373164
2378+332727343+326631243+320455839+314295061+308248172+302586433+297551446
2368+293214638+289632423+286952186+285316302+284843972+285680561+287945103
2358+291766224+297372318+305014279+314832799+326263187+337185838+344626227
2348+346729560+344054710+339392454+335580741+333037080+330533932+327437907
2338+323940196+320244447+316415265+312649526+309342520+306952194+305809777
2328+305864710+306570634+307302557+308009322+309184322+311133703+313598919
2318+316081325+318229098+319999164+321670211+323577190+325737195+327895555
2308+329897549+331760462+333434427+334765960+335707890+336406669+337075298
2298+337824578+338580329+339187421+339621465+340006205+340408826+340773403
2288+341084188+341424225+341800548+342045159+342019759+341856997+341821946
2278+341935703+341948085+341704971+341303398+340875003+340467930+340132868
2268+339900715+339708363+339518406+339445723+339608447+339896113+340036206
2258+339920765+339745883+339748614+339923795+340119102+340270978+340388626
2248+340435984+340398539+340368575+340444999+340626016+340849790+341071357
2238+341289894+341536075+341803990+342025295+342201673+342465361+342866187
2228+343225639+343372876+343384735+343427155+343505375+343530139+343511809
2218+343552771+343718263+344024671+344515911+345221087+346034671+346764873
2208+347316901+347729809+348058699+348347675+348672787+349088201+349568069
2198+350071991+350612011+351223330+351921698+352704420+353559415+354443774
2188+355246136+355832056+356191209+356474798+356834063+357300651+357831245
2178+358357648+358812378+359217842+359698085+360321375+361020603+361727986
2168+362494623+363430942+364591372+365940636+367424008+369083758+371113958
2158+373751438+377055825+380817299+384723692+388542961+392117134+395359349
2148+398309185+401033825+403553657+406024335+408754399+411828578+414984381
2138+418022574+421067313+424338183+427908690+431718907+435666784+439676422
2128+443711123+447744291+451757333+455696008+459344660+462329098+464331990
2118+465245603+465096196+463933260+461913122+459470463+457215815+455574096
2108+454660184+454498021+455122658+456489018+458477621+460832184+462883932
2098+463614021+462278298+458787358+453422283+446585732+438907503+431116939
2088+423596161+416323695+409293858+402699448+396726158+391469342+386997380
2078+383277840+380163634+377563001+375448746+373705277+372188051+370884573
2068+369846505+369038008+368356138+367740179+367201581+366743073+366301211
2058+365836268+365410866+365085455+364844885+364701051+364718334+364898602
2048+365194611+365654092+366466329+367870134+370028419+372995762+376837625
2038+381717445+387793756+395075760+403349634+412129001+420723273+428413809
2028+434486304+438241718+439311546+437954762+434877852+430792426+426107538
2018+420930924+415380942+409831596+404707166+400142358+396003625+392132247
2008+388432757+384816388+381222165+377707658+374432374+371522826+368979166
1998+366724069+364746390+363156667+362000091+361050417+359975950+358703334
1988+357404159+356226709+355258780+354576722+354132578+353752627+353344170
1978+352947834+352584528+352211946+351812953+351437565+351189776+351138302
1968+351154949+350947335+350398636+349749049+349308646+349139188+349094411
1958+349020605+348829750+348492107+348057016+347656564+347427740+347389023
1948+347447529+347609430+348005991+348491209+348517058+347839788+346973272
1938+346480536+346312312+346136608+345888369+345738214+345770048+345892035
1928+346042190+346378487+347039185+347748962+348090234+348131495+348170773
1918+348030306+347358237+346424835+345862408+345895701+346262784+346600016
1908+346733899+346720170+346674570+346621114+346554229+346532196+346630130
1898+346876124+347189116+347368411+347365419+347461258+347809862+348040668
1888+347757079+347132704+346590702+346335730+346384061+346624107+346827643
1878+346855288+346761244+346688785+346924156+347886286+349608545+351219590
1868+351476170+350193791+348446693+347263108+346889703+347026541+347284094
1858+347458901+347550550+347599630+347600265+347625740+347880675+348560488
1848+349798464+351550911+353146956+353414198+352192456+350777054+350190761
1838+350335829+350637112+350923357+351659319+353244179+355126618+356131992
1828+356078910+355913792+355971998+355681601+354913767+354293694+354201371
1818+354414260+354661264+355056777+355890337+357125021+358247781+358784809
1808+358877206+359066902+359734183+360949154+362522155+363981174+364856406
1798+365295911+366110505+367998144+370703295+372779993+372944251+371930310
1788+371466341+372253776+373855881+375690288+377583239+379420826+380982867
1778+382426736+384449529+387651008+391652940+394797558+395703240+395024586
1768+394165477+393921914+394835751+397077456+399796335+401737878+402849079
1758+403949731+405335319+407069511+409629257+413201933+416850436+419174026
1748+419948893+420115208+420522767+421581784+423380429+425524761+427379256
1738+429164435+432027409+436283603+440001010+441071025+440496702+440127075
1728+440623814+442123832+444434105+447055350+450063130+454420287+460632314
1718+467116782+470681753+470513118+469169577+468895751+470367639+473524228
1708+478035917+483073822+487569950+491673295+496743334+503014839+508443545
1698+511774865+514023341+515521863+516411871+518159230+521788056+526810288
1688+532665069+540019495+548949503+556080342+558421738+558744194+560632469
1678+565226605+572018678+579350734+585689349+591458915+597689721+603464711
1668+607066940+609489025+613240698+618961634+624886817+629219996+632646707
1658+637226404+644445226+654689448+665606637+671225674+671640003+673073548
1648+677417276+682347783+685142975+686441402+688261295+691250035+695356522
1638+700428805+705159555+706646518+704307852+701479443+700545069+701269510
1628+702251766+702704102+702916579+702880817+702108793+701222750+701428942
1618+702210842+701114342+697070925+692158298+687973030+684307432+680671761
1608+677111653+674055729+671938668+670872319+670522481+670504974+670879576
1598+671854650+673088212+673812503+673649255+672787079+671496507+670018896
1588+668657698+667471569+666100047+664282398+662507020+661881112+663190462
1578+666070046+668783463+669516732+669034021+669545536+671822778+674914988
1568+677524711+679712249+682555996+687143922+694616594+706148844+720688462
1558+731804885+736462016+740044643+745849822+753783733+763276056+773762457
1548+784218482+793950290+803077662+811831329+820118446+826156451+826025898
1538+820811240+816608540+815666011+816393370+817057808+818009091+820431625
1528+824526814+829585332+834770363+839634733+843709199+846405409+848130735
1518+849910527+851921275+853919978+856043473+858453812+861343421+865457988
1508+871035727+875356187+875086850+872368719+870515982+870287270+871520009
1498+873514522+874603316+874120979+874034342+876301185+880371236+883501004
1488+883600359+881656646+880056187+880104743+881379678+882637256+883657743
1478+885475541+888486276+891635646+893606592+893789067+892520641+891068018
1468+890482884+890588449+890491339+890203223+890970608+893471100+896910231
1458+899265131+898611840+895966280+893854980+893079440+893416335+894313226
1448+894688427+893760637+892216515+891376783+891743305+893017343+894747831
1438+896383752+897110812+896630121+895870067+895833408+896521862+897097121
1428+897006893+896857785+897530453+898898983+899992415+900090424+899260343
1418+898175141+897313787+896432083+895358851+894600295+894630670+895089515
1408+895203010+894495777+893002679+891580731+891530679+893097994+894973475
1398+895778717+895484168+894517249+892633014+889745126+886614087+883801165
1388+880884472+877499135+874852527+874817813+877706898+882185892+887029614
1378+891842436+896016632+898477247+899284808+900195989+902445699+905228845
1368+907145624+908182570+909397578+911066418+912285766+912615104+913025843
1358+914488641+916668996+918449910+919180411+919184451+919307224+920193342
1348+921777490+923324456+924185809+924488963+924907332+926003608+927966025
1338+930599390+933260062+935083546+935739381+935930984+936685950+938088372
1328+939192353+939278166+938670363+938171716+938179198+938644851+939615361
1318+941371960+943883674+946372420+947889908+948425589+948937553+949998590
1308+951063218+951398019+951131750+950909996+950869820+950621880+950132286
1298+950025150+950774355+951866740+952107272+950735076+948066473+945033667
1288+942310973+940188824+938776452+937664914+935799458+932485195+928406690
1278+924897906+922300527+919749834+916556099+912988660+909706867+907299146
1268+906278734+906655057+907337676+906683861+904104289+900707804+897897499
1258+895632004+892552139+887812561+882246269+877547690+874771352+873762686
1248+873688469+873925036+874351337+874836966+874903327+874240385+873258877
1238+872779308+873313567+874806965+876905097+879327557+881949101+884357046
1228+885603700+885105278+883746848+883331022+884723418+886984500+888595208
1218+889314786+890324500+892521614+895414514+898138481+900699424+903460200
1208+906184616+908488043+910660543+913252310+916239329+919096767+921401990
1198+923164649+924751042+926515871+928393447+930000115+931263903+932590686
1188+934308231+936362148+938597942+940932343+943173823+945082073+946935708
1178+949528074+952896129+955911354+957982478+959753966+961203970+961061969
1168+959244096+957683889+957741422+958887899+960534369+963224893+967292999
1158+971746182+975422105+978224029+980367950+981330305+980811158+980201111
1148+981317960+984049857+986548928+987724059+988532967+990550523+993960550
1138+997348881+999588191+1001251869+1003227753+1004833449+1004627406+1002683543
1128+1000970562+1001513350+1004605485+1008547751+1011269698+1012532812
1120+1013873062+1016113045+1017931367+1017639212+1015513173+1013161339
1111+1011571280+1010973128+1011799768+1014365798+1017948201+1021476512
1103+1024708552+1027582225+1029411171+1029984933+1030193744+1030813143
1094+1032130275+1034392030+1037151833+1039114101+1039979644+1041145273
1085+1043481395+1046277933+1048830048+1050992448+1052316163+1052558790
1077+1052846457+1054488064+1057036663+1058777999+1058510907+1056406415
1068+1053770806+1052303519+1052877730+1054447664+1054834087+1053523614
1060+1052542929+1053639504+1056395267+1059316149+1061196568+1061699629
1051+1061608728+1062093310+1063339965+1064293791+1064094706+1063381338
1043+1063909462+1066740864+1070424493+1072449082+1072755677+1073176740
1034+1073741823+1073126089+1072067671+1072400077+1073542140+1073188710
1025+1070925160+1068726100+1068258651+1069043693+1069265896+1068048270
1017+1066314414+1064988979+1063915148+1063206942+1063530820+1064232142
1008+1063239637+1060057798+1057184723+1056919277+1058392474+1059281509
1000+1058914239+1058092163+1057156592+1055794048+1054162391+1053061477
991+1052834038+1052820720+1052227506+1050933493+1048964567+1045880736
983+1041550326+1037051356+1033890091+1032375820+1030964496+1027693775
974+1022729077+1018066036+1014625110+1011522874+1008030999+1004531791
965+1001241469+997417113+992570997+987424571+982912733+979114187+975970804
955+974136920+973718400+973197683+971152071+967880901+964224356+960567288
945+957574209+956024849+955591367+955193272+954614572+954469205+954707344
935+954589883+953990908+953529744+953485453+953551964+953602315+953807984
925+953861028+953031770+951183522+948862588+946535668+944563001+943559423
915+943812749+944527614+944572952+943844770+943000400+942257255+941488373
905+941246344+942538786+945151203+947300659+947725538+947018903+946276881
895+945750627+945371012+945381561+945682170+945291632+943251855+939771950
885+936201069+933968493+933283480+932999479+932238752+931551046+931684368
875+932106927+931761054+930677198+929912057+930149822+931068709+932023208
865+932887031+933980837+935212230+935719780+934777849+932937083+931548801
855+931164997+931175920+930781790+929488675+927213603+925285451+926120769
845+930086228+933902580+934304041+932348283+931684742+933754295+936611883
835+937740104+936422374+933394656+929765344+926846257+925999119+927464984
825+929899039+931580897+932101690+932672235+934309877+936288978+937365277
815+937732473+938297856+939005089+939459295+940166379+941669876+943207564
805+943318217+941597754+939352982+938241594+938414344+938450330+937491043
795+936919974+938534423+941473186+942882565+941760329+940236631+940736999
785+943675238+947657156+950586642+950895781+948452448+944323516+939931383
776+936722760+935868064+937507876+940518462+943086363+943460816+941148036
766+937879411+936384069+937826741+940847726+942980948+942857502+941261532
756+940331423+941679079+944867277+947693442+948494868+948206154+948957828
746+950923986+952376384+952609286+952685074+952806201+951335024+947652593
736+944057546+943297493+945095241+946250471+944753258+942329826+941546954
726+942219473+942418632+942028618+942932467+945842575+949034290+950529632
716+949837736+947386398+944006746+940753159+938299502+936838724+936568938
706+937530545+938912467+939468348+938530159+936169347+932837652+929021151
696+925234202+922176034+920362874+919580825+918875537+917167942+914177257
686+910502607+906119526+900227486+894056758+891563673+895032655+901170090
676+903844155+900255692+891703429+879947480+867646573+862613344+871625125
666+886555581+895974884+897726321+893752258+885439854+875053183+867476667
656+866425805+869562081+870320189+865691862+859577545+856931536+858367400
646+860573941+860322635+857581760+854758588+853725457+853659769+851735358
636+846857895+841855040+840267076+841638972+842314110+840870091+839506349
626+839443953+838513395+835716857+834417382+837551414+842904107+846178568
616+847007751+847522333+847520388+845400259+840974908+835414526+829958887
606+825041023+820546766+816730938+814293665+813519023
##END=
