##TITLE=<SNM>
##JCAMP-DX=4.24
##DATA TYPE=INFRARED SPECTRUM
##DATE=3/5/2025
##SAMPLING PROCEDURE=Instrument type and / or accessory
##ORIGIN=Admin
##XUNITS=1/CM
##YUNITS=ABSORBANCE
##RESOLUTION=4
##FIRSTX=4497.3318
##LASTX=599.83466
##DELTAX=-1.4281778
##MAXY=1.7083949
##MINY=0.17431782
##XFACTOR=1
##YFACTOR=1.5910667e-09
##NPOINTS=2730
##FIRSTY=0.1952233
##XYDATA=(X++(Y..Y))
4497+122699632+122988633+123098669+122915451+122588482+122167128+121503993
4487+120727526+120406204+121019140+122396639+123781686+124408605+124096761
4477+123441278+123343024+124195680+125636489+127024309+127776060+127358171
4467+125655436+123538473+122444178+123086353+124817934+126287243+126572882
4457+125730622+124436832+123279329+122453019+121954802+121706063+121544068
4447+121465098+121650676+121872404+121452408+120325137+119373619+119266206
4437+119798242+120561625+121342681+121783956+121505697+120652105+119794411
4427+119280057+118926781+118409711+117845335+117637524+117688191+117371028
4417+116493226+115633987+115380153+115792124+116547003+117116342+117033972
4407+116375033+115682285+115272263+115057568+115036242+115285815+115493167
4397+115215779+114641036+114467109+114921627+115359943+115022850+113993223
4387+113180596+113303228+114028250+114318535+113617825+112443895+111682713
4377+111538653+111494953+111213800+110950377+110946958+111008621+110941760
4367+110912783+111114002+111426332+111561889+111350818+110928152+110712352
4357+111064149+112003707+113270318+114373445+114657651+113843169+112508499
4347+111582062+111421190+111674687+111864133+111841805+111732004+111595333
4337+111288884+110714253+110077735+109683822+109560347+109560590+109705119
4327+110114017+110662733+111001831+110981189+110846017+110873879+110982069
4317+110973144+111055177+111624057+112494816+112921939+112570648+111962218
4307+111762507+112094412+112659668+113116789+113328590+113501140+113973734
4297+114708739+115213129+115139862+114739599+114552054+114823214+115342588
4287+115713678+115705596+115384771+114940293+114420937+113739221+112993183
4277+112651407+113165995+114359293+115438107+115787076+115574357+115371013
4267+115390259+115411931+115293560+115181839+115202386+115296313+115480205
4257+115968804+116838748+117726187+118133512+118084605+118185481+118786560
4247+119359552+119125564+118129373+117133406+116573564+116280030+116220381
4237+116761829+117951484+119144463+119674879+119475272+118849993+118154978
4227+117885326+118478060+119633971+120280407+119734210+118592516+117941566
4217+118024404+118333147+118616932+118965788+119232836+119219771+119130649
4207+119240619+119522605+119880068+120258651+120513683+120647900+121021772
4197+121881376+122817638+123069757+122387161+121383440+120893164+121075492
4187+121339965+121119782+120476820+119873606+119614097+119698040+120043853
4177+120549281+120985424+121210852+121501305+122251979+123339934+124144984
4167+124224834+123744974+123276492+123293256+123833318+124564962+125070316
4157+125057532+124508937+123734400+123127046+122842840+122813451+122916032
4147+123008497+122992520+122939670+122984316+123076575+123029973+122887429
4137+123034084+123687741+124437291+124708367+124579675+124591204+124841582
4127+124933879+124764457+124657240+124700762+124628423+124463346+124671111
4117+125419078+126187097+126437672+126295925+126222021+126350535+126501929
4107+126565942+126572385+126612123+126875416+127523369+128398474+129056757
4097+129133311+128631984+127928278+127483107+127475821+127755718+128120046
4087+128438989+128551581+128327539+127885131+127602573+127850741+128642586
4077+129526129+129930803+129646963+128942863+128311787+128080767+128155794
4067+128246584+128336605+128654995+129171934+129465262+129164667+128347123
4057+127503149+127172565+127505331+128128082+128490930+128347797+127936463
4047+127745997+128046639+128628903+129100485+129335044+129389636+129168197
4037+128574780+127929477+127819526+128492082+129636735+130686666+131160168
4027+130955681+130519360+130449325+130831298+131269388+131509951+131655885
4017+131840217+131988070+131919318+131580764+131103085+130588440+130044192
4007+129648405+129719096+130260994+130946456+131599392+132273456+132864392
3997+133068532+132787773+132323702+132071517+132137356+132379867+132735850
3987+133248968+133808548+134170123+134234445+134099760+133923651+133876533
3977+134067261+134387731+134556947+134387731+133953461+133494738+133224796
3967+133287966+133810974+134757725+135740383+136261593+136167647+135652628
3957+134984679+134491060+134581878+135514402+137128184+138732881+139411590
3947+138962036+138300971+138249096+138395713+137914466+137009747+136550893
3937+136846141+137718474+139157654+140967409+142075836+141427518+139694719
3927+138776861+139522422+140833032+141340999+141349025+142099793+143684251
3917+144519505+143133016+140169897+137734048+137099010+137894733+139486056
3907+142351276+147160094+152773691+156484336+156909222+154867080+151417405
3897+147529479+144850033+144816036+147065025+149124698+149029076+148363347
3887+149612145+152055524+153029191+152531171+152441693+152237403+150583986
3878+149051123+149781361+152350266+155329812+158322703+160451335+159949493
3868+157582902+156088615+156015592+155573737+153771821+151794976+151428625
3858+154001088+160232987+168663825+172909438+168158443+159873689+153755019
3848+151022021+151201164+153488561+157022919+161223110+165663526+169034662
3838+169374387+166874730+164101264+162442200+161209043+159732138+158520727
3828+158150377+158702887+160765005+165007452+169774500+171559511+170464214
3818+169576719+168692165+165465670+160823539+157970016+158532734+162066156
3808+166397407+169210827+171135909+174073403+176836156+176577105+174312767
3798+172741084+171565299+169571306+167509956+166846971+167888566+170159479
3788+173170680+176313953+179016916+181717032+185664297+190854797+195168891
3778+197065015+198005257+200569123+206147580+214451534+223360725+230200399
3768+234812653+239346855+245160556+252567218+262128979+273871726+286041502
3758+296783618+306921977+319181175+335607504+355257106+372698133+383823279
3748+392414979+403120514+414822089+422560029+426643543+432372242+442451523
3738+456624659+472987714+488040721+497971090+501734304+501945590+502138557
3728+504123223+507264717+509605384+510027731+508691197+506484981+505267951
3718+506958614+511906978+519258646+528149780+537160381+543700208+546184618
3708+546303710+547873108+553730002+562810282+570055483+571780948+570380466
3698+570624981+574919145+582737141+592080555+601297084+608983438+612512739
3688+610507245+605813436+601770942+599713113+600241291+603750849+610186495
3678+618513450+624666969+623270121+616459780+611008937+608655945+606434519
3668+602355837+598135361+596701613+599258923+604071525+608838198+613642108
3658+619363652+624729306+627822174+629575923+632311853+636184681+638490846
3648+637273478+634350913+632365199+632016802+632427461+632878654+634270295
3638+638131884+644128812+650021894+654567616+658900403+664205706+669360187
3628+672048240+671962676+670677578+669571548+669295977+669996592+671489380
3618+673874290+677532761+681630062+684315867+684873003+684462344+684529925
3608+685486557+687047376+688685967+689817321+690396559+691167079+692819231
3598+695305738+698449630+702154029+705423268+706723651+705935449+705045800
3588+706325804+709172471+710523204+709241027+707116403+706094588+706578748
3578+707831404+708832691+708696553+707202117+705256936+704174732+704217589
3568+703999260+702157400+700120288+700613514+703542223+706268112+707210358
3558+707143451+707283185+707836949+708125781+707792219+708264016+711217451
3548+714942379+715180637+711231012+707584529+707805481+710995076+714004254
3538+714671003+713467872+712497454+712308496+711147022+708288966+705710302
3528+705725137+708262068+710732542+710195860+706172060+701379163+698889959
3518+699136234+700589538+702155902+703741071+705206662+706324605+707411530
3508+708738736+710254825+711830405+712925721+712774899+711294847+708924323
3498+705883677+702699851+701029342+702467062+706689486+711624064+715066453
3488+716052754+715405934+714626424+714027106+712661014+710005403+706671279
3478+703646292+702018641+702467736+703768718+703400991+700954718+699135710
3468+700214318+703185584+705736001+707486604+709216901+710611614+710916331
3458+710555871+710499153+710840582+711019501+710319185+708017441+704513839
3448+701922813+702027706+703891519+705166953+705103717+704519159+703776211
3438+702804070+701997212+701792819+702304401+703638276+705709029+707820316
3428+709164230+709573091+709368923+708647103+707156338+704943304+702903045
3418+702324256+703491574+705038682+705382809+704534218+703527463+702773576
3408+702361943+703060685+705285632+707307460+706547205+702988234+699180065
3398+697179890+697470147+700097436+704565986+708836287+710462066+709011909
3388+706253278+704045863+703072598+703262231+703996563+703909276+702253902
3378+700829894+702054904+705285033+707627536+707726061+706465613+705168676
3368+704765809+705395246+706147634+706201430+706069863+706531396+706787786
3358+705169425+701941019+699980779+701621618+705805831+709460105+710976120
3348+710666384+709038058+706779320+705019052+704278652+704290115+704806118
3338+705693594+706725374+707790646+708748251+709017004+708440987+708147959
3328+709211282+711185983+712934637+714003729+714326128+713497467+711366849
3318+708744055+706618308+704923000+702864384+700241515+697560355+695573667
3308+695411231+697889722+702261769+706420883+708583793+708301628+706149358
3298+703228665+700740959+699539851+699838723+701152218+702677523+704017317
3288+705275368+706312393+706605346+706015993+704835039+703386755+702532995
3278+703479137+705840371+707277790+706426877+704488515+702832841+701419323
3268+700382148+700566012+701518372+701498218+700345135+699745967+700091742
3258+699613651+697313930+694695781+693839998+695314804+698499679+702524678
3248+705885025+706568034+704413291+702016018+701189905+700633368+698941357
3238+697147898+696366289+695911125+695495072+696267090+698233249+699311857
3228+698120638+695754759+694081853+693735179+693953433+693919342+694033901
3218+695286633+697377465+698460718+697197872+694145164+690649878+687687303
3208+686358074+687762677+691215480+694016444+694384621+693510256+693496096
3198+694778272+696316090+696984938+696240791+694216267+691800488+690084276
3188+689405763+689218078+688930969+688456924+687553713+685383761+681897466
3178+679135313+679354541+681962200+683990172+683661704+681836628+679851138
3168+677862652+675836853+674584871+674875801+676218816+677220252+676845032
3158+674915811+671953311+669123576+667660982+667961578+669368953+670569687
3148+670334725+668529578+666488345+665367480+664481427+662526432+659819722
3138+657990075+657784858+658320266+658222715+656891837+654796135+652933820
3128+652041549+652200163+653098129+654248214+654756275+653815003+652047843
3118+651202024+651826592+652439920+651712932+650237825+649219157+648855026
3108+648715892+648419866+647533289+645950667+644578206+644526359+645509064
3098+646043872+645400574+644330732+643493904+642308904+640066350+637324202
3088+635316160+634419543+634001841+633455195+632773610+632293496+632229511
3078+632471516+632811297+633129575+633035395+631879391+629817104+628280747
3068+628465697+629787584+630708252+630625760+629935484+628783151+626887121
3058+624318160+621718068+619718568+618455122+617574014+616497205+614953917
3048+613423068+612681394+612829369+613276591+613683878+614267575+615197758
3038+616258047+616930229+616505746+614680332+612274668+610549465+609723052
3028+609025059+608155002+607651362+607738124+607811138+607201293+605709516
3018+603427027+600811351+598798215+598009526+598097037+598349194+598456823
3008+598180915+596995652+594842745+592611504+591180491+590444099+589740936
2998+588825026+587991458+587367190+586581611+585426056+584404353+584258925
2988+585072601+585969143+585871030+584735143+583555200+582953147+582603926
2978+582253094+582184351+582255416+581596683+579850539+577819533+576498546
2968+576087924+576054770+575697944+574518938+572450582+569910992+567479104
2958+565553779+564370502+564050052+564378144+564859607+565175337+565295665
2948+565095880+564250062+562664854+560771184+559234228+558412385+558055035
2938+557532814+556478369+555137414+554018872+553370666+553057183+552757412
2928+552277710+551848357+551931411+552471052+552627344+551564582+549300600
2918+546688520+544779416+544007098+543775882+543143897+541947696+540726882
2908+539737246+538801482+537935508+537336827+536837608+535992951+534691893
2898+533287440+532093674+531008923+529745477+528279249+526901469+525901270
2888+525290638+524746914+523864307+522631019+521514986+520899972+520640360
2878+520365800+519998147+519682979+519290264+518335543+516621167+514725062
2868+513466299+512997574+512808241+512492623+512111072+511903944+511936086
2858+511939383+511414951+510118764+508452863+507055453+506122199+505356249
2848+504401191+503185023+501943980+500910326+500023899+499136235+498282512
2838+497479625+496651227+495987923+495824813+495975673+495822940+495231452
2828+494719121+494546833+494242940+493323022+492023800+490845768+489660056
2818+487914211+485630337+483566552+482425382+482350458+483004583+483807845
2808+484266268+484171189+483411346+481881845+479853387+478093906+477167431
2798+476765688+476038774+474596148+472973591+471929223+471513319+471147802
2788+470388933+469246452+467939701+466690678+465645899+464765577+463870084
2778+462900116+462008856+461264710+460396339+459122779+457693227+456725244
2768+456449299+456414047+455986755+454931111+453485375+452045970+450854527
2758+449925617+449083433+448033221+446661847+445329546+444493131+443993612
2748+443182408+441811746+440313488+439119535+438152002+437107335+435923871
2738+434760749+433696714+432719666+431906814+431329561+430850046+430245896
2728+429439000+428473228+427482544+426731729+426367635+426087119+425378187
2718+424165653+422927382+422053804+421361505+420442785+419268124+418126993
2708+417163955+416312592+415513826+414717495+413851934+412963971+412200681
2698+411570457+410883815+409937748+408680259+407275731+406056903+405305638
2688+404967056+404608020+403807793+402620320+401482110+400680609+400143403
2678+399692660+399214756+398566587+397566425+396201308+394766548+393685430
2668+393131329+392903222+392759443+392718272+392836765+392845343+392325707
2658+391267816+390120540+389169378+388226533+387147925+386234188+385749204
2648+385399346+384699143+383600080+382402718+381254056+380089997+378988688
2638+378235176+377944732+377835006+377506726+376860018+376146853+375683522
2628+375566528+375602716+375465867+374962939+374179682+373356603+372646360
2618+372041085+371504816+371059130+370704064+370340383+369827977+369098028
2608+368207855+367332591+366678616+366310663+366048991+365602818+364831848
2598+363860906+362958033+362316758+361915726+361590518+361259990+360989701
2588+360788755+360510187+360042473+359464995+358956935+358636072+358479069
2578+358349750+358120856+357774819+357420016+357224127+357211839+357126651
2568+356710222+356069846+355518554+355193346+355050391+355016712+354981760
2558+354860833+354742902+354794412+355011880+355160229+354956473+354353222
2548+353647961+353205197+353083820+353032384+352791466+352336789+351886719
2538+351671874+351662771+351619615+351467594+351461825+351832999+352374813
2528+352589995+352250888+351625571+351132645+350955412+350988679+350991001
2518+350806238+350509764+350246293+349966152+349537698+349072082+348867726
2508+349007010+349190350+349032035+348457404+347748847+347224603+346959709
2498+346813831+346639445+346438274+346335628+346367471+346330945+345986594
2488+345391209+344869288+344666506+344751245+344880939+344758700+344250939
2478+343562873+343053502+342804941+342572639+342203412+341835985+341610163
2468+341464960+341326725+341250677+341277912+341339612+341344070+341212091
2458+340879428+340440260+340189826+340308319+340554407+340471391+339887920
2448+339079563+338471142+338295595+338472790+338693142+338683065+338463575
2438+338258245+338149680+338028790+337852006+337638885+337266811+336622876
2428+335912146+335489723+335433380+335526923+335590084+335627359+335679057
2418+335686437+335583004+335448066+335431657+335560527+335782415+336131636
2408+336624037+337064291+337209644+337086806+336945649+336946735+337057211
2398+337185631+337244821+337127527+336798348+336395931+336089603+335847786
2388+335484516+334875533+333974907+332648001+330620741+327642732+323722252
2378+319223957+314666285+310332823+306122967+301853772+297589802+293537905
2368+289857388+286846450+285000675+284506045+285023358+286347137+288862021
2358+293007217+298646532+305349020+313073379+321797788+330352438+336615683
2348+339035658+337731940+334533317+331525113+329199506+326842617+323996662
2338+320642908+316874411+312886799+308970178+305482647+302857118+301408085
2328+301046127+301267097+301495709+301560107+301838974+302813250+304524480
2318+306563858+308433983+309858085+310929594+312005448+313346122+314897950
2308+316467086+317954330+319316526+320442935+321242076+321809926+322348031
2298+322884188+323229626+323301740+323343098+323663549+324251066+324801197
2288+325096023+325196572+325258009+325333683+325412803+325485704+325499452
2278+325378487+325136258+324846863+324519707+324161982+323917167+323935673
2268+324131637+324253726+324166215+323910873+323561203+323175980+322860287
2258+322749250+322900821+323227078+323568882+323839845+324011572+323999509
2248+323758815+323455859+323314665+323359844+323501451+323736113+324095524
2238+324532332+324941979+325209046+325295059+325368223+325696016+326339652
2228+327116240+327867991+328602510+329394383+330300553+331333532+332420007
2218+333436428+334344958+335263415+336399527+337907300+339745901+341715731
2208+343702007+345758300+347892514+350007847+352124042+354404844+356916489
2198+359525871+362033357+364346527+366559823+368821071+371150425+373523197
2188+375985953+378494338+380823018+382780710+384362171+385697694+386953272
2178+388187048+389313757+390253006+390929309+391187572+391024612+390755635
2168+390645009+390571321+390277918+389755322+389195077+388681098+388149399
2158+387662429+387435297+387487819+387544162+387319539+386751764+386047739
2148+385435235+384833219+384385885+385306965+389000537+395258350+402454513
2138+409371471+415803633+421889982+427881665+434066502+440475474+447014328
2128+453643090+460175163+466372588+472196740+477521898+481898628+484876600
2118+486323123+486481887+485844245+484829660+483724454+483034178+483573857
2108+486101122+491082191+498777049+509119126+521099045+532438850+540410627
2098+542990902+539426424+530770701+519610490+508058126+496536218+484801451
2088+472783171+460338236+447509651+434870475+423017141+412291115+402951784
2078+395016008+388302956+382808732+378470512+374855573+371617951+368784358
2068+366433501+364571075+363088851+361649858+360066149+358556952+357261214
2058+356088989+355121981+354466807+353983171+353638745+353633276+354061392
2048+354945497+356385314+358473412+361452470+365814253+371962415+380215720
2038+391126621+405111884+421829631+440295919+459245917+477135252+492163983
2028+502533670+507076994+506104479+501198822+493990596+485596546+476753288
2018+467767750+458624421+449409240+440398902+431819040+423717906+415979967
2008+408458446+401158625+394222861+387775415+381862627+376456252+371480391
1998+366950515+363079935+360090012+357836032+355763556+353434015+350967588
1988+348736160+346895723+345417283+344235130+343239239+342372254+341682540
1978+341115477+340466634+339648013+338784175+338085657+337790269+338003952
1968+338409704+338405396+337755017+336856002+336197082+335839956+335566970
1958+335273830+335019312+334840581+334663460+334356271+333903093+333521879
1948+333508018+333998059+334876732+335666057+335646577+334607379+333240763
1938+332336879+332041528+332055726+332076068+331973272+331822974+331758202
1928+331851145+332280124+333209333+334312141+335071235+335620129+336314114
1918+336648313+335843253+334325365+333338502+333463663+334272019+334949371
1908+334973047+334425052+333792467+333456058+333407582+333424327+333432644
1898+333609240+334025181+334404897+334628883+335128589+336109271+336816255
1888+336436914+335305148+334309181+333797862+333626023+333604482+333600849
1878+333566871+333570130+333770964+334578683+336602572+339817454+342697350
1868+343127714+340926218+338031937+336038093+335120647+334815856+334777045
1858+334816343+334791206+334682903+334662898+335008710+335879891+337263702
1848+339293884+342098706+344692504+344978078+342578707+339819926+338573376
1838+338658527+338985421+339199704+340173193+342753580+346107409+348072407
1828+347943200+347074455+346172144+344724497+342886795+341674898+341496953
1818+341875507+342380870+343230472+344854977+346991139+348511724+348605492
1808+347844263+347476423+348258818+350263076+352964278+355225826+356049017
1798+355832748+356248165+358650195+362591205+365409026+364721035+361920371
1788+360187002+360696973+362512871+364538483+366543827+368353357+369539256
1778+370488433+372617102+377004547+382901376+387350295+387890573+385628501
1768+382956595+381197264+381318940+383758657+387164933+389367777+390251320
1758+391138010+392203768+393323322+395709206+400439541+406177680+409755982
1748+409875973+408310958+407264642+407786901+409781306+412111596+413485780
1738+414648490+418163293+424669330+430018463+429768704+426212917+423129190
1728+421548778+421667233+423455709+426206661+429743567+435382507+444100416
1718+453571875+458294643+456376960+451998356+449058408+448819512+451365884
1708+456333166+462395015+467720585+472535659+479116283+487775077+494818994
1698+497804721+498246062+496719183+493933017+492797766+495080367+500097100
1688+507117116+517120199+529815906+539069560+539770288+536903091+536335841
1678+539571402+545628756+552235341+557834533+563569301+570581638+576600967
1668+578754062+579212485+582106842+587987562+593791747+597047350+599262669
1658+603589313+612131713+625555981+640468768+647576445+646990689+648436499
1648+654176737+659067934+658230282+654453806+652582651+654219893+659431615
1638+667588905+675698169+678149236+673853611+668686244+666746533+667861105
1628+670129358+672499957+675209588+677610382+678250234+678142868+680094941
1618+684326356+686840361+684013173+678132678+672988612+669578665+667105869
1608+664639292+662100638+660153210+659434313+660205507+662374635+665471250
1598+668746483+671405690+672776802+672579751+671197926+669357939+667407289
1588+665235014+663003324+661416955+660868810+660997380+661784458+664263173
1578+668902250+673215408+673484535+671377444+671906558+676415342+681938075
1568+685465952+688163221+692534370+699452639+709834126+725697962+745817639
1558+759865014+763401058+765600531+771308401+779600104+788781457+797932690
1548+806800486+816002218+826463125+838368119+850478556+858008880+854328607
1538+843860657+837500723+837901042+840906174+841087565+838021071+835672799
1528+836512548+840441195+846758273+854739566+862030508+865388607+865375421
1518+865203020+865260188+864356528+863363408+864574482+869453092+878045466
1508+887772491+891261333+884441289+875588104+871544299+872129981+874755847
1498+876818583+876776101+875465828+875594922+878734768+883613003+886800575
1488+885913024+882272011+878950100+877788701+878478003+879572644+880540739
1478+882288120+885837201+891388105+897355512+899572667+895684104+889780233
1468+887038384+888526003+891524242+892890858+893245099+895744268+901774612
1458+908500851+909482507+903347195+896091842+891531135+889828784+889769669
1448+889733555+888938235+888007378+887455787+886959040+886851074+888492512
1438+891925461+894236570+892897301+890000585+888617111+888773477+888515289
1428+886968630+885480262+885598043+887561430+890773502+894216715+895886549
1418+894043266+890093041+886725052+884660667+883371448+882591263+882369862
1408+882569160+882792808+882698554+882478427+882732345+883530362+884134999
1398+883966120+883229017+882067318+880102583+877565052+875672619+875042657
1388+874486120+872328230+869237835+867785430+869093681+872035651+875380040
1378+879295950+884310172+889594496+893253491+894668882+895403963+896989508
1368+899310357+901678334+904186195+906953293+908908813+908923947+907765321
1358+907203539+907811249+908768854+909389676+909957001+910924571+912209071
1348+913533954+914778744+915961346+917362277+919443445+922119660+924373378
1338+925323566+925515446+926238914+927812995+929375463+930271555+930889305
1328+931752056+932636685+933298790+934261340+936121257+938792601+941925029
1318+945278783+948294480+949994508+949779401+948141110+946354469+945414846
1308+945416419+945913765+946507614+946947718+947183505+947494665+948105746
1298+948857759+949544514+950124277+950390707+949933595+948557688+946336487
1288+943410101+940067361+936712183+933567842+930719527+928378147+926783687
1278+925801132+924871249+923576710+922122657+920998271+920245283+919362152
1268+917939942+916086320+914085171+911951482+909608454+907225942+904899847
1258+902187444+898558119+894260021+890185497+886852198+884037973+881491826
1248+879423770+877980282+876753025+875334861+874061001+873557885+873667874
1238+873545597+872955645+872744509+873653413+875353367+877131167+878753124
1228+880008853+880292740+879687428+879654162+881387157+884227231+886878646
1218+889366577+892325331+895150570+896538239+896428476+896140767+897003818
1208+899428288+902675799+905433532+907225342+908886335+911193474+913916741
1198+916648925+919561600+922823572+925974282+928408192+930212440+932070409
1188+934230172+936075703+937256732+938533664+940720249+943492367+945885219
1178+947516093+948695848+949525708+949772883+949926627+951431478+955038850
1168+959443040+962642525+964648994+967454303+972006019+976451117+978390603
1158+978298746+978889823+981587691+985305351+988185959+989360095+989068416
1148+988041206+987287919+987768107+989505223+991265866+991907141+991902721
1138+992695793+994915944+997987984+1000817194+1002469720+1002924360+1003165990
1128+1004256436+1006366075+1008720416+1010763746+1013113067+1016608877
1120+1020692542+1023613534+1024533453+1024499063+1024879378+1026231533
1111+1028832375+1032441245+1035524523+1036330856+1034751980+1032100041
1103+1029508790+1027386564+1025923595+1025438911+1026345643+1028878303
1094+1032718539+1037308541+1041901690+1045133243+1045773994+1044277534
1085+1042899230+1043206269+1044409176+1044741914+1043947943+1043766252
1077+1045631039+1048933245+1052333002+1055786105+1059567901+1062147089
1068+1061853312+1059674368+1057405591+1055019107+1052526232+1051891324
1060+1054229407+1057043033+1057219554+1055840201+1056714191+1060845732
1051+1065270601+1067223274+1067195402+1067263583+1068092544+1068510096
1043+1067407437+1065631511+1065500468+1068099736+1071791623+1073741823
1034+1072821155+1070592762+1069154743+1068781921+1068300458+1066853523
1025+1064645659+1062995155+1063661156+1066579751+1068769483+1067561107
1017+1063830260+1060256753+1058492890+1058712642+1060076786+1061189933
1008+1061188210+1060469688+1059653839+1058742612+1057392104+1055135839
1000+1052282353+1050247039+1049587857+1049323300+1049116959+1049477494
991+1049442954+1047247602+1043668926+1041255470+1040062078+1037716653
983+1033633887+1030132158+1029179798+1030237502+1031088940+1029547151
974+1025509040+1021333893+1018936470+1017204150+1013511289+1007624950
965+1001902545+997644157+993720755+988961049+984067605+980355713+977688414
955+974883630+971854372+969856295+969337596+968917796+967130855+964279318
945+961719985+960189210+959709021+960190558+961180980+961641464+960990448
935+959937015+959524633+959731273+959569587+958388183+956672346+955444939
925+955102011+955093919+954693300+953976426+953943459+955228033+956753788
915+956665902+954748294+952557288+951145493+950225274+949395265+948606314
905+947548011+945783622+943581527+941988490+941699508+942128299+942113164
895+941357929+940597524+940462510+940617004+939966438+937818887+934840354
885+932311664+930908185+931032260+933280208+937166448+940308392+940656639
875+939203261+938799045+940279771+941294768+939571063+935968112+933043074
865+931824208+931349938+930369256+928520129+926546852+925758500+926829241
855+929147918+931429582+932728692+933007859+933282906+935182607+939263350
845+943495140+944517929+941104835+935484776+930713008+928291385+928462062
835+930836783+934012817+935936718+935670813+934239687+933306582+933601258
825+934768951+935951104+936325275+936021308+936450323+938860932+942736383
815+946379119+948808085+950112439+950445851+949809221+948478268+947005410
805+946014763+945728028+945793887+946013040+946752691+948040112+948663031
795+947411574+944970021+943085679+942424174+942745074+944385013+947614019
785+951011453+952336337+950867000+947786269+944957808+943832748+944382841
776+945259678+945868361+947113825+949361699+951270841+951607625+950667926
766+949130108+947103111+944867600+943563770+944332417+946770523+948849742
756+948850342+947048941+945220193+944942973+946153073+946934831+945671835
746+943331580+941934395+941900379+942871321+945315646+949052787+952097404
736+953080333+952629590+951319391+948932009+946008544+943840839+942767626
726+941849356+940186265+938125102+937273964+939076339+943313374+948008869
716+950579965+949619962+946251149+942999067+941016874+939580354+937846310
706+935813618+934223878+934286215+936285041+938278247+937681776+933994161
696+928419206+922076504+916301726+913060958+913361853+916137568+919347767
686+921009584+919366648+913782852+905761475+897914596+891828958+887840597
676+886264493+887446496+889550965+888599803+883337357+879630860+884295487
666+892166566+894985437+892453601+887760054+882747255+878289868+875590876
656+875374346+876722231+877045978+873811578+867776439+863400196+863859256
646+867124225+869021679+868566589+867206641+864478804+858094669+848542217
636+840894336+840483602+846832073+853105770+853804738+850228159+846210653
626+843409539+841627993+840904825+841357292+841084568+837060094+829569029
616+823113866+821733314+825612661+832518643+839873420+844644588+844808747
606+842048617+839386863+836381206+830883648+822989117
##END=
