##TITLE=<SNM>
##JCAMP-DX=4.24
##DATA TYPE=INFRARED SPECTRUM
##DATE=2/5/2025
##SAMPLING PROCEDURE=Instrument type and / or accessory
##ORIGIN=Admin
##XUNITS=1/CM
##YUNITS=ABSORBANCE
##RESOLUTION=4
##FIRSTX=4497.3318
##LASTX=599.83466
##DELTAX=-1.4281778
##MAXY=1.8513365
##MINY=0.37736776
##XFACTOR=1
##YFACTOR=1.7241915e-09
##NPOINTS=2730
##FIRSTY=0.40057778
##XYDATA=(X++(Y..Y))
4497+232327902+231231025+230568031+230579716+231238544+232114348+232466180
4487+231979855+231270452+231233220+231981480+232781472+232976998+232598478
4477+231989915+231282032+230592904+230385798+230968624+231862111+232406133
4467+232716309+233279932+233957652+234220779+234081791+233994607+233998133
4457+233607548+232554799+231221086+230142186+229368656+228624009+227965821
4447+227921900+228865409+230472948+231958456+232710034+232544031+231625585
4437+230545129+230139195+230630291+231191183+230914177+229921873+229013729
4427+228537395+228104203+227365070+226631710+226344886+226272860+225892196
4417+225330336+225258345+226068778+227558867+229010100+229454475+228467858
4407+226753343+225515681+225360135+225952140+226581532+226948454+227314771
4397+227911719+228534024+228830908+228651336+228040284+227172897+226300377
4387+225671642+225482287+225694994+225916637+225724931+225037255+224039282
4377+223071644+222529972+222562641+222962214+223342912+223274740+222572735
4367+221736479+221539570+222049092+222698862+223133593+223382753+223537227
4357+223723264+224035773+224368661+224607779+224814886+225014318+225059483
4347+224769410+224043344+223014829+222154322+221911660+222250200+222801396
4337+223274464+223416251+222961021+222049403+221314453+221155553+221322283
4327+221453111+221454771+221190365+220581594+220135784+220473460+221309907
4317+221827760+221971396+222406300+223277592+223839038+223422508+222260900
4307+221181567+220826641+221283530+222131125+222746344+222866629+222816105
4297+222861339+222747502+222345803+222119769+222373631+222725412+222793047
4287+222712275+222668043+222491669+221917001+220889748+219682628+218922304
4277+219134112+219941019+220304190+219966860+219856583+220606536+221609522
4267+222047311+222024253+222071510+222195425+222052670+221738760+221803457
4257+222440817+223209438+223791885+224362664+224860916+224756636+223960982
4247+223080580+222448976+221798963+221009549+220422798+220392101+220958420
4237+221841864+222642185+223229281+223724992+223999873+223735277+223084573
4227+222632834+222659920+222959102+223252806+223388215+223318384+223080839
4217+222615930+221806292+220922934+220603770+221092222+221886459+222298650
4207+222138541+221895326+222219900+223008468+223392312+223039857+222692951
4197+222896877+223174575+222997838+222598075+222318112+222014297+221500766
4187+221032555+221052847+221603939+222096573+221811339+220695898+219527774
4177+219132263+219579421+220309203+220842439+221139185+221441565+222008127
4167+222875651+223745267+224244798+224309133+224075373+223528931+222608947
4157+221556803+220812657+220617927+220932510+221632891+222583158+223524419
4147+224105310+224128938+223680449+222980380+222228059+221629416+221426130
4137+221751551+222456063+223164601+223561564+223623444+223583896+223598779
4127+223393072+222472258+220895607+219537090+219247984+220009277+221081350
4117+221709359+221656606+221328194+221339239+221808746+222284822+222395497
4107+222199124+221887548+221615986+221665110+222236321+222925777+222963372
4097+222244116+221545309+221436051+221650418+221819152+222072201+222535573
4087+222854080+222627303+222006260+221567381+221650729+222006519+222177380
4077+222039481+221757255+221441980+221128364+220889938+220758245+220627502
4067+220373796+220122821+220283794+221037360+221891057+222183066+221933854
4057+221674357+221599980+221466127+221112117+220613035+220092762+219707104
4047+219673813+220113089+220852706+221432612+221402640+220704696+219733031
4037+219011684+218866509+219301204+220039490+220791743+221522666+222299618
4027+222983163+223320441+223218876+222755816+222130641+221731691+221903329
4017+222452778+222724530+222301018+221397385+220591878+220369648+220854245
4007+221758586+222555744+222850830+222691793+222459744+222409739+222462510
3997+222490684+222550783+222750544+223109480+223546008+223845779+223781652
3987+223351589+222738099+222131834+221708771+221508267+221350854+221231866
3977+221547988+222483252+223548947+224168019+224309253+224261236+224247097
3967+224492248+225281438+226643740+228098602+228970638+229002166+228478453
3957+227806973+227262761+227054980+227338849+228111549+229040763+229504013
3947+229361725+229486573+230551334+231644045+231269380+229486607+227787026
3937+227447052+228991380+232233596+235847245+237534743+236106223+233292982
3927+231983778+232990048+234392486+234407437+233990804+235075132+237489284
3917+238886761+237418348+233732068+229950341+227707637+227680984+230232032
3907+235672478+243449329+251210157+255841743+256165695+252951411+247081974
3897+240308126+235943089+236554090+241204862+245062693+244365597+242013255
3887+242657546+245959481+248349192+249282227+250386968+250089237+246660847
3878+243366967+243893410+247633135+252277183+257006826+260412867+259908582
3868+256891294+255511603+256044805+254964867+250905236+246884236+246167763
3858+250046613+258781976+270586378+277133432+270419821+257366713+247169850
3848+242638343+243448586+248127549+254834471+262124270+268846938+272961985
3838+272233171+267647528+262750447+259123454+256069090+253376531+252024237
3828+252309022+253766650+257329343+264383862+272091159+273900083+269868954
3818+265821785+262334021+256581118+250086558+246961983+248884538+254600400
3808+260464047+263486227+266006940+271675061+277852739+278296976+274034732
3798+270481113+268143792+265052196+261923455+260972082+262771051+266384976
3788+270858700+275566149+280024282+284578103+290476942+297835293+304564339
3778+309434335+314569652+322646014+334303305+348498732+362831988+374182370
3768+381322103+385327374+387496687+389449559+392896185+397283070+399695995
3758+399031221+398510879+402338427+412330258+425981904+436191869+439595490
3748+442259736+449470337+458829094+463573256+463877849+466570891+475906175
3738+492137753+511190834+525331330+530490258+530928013+532938825+539609033
3728+551167074+564928895+575360658+578816341+577394769+575729481+576464432
3718+578997520+582009295+586531485+593754462+599286777+595727627+584619232
3708+574085385+568247233+566892588+568526659+571180016+572558168+571726216
3698+570327944+571384495+576879820+585989088+595551460+601530068+600837224
3688+594602040+587619184+583635796+583748009+586744780+590591618+595856848
3678+604877583+614281695+615600181+611067274+609297931+609532728+604094374
3668+592323349+581469179+575613293+573584436+572118996+569870553+568546536
3658+569385265+570957595+572520522+576684018+585734794+597089601+602172856
3648+595486884+583072311+572911781+567561648+565980053+566006188+565520001
3638+563710177+561679212+561440958+564943933+573390535+585238996+593232253
3628+589550450+577862358+567250763+562825990+566089604+574579039+581544818
3618+582357826+580030392+579118791+580474542+583339327+587438661+591175983
3608+591513728+588374392+585388959+585230907+587651818+591028647+593950817
3598+595504030+595477827+594894430+595646526+599341258+606311531+614467196
3588+618781277+615662752+608171791+601605776+597823514+595872819+594691299
3578+594480147+595816125+597990208+599551511+600980550+604861612+611887680
3568+617779380+617189139+611137104+604844811+601015188+599276751+598375107
3558+597532576+597106955+597932961+599719865+601233807+602128330+603002458
3548+603788433+603541122+601453946+597311330+591941285+587449654+585857585
3538+587350301+590180931+592214938+592495575+591502113+590281045+589553769
3528+589557433+589937284+589529432+587570579+585201799+584140097+584028714
3518+582794509+579644214+576163538+574123619+573606042+573793963+574557571
3508+576185662+577711289+576942391+573064682+568149055+564984448+564318879
3498+564866704+565162897+564685870+563539922+562122429+561296872+561939383
3488+563838120+565544995+565675080+563947463+560945437+557386910+553741543
3478+550517269+548657493+548863908+550386458+551427349+550988868+549446614
3468+547570728+546112201+545725367+546299257+546701647+545830216+543996575
3458+542688564+542666059+542965708+542374015+541082770+539948783+539048003
3448+538081125+537347661+537129319+536833991+535785806+534252989+532801168
3438+531275611+529334112+527500090+526833518+527492761+528280741+527932141
3428+526288770+523997427+521663804+519668895+518396802+518027461+518212166
3418+518325693+517992338+517250197+516358958+515674618+515624388+516290095
3408+516992066+516859284+515861639+514773007+514170286+513933761+513435336
3398+512194494+510830930+510804588+512386113+513853179+513742141+512551944
3388+511191595+509525166+507518227+506203544+506340405+507163854+507370373
3378+506728484+505963977+505450065+504865285+504055768+503437490+503440913
3368+504033886+504762890+505124350+505063300+505036197+505444292+506200848
3358+506860851+506954431+506345798+505405677+504660114+504361951+504464761
3348+504621915+504252988+503075996+501403379+499774632+498775397+498961174
3338+500130077+500989719+500522442+499270157+498474365+498604623+499128456
3328+499154868+498259791+496882537+495637028+494613906+493920266+494096952
3318+495252683+496536288+497083836+496893496+496411215+495663578+494226553
3308+492243605+490956336+491364223+492757552+493569385+493318513+492628573
3298+492053922+492022705+492891094+494079045+494124331+492427896+490209183
3288+489094313+489312689+489756840+489724724+489957343+491398827+493596868
3278+495193673+495649162+495580161+495556239+495466566+495077899+494485203
3268+493811165+492879790+491504230+489940992+488858963+488805311+489622156
3258+490498393+490793202+490544716+489935945+488819830+487245841+485881447
3248+485287403+485140309+484690800+483769312+482956580+482811423+483175233
3238+483520480+483752442+484056828+484064260+483035123+481055528+479208093
3228+478242667+477787316+477241185+476765853+476854247+477297292+477155280
3218+475815810+473794801+472331296+472107389+472442645+472049796+470535335
3208+468629547+467087707+466182916+466032988+466430228+466534386+465675400
3198+464304542+463447872+463508991+463986397+464019550+463108467+461524798
3188+459961318+458781146+457841544+456938481+456033068+455068092+453884082
3178+452394754+450758090+449315119+448310423+447616507+446805158+445620526
3168+444259727+443041286+441996074+441000503+440105945+439439339+438951320
3158+438512148+438074358+437535625+436726730+435803791+435285488+435343185
3148+435361023+434597034+433086411+431538245+430580079+430357727+430525839
3138+430425000+429591872+428157924+426552061+425072827+423921244+423159744
3128+422489543+421614171+420812882+420568267+420820660+421154361+421318532
3118+421045086+419940448+418114827+416355821+415286271+414857781+414788088
3108+414938190+415179624+415335187+415288587+414957652+414346220+413699664
3098+413286384+412997901+412501481+411738391+410930015+410228148+409689795
3088+409439027+409521026+409659754+409441689+408775567+407966189+407281364
3078+406646943+405850493+404835875+403696875+402618649+401904993+401794336
3068+402124545+402349801+401999057+401083170+400084799+399518376+399371075
3058+399049819+398044535+396515762+395063527+394121643+393738162+393701035
3048+393690145+393476194+393062499+392578836+392060395+391411074+390623889
3038+389902974+389444650+389237716+389145104+388926037+388196410+386787975
3028+385152832+383999866+383531413+383337615+382987149+382464352+382005129
3018+381685879+381369671+381044820+380873458+380759517+380256149+379148192
3008+377818264+376819029+376328487+376161377+376084771+375917972+375441672
2998+374501690+373250580+372060832+371156007+370479894+369885020+369323921
2988+368842159+368400774+367830479+367126538+366622927+366559250+366633748
2978+366331747+365514383+364408950+363297088+362463027+362135583+362214817
2968+362248003+361851248+361049613+360148660+359437009+359069811+359008865
2958+358917117+358347963+357284290+356256743+355683440+355388734+355040860
2948+354688837+354502853+354351714+354001455+353430157+352717574+351961571
2938+351386955+351147802+351015020+350616467+349920096+349195932+348628472
2928+348166656+347641647+346950393+346161480+345402884+344707654+344072403
2918+343537715+343102552+342715788+342383228+342120188+341869696+341610078
2908+341391771+341184872+340937042+340784832+340873745+341000927+340741309
2898+339933521+338862174+337975878+337487202+337214897+336860938+336413089
2888+336039806+335672884+335123227+334544877+334267871+334197833+333888746
2878+333204233+332460606+331910880+331474819+331011966+330582577+330376300
2868+330485263+330739696+330780246+330404128+329822633+329403441+329151394
2858+328703337+327924484+327189015+326832430+326638252+326200981+325542706
2848+325006773+324747190+324627717+324442563+324056593+323509079+323034231
2838+322817583+322739905+322472509+321811780+320894993+320108051+319725330
2828+319609695+319367880+318834990+318273925+318024920+318078295+318097793
2818+317798178+317213709+316619492+316247246+316093550+315988873+315775544
2808+315367553+314795288+314310967+314209021+314362580+314228000+313502902
2798+312497376+311708462+311299227+311085622+310807924+310320734+309639816
2788+308913301+308333949+307985245+307758503+307515617+307268617+307052695
2778+306781151+306390410+305924239+305356260+304580794+303657474+302830396
2768+302245202+301798528+301322746+300848831+300565187+300470017+300241512
2758+299613520+298751941+298076071+297766742+297583661+297203534+296646340
2748+296186806+295885982+295515983+294969645+294394579+293888134+293383832
2738+292841262+292294302+291750176+291206603+290711739+290324870+290048313
2728+289810129+289535162+289271742+289148708+289118875+288908156+288358084
2718+287666570+287148908+286857883+286552443+286017755+285362713+284924283
2708+284825501+284760752+284352502+283614389+282911277+282525255+282387824
2698+282226349+281900271+281539675+281322094+281190868+280942312+280553542
2688+280214605+280020859+279837415+279502436+279009248+278486487+278090526
2678+277858564+277630888+277233303+276707188+276217406+275840822+275582414
2668+275449269+275394251+275306410+275121860+274873564+274624161+274376781
2658+274060123+273626326+273134781+272695781+272399537+272314513+272407643
2648+272454399+272217459+271734400+271257097+270925990+270687321+270514697
2638+270481009+270540538+270462273+270124320+269712008+269485231+269478248
2628+269511159+269392792+269069238+268620179+268146609+267715492+267405558
2618+267281090+267305133+267377124+267426628+267423603+267380927+267339132
2608+267259432+267024704+266622469+266195517+265888781+265762118+265784761
2598+265814664+265711007+265524521+265422886+265423422+265375146+265194571
2588+264940363+264658154+264344158+264076659+263977617+264021797+264092630
2578+264200971+264398208+264546235+264458515+264192743+263973468+263932694
2568+264069745+264303522+264471617+264452379+264349707+264399746+264668473
2558+264971735+265117567+265124395+265138672+265181815+265081511+264708453
2548+264195993+263783577+263498966+263181755+262774214+262373586+262036100
2538+261732026+261459877+261253548+261101563+260935265+260681282+260341774
2528+260050007+259967593+260078682+260182356+260130104+259964827+259792169
2518+259640702+259514177+259479798+259609019+259864281+260088915+260100219
2508+259817128+259339895+258867432+258525141+258339208+258329217+258480995
2498+258675501+258803219+258896176+259006021+259031672+258828593+258439408
2488+258073177+257873469+257806127+257737869+257545559+257222920+256944168
2478+256905588+257062655+257165604+257065732+256828256+256560082+256278737
2468+255957845+255624127+255377369+255275060+255214719+255031310+254713218
2458+254417734+254272006+254237211+254180517+254052886+253966583+254050933
2448+254241256+254298227+254075011+253688419+253364501+253185292+253072509
2438+252950305+252810367+252672003+252579961+252566963+252545616+252356779
2428+252006123+251725780+251699991+251821261+251838494+251712108+251669691
2418+251874153+252189117+252357678+252300621+252147028+252030978+251947354
2408+251834726+251734734+251732919+251765691+251701495+251625407+251796371
2398+252298046+252972050+253745476+254875263+256884311+260415390+266162503
2388+274820205+286994001+303103565+323297340+347387803+374846556+404850118
2378+436348677+468243370+499615611+529675349+557500817+582226945+603526464
2368+621251899+634646659+642910734+646455918+646604429+644235788+638692964
2358+627709504+609573589+584869032+555593680+525902766+502445895+490568845
2348+492022671+505471048+526181432+546435254+560118048+565923947+565630243
2338+562386126+559380160+558449061+559559749+561172940+561463913+559663112
2328+556140606+551419951+545495133+538010948+528944996+518975740+508899179
2318+498839282+488507321+478039156+467931310+458124150+447791671+436284032
2308+423784072+410899559+398173998+386115803+375123839+365167615+355851725
2298+346890277+338327070+330293298+322778485+315707442+309061294+302832367
2288+296999435+291623962+286847720+282759171+279357330+276600333+274356506
2278+272383773+270501544+268722072+267131265+265734393+264481521+263344042
2268+262306902+261358398+260528139+259863866+259327000+258776375+258095164
2258+257299820+256525374+255922636+255522994+255190590+254768529+254247980
2248+253733480+253321860+253072146+252961333+252818716+252458552+251918074
2238+251431835+251162797+251060488+250970036+250796739+250567456+250373987
2228+250266769+250206532+250122441+249983852+249794531+249578281+249405329
2218+249348462+249370777+249361875+249308240+249291785+249327616+249355410
2208+249360198+249362393+249342862+249285960+249234503+249242471+249321947
2198+249440953+249549605+249644482+249778992+249951201+250065712+250093316
2188+250144739+250289620+250432306+250447655+250334042+250190198+250120211
2178+250161539+250259907+250337049+250371394+250366278+250295842+250153744
2168+249986133+249821651+249643842+249447193+249239118+249011425+248794881
2158+248680352+248693437+248716789+248617297+248388377+248123902+247925334
2148+247854847+247921774+248116746+248472087+249041017+249824123+250773577
2138+251841519+252995073+254243330+255664919+257357120+259366116+261688226
2128+264289141+267123625+270193891+273561491+277249776+281171820+285166962
2118+289045587+292598929+295629129+298000363+299643181+300499678+300491416
2108+299569444+297787034+295314926+292396801+289267057+286086860+282963097
2098+279974501+277125411+274339791+271561431+268828633+266254770+263972552
2088+262062235+260508486+259243636+258201362+257318972+256562658+255956082
2078+255528162+255258398+255097718+254993301+254889575+254766973+254706580
2068+254860553+255252849+255624248+255671488+255431799+255165751+254947479
2058+254699061+254497745+254500684+254679011+254881503+255063062+255298153
2048+255624127+255970722+256278979+256595205+256926002+257122219+257083570
2038+256939363+256888805+257011976+257268898+257545680+257743625+257890062
2028+258076358+258312658+258533627+258701083+258911577+259420891+260353562
2018+261334216+261743676+261441192+260876860+260492221+260387596+260491270
2008+260705619+260914472+261052491+261147436+261243281+261343705+261420951
1998+261495241+261819781+262799761+264360700+265600436+265650544+264729368
1988+263726503+263136002+262912803+262897454+262967285+263045810+263157089
1978+263340136+263542316+263668028+263668512+263682427+264115826+265228484
1968+266526003+267058133+266578272+265840090+265549359+265689332+265998781
1958+266462982+267077215+267613857+267892574+268021744+268264336+268807822
1948+269732871+271175098+273222432+275278789+275989972+274724482+272598226
1938+271109900+270654411+270806655+271148462+271457428+271617434+271644018
1928+271812683+272715520+274655913+276847766+278178316+278853167+279727812
1918+280281877+279266775+277139931+275734658+275990646+277286852+278358700
1908+278438141+277750344+277016984+276617826+276427140+276296121+276429093
1898+277199390+278518533+279680919+280403268+281441826+283150084+284273821
1888+283578782+281797669+280435314+279960086+280041324+280352935+280673603
1878+280880174+281034855+281378685+282581794+285738692+291108045+296475152
1868+298098783+295032942+290332579+287062172+285912473+286023027+286386215
1858+286515454+286502577+286680939+287190771+288040942+289417141+291663060
1848+295201469+300125565+304793605+305785269+302237942+297752949+295480791
1838+295339885+295670786+295882006+297310457+301328484+306759199+310157012
1828+310127697+308743011+307314249+305069678+302075672+299941517+299538469
1818+300150386+300798221+301581119+303329167+306044610+308267817+308619114
1808+307566469+306819454+307743500+310706082+314816513+318045005+318795719
1798+317838209+317792854+320752325+326224143+330241513+328781568+323602175
1788+319678973+319168690+320906194+323174065+325427762+327304547+328128479
1778+328490838+330592740+336186243+344337690+350589952+350803765+346375293
1768+341071760+337099641+336007864+338483705+342470516+344584932+344681209
1758+344922332+345556892+346271377+348972509+355498596+363894866+369180837
1748+369234420+366714986+364790772+364836819+366713396+368982650+369991115
1738+370801254+374931839+383207737+389582375+387576853+380668184+374272424
1728+369766274+367544415+367775133+369602829+372821226+379264242+390354488
1718+402806569+408243264+403350487+394336735+387216361+384151281+385521275
1708+390744710+397559488+403024047+407481039+414282750+423737541+430342516
1698+430545164+426378176+418873008+410296250+405440843+406106136+410521402
1688+417417454+428139153+441843898+449274535+443883471+433950202+427844689
1678+427667969+432167274+437835240+441856240+445564419+450411530+452940747
1668+449620957+444653441+444039277+448030893+451864491+451971173+450863804
1658+453450718+462935446+480190043+499527701+505846094+500252591+498609670
1648+503929382+508074072+503972870+496677055+493578304+496486853+504927614
1638+518130202+532547808+539804109+536918479+532639936+534157749+541870785
1628+552542323+563541616+575091741+587108107+597125069+604885811+614341501
1618+627888989+641366509+648185021+650004835+652792806+658515253+665451855
1608+671125076+674710222+677305571+680040097+682729890+684785261+686548312
1598+688976137+692518762+696675275+700507594+703630060+706527893+709836759
1588+713681731+717722712+721508500+724713312+727382501+730557790+736320961
1578+745671766+755204685+759205012+759667277+763635593+772726989+782378135
1568+788369327+792805301+799551908+809914705+825090769+847982357+876759630
1558+894073271+891241121+883219724+878221234+876255674+875858953+875223909
1548+874110076+874936912+879697426+887844379+897198503+901710046+892309460
1538+874498984+862455412+859107898+858752799+855110267+848968490+845669580
1528+847207444+851287489+855458037+859795557+863788555+864785681+862489567
1518+858876212+853941952+847941772+843795353+844220560+850079350+861348839
1508+874765723+878317199+864418690+846910560+837198294+835654138+839042860
1498+842656146+841831661+836874031+833229080+834630394+839768684+843395175
1488+841100651+834337382+827822944+824496171+824179583+825183277+826916183
1478+830365609+836067107+842599521+846450024+843816510+835764139+828470710
1468+826132559+828218351+830813769+830500015+829320431+832342853+841543626
1458+852147581+853224148+842504040+830339958+823120853+821206526+822670065
1448+824266629+823210389+819599799+815587649+813105205+813579431+817848157
1438+824431111+828343355+826162565+821761023+819927796+820458094+820370771
1428+818768746+817695497+818295902+819533426+820889039+823174713+825327640
1418+823861819+818535262+813170679+810063285+808647314+807644656+806897953
1408+807205899+808393573+808468105+806323751+804211478+804965580+808591173
1398+812907328+815951875+816452166+813932732+810260747+808466584+809214117
1388+809957087+807920038+804058197+801968670+803464844+807625505+813069667
1378+819544280+826912864+833511583+836995509+837202235+836207183+835355734
1368+834721243+834948849+837165453+840866131+843620984+843890765+842963332
1358+842807976+843643731+844360497+844262873+843526056+842274152+840461736
1348+838623047+837656411+838033911+839950313+843572310+848188668+851700596
1338+852364886+850914414+849665621+850066075+851833896+853885742+855531256
1328+856773411+857942487+859489408+861898357+865318537+869329305+873336823
1318+877073453+880639932+884211527+887704925+890778095+893253971+895453222
1308+897989318+901301917+905375671+909717408+913631449+916763388+919188723
1298+920702250+920820271+919734992+918214206+916659402+915173877+914077881
1288+913462749+912716184+911206183+908902532+906007880+902728951+899772004
1278+898211808+898456008+899881521+901674440+903600106+905697860+907575612
1268+908421116+908012434+907544638+908743927+911987664+915917193+918956208
1258+920621081+921414730+922212320+923840480+926514786+929424650+931311114
1248+931565339+930444661+928431119+926038486+924117176+923482754+923962788
1238+924259741+923131665+920714004+918334508+917166262+917444202+918574283
1228+919511534+919408240+918491938+917875492+918043570+918340799+918282999
1218+918231905+918316117+917866919+916606372+915607310+916259708+918505213
1208+920791371+921999441+922663523+923828450+925662853+927670310+929416768
1198+930797962+932065146+933380244+934459300+935201648+936331314+938745587
1188+942325755+945803736+948013564+949306676+951321116+955001053+959257403
1178+961994141+962350485+961659369+962051319+964354417+967329755+968906199
1168+968225177+966229404+964778448+965484774+968624456+972708027+975705213
1158+977136949+978341838+980610089+983878370+987088298+989030212+989281671
1148+989204235+991130385+995299274+998577995+997857910+994109526+991254006
1138+991962822+995764996+999899177+1001932908+1002109213+1002342351+1003561345
1128+1005163716+1006511101+1007483959+1007894093+1007789486+1007796676
1120+1008204805+1008616875+1009197092+1010920249+1013770168+1016560490
1111+1018807515+1020958783+1022941558+1023917043+1023590430+1022591506
1103+1021568453+1020909210+1020999575+1021978656+1023514169+1024852428
1094+1025043806+1023806628+1022904707+1025662464+1033328623+1042620245
1085+1048785876+1050191407+1047945211+1043646064+1039677057+1038880089
1077+1042359660+1048561795+1054136285+1055482910+1051560364+1045379800
1068+1041461679+1042207415+1046334198+1050082098+1050432150+1047848693
1060+1045765182+1047737863+1054700738+1064242368+1072003386+1073741823
1051+1068445411+1060018375+1053804762+1052237929+1054454948+1058077498
1043+1060393524+1059888808+1058126172+1057969641+1059861775+1062144061
1034+1063850487+1064902509+1065086350+1064751025+1064360250+1063162828
1025+1061046752+1060194127+1062417299+1065946304+1066452265+1061733028
1017+1054502723+1049358763+1048402429+1050540422+1053637929+1056164001
1008+1056877103+1055429880+1053503592+1052958844+1053262849+1052357263
1000+1050301684+1049570537+1051014717+1052333894+1051663935+1049969816
991+1048256407+1045298976+1040356627+1036273125+1036969495+1042396511
983+1047580087+1047442846+1042153417+1036211729+1033358629+1033894666
974+1035352121+1034936525+1032230899+1029207855+1027493271+1026522556
965+1024361332+1020287786+1016498679+1016114818+1019136411+1021879510
957+1021333310+1017957448+1013245816+1007850328+1002652371+998838028+996578281
947+995061021+993796118+992923028+992386023+991524203+989435990+985909336
937+982031316+979366274+978723072+979939231+981964527+982724367+980436204
927+975897904+971979645+970553303+971179773+972653684+974410788+976322558
917+977809812+977493223+974751714+971149006+969152058+969580099+970836704
907+970891739+969427370+967235241+964929240+963329427+963278195+964185993
897+964503412+963888556+963267963+963154505+963553646+964547039+965668754
887+966027310+965773154+965926228+966561134+966745805+966075638+964897713
877+963345122+961249097+958899538+957077926+956154848+956144823+957115331
867+958409133+958848790+958552666+958802674+959739580+960159393+959374386
857+957513227+954964893+952824273+952382404+953325187+954099477+953972261
847+953160635+952046111+951605901+952680187+953870488+952544812+948584724
837+944844221+943674939+944687206+946082505+947294240+949504275+952800212
827+954478636+952869490+950407303+949843265+950558165+951110587+952565070
817+956364064+961318167+964594399+964365410+961158455+957392026+955977852
807+958443495+963566506+968398993+970512303+969118387+965306810+961439091
797+959064850+957826497+956674361+955514826+955083467+955826506+957660286
787+960389143+963515343+966088774+967537172+967877476+966809136+964273178
777+961720419+960595385+960218991+959436819+959194140+960740232+962970318
767+964249532+965022786+966516816+968569974+969788623+968816110+965689634
757+962194576+960509653+961466747+964592186+968891126+972754489+974754341
747+975292659+975546124+974910873+971970726+967602786+964599031+964433858
737+965782557+966564936+966934417+968406322+970473793+970588771+967825898
727+964160827+961391524+959669680+959378120+961225520+964376126+967489812
717+970889734+974962796+977970630+977895683+975475878+973394096+973016043
707+973485844+973507346+972942547+972974144+974557294+976452678+975751882
697+971160069+964791722+960388037+960070757+962291302+963129338+959920932
687+953346205+946183863+941298830+940550191+944089083+949702913+953205299
677+951870428+947011944+941550774+937121092+933110532+927445331+920081380
667+915233060+914852033+915521716+914600643+912860132+911864803+911334229
657+910628317+910915591+913926605+918959665+921714656+917874524+908640011
647+899982533+895893984+895720030+897266191+899205062+900766365+901666212
637+902395009+902504041+899723469+893197899+885562922+880886690+881204661
627+884183525+884307768+878524686+871520258+871494331+881079726+893841862
617+899231681+893397712+883343207+877989341+879420039+883911117+888340453
607+892242464+893648273+887691374+873589665+860200298+857376997
##END=
