##TITLE=<SNM>
##JCAMP-DX=4.24
##DATA TYPE=INFRARED SPECTRUM
##DATE=3/5/2025
##SAMPLING PROCEDURE=Instrument type and / or accessory
##ORIGIN=Admin
##XUNITS=1/CM
##YUNITS=ABSORBANCE
##RESOLUTION=4
##FIRSTX=4497.3318
##LASTX=599.83466
##DELTAX=-1.4281778
##MAXY=1.7227705
##MINY=0.17895991
##XFACTOR=1
##YFACTOR=1.604455e-09
##NPOINTS=2730
##FIRSTY=0.19842595
##XYDATA=(X++(Y..Y))
4497+123671868+124794116+126290422+126822022+126126519+124937429+123894607
4487+123100314+122477986+122166646+122463099+123345055+124246951+124649660
4477+124725696+125004168+125623636+126287255+126584952+126101582+124725715
4467+123063685+122186874+122778386+124481773+126026447+126302254+125501228
4457+124796011+124804917+124953376+124530764+123726190+123201574+123126430
4447+123133015+122989154+122757740+122404412+121814831+121218694+121210186
4437+122188768+123761946+124784838+124317841+122677135+121212081+120948682
4427+121658042+122223559+121877558+120975773+120251489+119627006+118557603
4417+117299156+116744589+117105180+117736693+118122342+118153445+117664168
4407+116596149+115521034+115224135+115782418+116595406+117203366+117568796
4397+117686820+117471864+117019699+116612810+116410652+116272930+115963373
4387+115499942+115163145+115106362+115190970+115259446+115230014+114895251
4377+114115577+113255344+112880088+112958148+112908953+112470496+111993674
4367+111901942+112252318+112753055+112981729+112774834+112525868+112743220
4357+113289911+113580225+113496193+113520266+114033021+114906814+115575774
4347+115345410+114050166+112454754+111572603+111686020+112391572+113278581
4337+114063391+114394198+114099686+113508025+113154279+113222615+113464588
4327+113573501+113437460+113077611+112548705+111990256+111620359+111539373
4317+111690794+112086928+112781567+113570334+114125709+114438192+114669652
4307+114680202+114254200+113651487+113393159+113632485+114111147+114544542
4297+114791530+114835933+114766500+114719413+114792886+115015513+115321346
4287+115523820+115487711+115324755+115217291+115098812+114844988+114776679
4277+115418381+116563661+117207099+116784506+115929000+115607843+116002500
4267+116533236+116651260+116383449+116173936+116312903+116703566+117170461
4257+117677180+118178205+118535184+118643697+118551557+118488440+118624612
4247+118725667+118450771+118071725+118268376+119134562+120044613+120500836
4237+120492199+120148706+119613530+119124290+118872854+118924668+119322214
4227+119984236+120518770+120462136+119816023+119179040+119192376+119891863
4217+120720204+121151416+121092738+120722349+120228790+119751253+119386454
4207+119258688+119605070+120527129+121596392+122080821+121721651+121018124
4197+120639116+120745159+120990856+121099425+121236906+121653055+122154563
4187+122291914+121972233+121545962+121350704+121492625+122008296+122857672
4177+123708460+124110900+124052362+124041394+124509988+125353931+126088366
4167+126269089+125794988+124930157+124025345+123325440+123091695+123521106
4157+124334029+124855858+124722854+124183871+123705804+123620760+124045350
4147+124780464+125326403+125251658+124594029+123813379+123355893+123329610
4137+123599111+124042852+124591521+125118635+125492275+125748049+126006990
4127+126128395+125702588+124615984+123429830+122912087+123293352+124181215
4117+125062214+125719166+126253375+126802119+127243705+127293922+126926737
4107+126501626+126395834+126724059+127442204+128432442+129381815+129828834
4097+129545644+128799757+128058737+127475277+126870195+126195923+125722788
4087+125666980+125919039+126300833+126798738+127354504+127724494+127783032
4077+127742836+127839815+127966058+127819949+127322406+126729910+126356205
4067+126282286+126380008+126513523+126598243+126553877+126369662+126182011
4057+126177144+126411585+126753100+127008336+127113162+127131245+127085142
4047+127033644+127281709+128047090+128885062+129023146+128354428+127543938
4037+127128180+127076904+127229198+127569237+127976460+128182649+128133946
4027+128072073+128163136+128322674+128460211+128608957+128813410+129120821
4017+129557151+129918225+129863040+129429106+129113856+129228155+129490273
4007+129448935+129091705+128892027+129336548+130411607+131527614+132026355
3997+131738493+130997538+130249496+129744561+129506619+129489623+129734893
3987+130321975+131162658+131965300+132453816+132560509+132437739+132364852
3977+132544627+132882957+133053269+132828291+132319418+131919746+131942045
3967+132301846+132733115+133209036+133808712+134344807+134538820+134387659
3957+134052719+133674268+133513346+133987782+135281642+136843638+137540209
3947+136869271+135799877+135594013+136159270+136351918+135685327+134829487
3937+134590941+135242394+136595962+138133059+139094134+138989957+138259701
3927+137947980+138521753+139339441+139651887+139759666+140436112+141568678
3917+141975363+140747517+138527781+136829837+136369889+136761909+137833077
3907+140404637+145023448+150295245+153596059+153904437+152171210+149205066
3897+145698705+143297661+143494005+145703516+147200927+146334908+145270112
3887+146591054+149397594+150928681+151082795+151587638+151792731+150172113
3878+148211197+148390657+150835519+154214263+157588772+159604948+158680372
3868+156144326+154920075+155215915+154753878+152496760+149983190+149138216
3858+151186340+156997520+165816301+171737498+168438050+159926049+152661982
3848+149057648+149153865+151842000+155633048+159760325+164243151+168291495
3838+169781412+167924422+164587322+161449809+158743099+156679836+155901369
3828+156327603+157316392+159395536+163734724+168905223+170935683+169533272
3818+168040774+166589381+162961532+158147816+155349495+156118619+159925789
3808+164535294+167579489+169733508+173037395+176274265+176312752+173984521
3798+172229914+170952512+168838391+166659334+166120964+167579675+170334400
3788+173839805+177701901+181213157+184181863+187573108+191942275+196075301
3778+198729111+200792708+204201821+210189869+218619547+227619153+234982697
3768+240880082+246899242+253495984+261020478+270911208+283690865+297432582
3758+309984680+322075642+336279554+354289986+375096249+393794875+406386315
3748+416189204+428268761+442168419+451957154+456099097+459892094+467071563
3738+478095815+491732752+505124762+514504556+518500836+519255490+519573155
3728+520696220+522057562+522304384+521053004+519187098+517683733+517106802
3718+517939321+520791174+526219751+533752957+540731372+544152912+544584738
3708+544509807+545185333+547372768+551250392+555316624+558154026+560938787
3698+565539005+571422291+576407749+579970160+584203639+590245293+594901050
3688+594583608+591166191+588511379+588415719+591118417+595939489+601807135
3678+607453223+609809539+606186277+600561514+598223810+598317352+596349359
3668+591346701+586560624+584501689+585454536+588110425+590907408+593176832
3658+594722398+595963970+599279523+607462919+620248464+632620164+636988570
3648+631720256+623118483+616388412+612719493+611763489+612862370+614874868
3638+616532849+617605391+619108904+621975543+626333212+631747672+636686396
3628+639588512+641679136+644898731+649506379+654567102+658827849+661377565
3618+662919936+665336732+668967721+672099049+673511249+674584051+676685671
3608+678237032+677491071+675728180+674968920+675256828+675808869+677242170
3598+680559542+684524059+686873540+688122282+690767621+694561770+695987046
3588+693390299+690123226+689373699+690229474+690824905+691194097+692226109
3578+693755850+694803167+694602337+693053799+691441141+691827495+693909648
3568+693901698+689808570+685904162+686468239+689908725+691881882+690632323
3558+687983120+686611190+687854063+690829661+692993914+693273724+693652351
3548+695774774+698175150+698655344+697578232+696758566+696773946+696920241
3538+696736425+696396582+695752410+693852438+690088677+685856313+683746224
3528+684951129+688051475+690421239+690818664+689924625+688646684+687234707
3518+686055286+685691890+685952827+685983513+685314897+683894524+681824853
3508+680119990+680599144+683600672+686497216+686178993+683145294+680674706
3498+680425433+681508265+683099228+685303826+687600035+689006439+689633596
3488+690176573+690299315+689122048+686923543+684938350+683785899+683168401
3478+682893941+683299687+684587213+686292819+687599143+687962985+687521798
3468+687113451+687797447+689954865+692281387+691946151+687614597+682144859
3458+679687719+680738306+682276294+682239961+681578106+681970405+683663009
3448+685595375+686581173+686116657+684411125+681881320+678617889+674766752
3438+671219944+669292556+669560180+671119715+672371949+672776804+673283448
3428+674640667+676260384+677323898+677822073+677836487+677254726+676704171
3418+676861982+676697633+674662065+671603550+670105906+671106490+673182253
3408+674452170+673864540+671507853+668514869+666099931+664707866+664508299
3398+665897392+668672457+671230049+671815747+670700223+669661004+669319749
3388+668786654+667882436+667644308+668381428+669072111+668905978+668201996
3378+667864753+668538867+670111776+671869020+673010771+672632813+670231843
3368+667298967+666888688+670017787+673789053+674732055+672899100+670793468
3358+669850838+669703652+669506982+668834354+667938606+667592596+668028657
3348+668136316+666864244+665161089+664931729+666429372+668211358+669253920
3338+669748974+669882118+669101682+667043081+664767156+664249367+666290062
3328+669638120+672280933+672855264+671297066+669126720+668409513+669665833
3318+671504955+672414002+671841678+669867778+667214786+665082555+664014434
3308+663333559+662289139+661486413+662242405+664393359+665726058+664578586
3298+662451185+662374062+665014423+667910373+668590951+667146357+665271349
3288+664150624+664002918+664518106+664992431+664981509+665493800+668417463
3278+673849829+679082926+681225112+679640910+675110533+668938521+663458752
3268+660668902+660093605+660059353+660448457+661864892+663361569+663806694
3258+664206794+665942788+667820174+667379284+664875930+663331998+664391204
3248+666466819+667354840+666885568+666063598+665224021+664105822+662920828
3238+662521620+663396341+664659423+664492473+662002642+658263845+655481871
3228+655364107+657574129+659698929+659873235+658890260+658443575+658611119
3218+658369127+657513723+656904101+657079446+657260587+656192986+654007334
3208+652221634+651890929+652790912+654056000+654780563+654518734+653745802
3198+653080752+652046957+649812268+646828646+644275883+642475472+641365446
3188+641642209+643607639+645518979+645012706+642263645+639821365+639501508
3178+641040462+642989546+643867982+643231835+641989111+640925670+639648100
3168+637798874+635854917+633989642+631751238+629271660+627376518+626490280
3158+626605963+627771268+629375902+630060566+629374490+628369448+627927593
3148+627595997+626604997+625045240+623413487+621862645+620488338+619577730
3138+619239670+619256685+619345212+619280423+618892026+618039185+616551981
3128+614566899+612950154+612606596+613209049+613366823+612173842+609923848
3118+607452888+605457813+604278578+603945496+604250902+604692237+604678529
3108+604126637+603556727+603174013+602419099+601068493+599980459+599900253
3098+600254214+599852628+598369064+596567129+595334027+594821959+594495081
3088+593966221+593440444+593065049+592405906+591185472+590134179+590210001
3078+591127370+591642299+591237593+590456637+589689835+588867865+588247544
3068+588327824+588880385+588834654+587269175+584288042+581024833+578725764
3058+577661544+577215304+577020455+577181387+577249445+576266916+574340196
3048+572864396+572580351+572669993+572288134+571778963+571833610+572518089
3038+573312567+573324827+571907240+569559803+567479136+566132059+565169925
3028+564380536+563760028+563166157+562514184+561787800+560858507+559812489
3018+558985356+558332900+557457213+556336042+555284601+554279968+552945411
3008+551148491+549357590+548386503+548678534+549832508+550918053+551153135
2998+550261362+548539558+546801298+545854804+545716793+545575848+544777878
2988+543601206+542758619+542324676+541555570+539871065+537741918+536286030
2978+536035457+536342943+536107713+534958680+533512228+532557933+532296475
2968+532473567+532913416+533599121+534378740+534876171+534730694+533851514
2958+532446930+530754549+528757171+526493654+524562848+523621704+523299358
2948+522368504+520330930+518155160+517001446+516789657+516563565+515939269
2938+515414309+515278305+515136209+514725038+514312271+513935984+513120516
2928+511758542+510493008+509787800+509226212+508145608+506578124+505187210
2918+504527510+504617115+504967137+504855243+503864801+502279336+500705425
2908+499428932+498445586+497828830+497624805+497587136+497374938+496854994
2898+496046436+494937785+493511765+491923068+490518076+489558394+488993053
2888+488642102+488442944+488286916+487842943+486931555+485928074+485382608
2878+485274354+484970658+483987608+482588188+481493022+481082335+481019589
2868+480739296+480232986+479958080+479859114+479151751+477470404+475517159
2858+474131521+473410190+473042076+472789980+472417408+471755367+470962598
2848+470337149+469941693+469575288+468910201+467722496+466278161+465256105
2838+464957275+464891558+464467719+463752258+463177741+462777159+462119539
2828+460975930+459726482+458946938+458683139+458356930+457529983+456401531
2818+455292470+454184190+453129071+452467142+452180757+451684849+450693701
2808+449643671+448895593+448180614+447171597+446032000+445110285+444482608
2798+444005311+443594290+443250620+442823810+441945336+440423954+438634985
2788+437216507+436367196+435728411+434980815+434230842+433698192+433287542
2778+432690996+431811557+430855255+429979977+429072007+427957003+426671074
2768+425461190+424608759+424220027+424088852+423768066+422824693+421163406
2758+419244116+417829427+417313867+417411050+417503255+417041301+415755856
2748+413920078+412264400+411290787+410843545+410455630+409846564+409033697
2738+408163359+407286632+406340658+405382685+404607227+404039732+403495752
2728+402869895+402168439+401315933+400221621+398971319+397761509+396705870
2718+395809974+395040125+394302820+393454883+392473469+391529055+390793124
2708+390269242+389822669+389247595+388412438+387500716+386856804+386471267
2698+385998020+385320265+384634560+383982810+383174475+382150190+381070663
2688+380067368+379102596+378103090+377145302+376418919+375963021+375520831
2678+374798385+373858021+373096048+372742979+372548651+372137035+371505939
2668+370924513+370484738+370028988+369421520+368696251+367986808+367360431
2658+366714476+365942250+365170433+364614342+364230514+363747757+363007702
2648+362107942+361284524+360761720+360588418+360515753+360143404+359284954
2638+358148998+357150123+356594256+356478944+356469508+356129479+355321107
2628+354307149+353385954+352605369+351910117+351337384+350948057+350727538
2618+350605316+350461251+350155994+349661014+349094299+348592967+348220878
2608+347958788+347695585+347293813+346735568+346130069+345525313+344833553
2598+344048324+343417006+343181999+343178915+342931909+342215073+341339088
2588+340789425+340708587+340830289+340840468+340641124+340230734+339551493
2578+338641480+337758920+337145508+336793108+336590049+336553494+336756442
2568+337105201+337345112+337311306+337079642+336812760+336563153+336338436
2558+336253587+336450182+336855631+337130945+336959389+336364515+335629773
2548+334975273+334480517+334212186+334170579+334164412+333973984+333643205
2538+333458164+333576410+333757477+333628345+333201981+332851030+332756930
2528+332755482+332735272+332804667+333047402+333372906+333586626+333512625
2518+333147928+332695559+332350329+332126504+331929686+331662098+331255609
2508+330713710+330105090+329481165+328859989+328304641+327943846+327851789
2498+327922410+327953356+327875751+327786109+327727710+327580375+327202305
2488+326609697+326000037+325566614+325266744+324896809+324426312+324054668
2478+323899421+323837753+323677973+323352952+322976219+322754288+322754660
2468+322780442+322595214+322217702+321869834+321689176+321602915+321466279
2458+321235433+320970966+320736924+320575918+320528441+320558458+320519339
2448+320337344+320170989+320226565+320435939+320478995+320168834+319681953
2438+319308490+319093915+318895648+318678844+318502309+318294495+317946888
2428+317576879+317392358+317347481+317233952+317060576+317044230+317242794
2418+317455549+317497639+317381064+317207019+317035983+316905625+316880104
2408+317027030+317341314+317679411+317825520+317699955+317450311+317245320
2398+317064328+316818584+316600665+316633320+316966736+317368210+317568818
2388+317492698+317107347+316169211+314356726+311634376+308278052+304546407
2378+300498899+296144406+291634126+287238397+283136873+279281056+275558977
2368+272094325+269230008+267188423+265972651+265704636+266778534+269480860
2358+273709955+279246359+286131417+294581583+304194304+313258477+319536513
2348+321793269+320624138+318184236+316357188+314914228+312578827+309034137
2338+304847466+300480398+296098136+291959407+288575574+286356450+285188415
2328+284576285+284138757+283823581+283824287+284406066+285697400+287585187
2318+289741175+291705899+293134946+294115246+295097701+296437199+298114887
2308+299862640+301409488+302647717+303649025+304508422+305190040+305609736
2298+305852582+306167368+306683690+307253693+307665680+307903121+308098435
2288+308340073+308608664+308827586+308939461+308953801+308910782+308814212
2278+308647336+308433820+308241609+308133206+308106515+308074585+307937466
2268+307695994+307466021+307350337+307307132+307196966+306972694+306744188
2258+306632591+306654305+306770806+306950906+307150919+307292626+307294650
2248+307137972+306903782+306742182+306796141+307116983+307609882+308080250
2238+308366765+308436476+308397804+308437628+308672765+309059714+309507885
2228+310013322+310599337+311224915+311862883+312605389+313579968+314761061
2218+315974102+317111768+318224766+319411282+320782432+322479754+324515062
2208+326659737+328662316+330507456+332383653+334451838+336677759+338931320
2198+341227863+343681213+346224503+348634686+350819854+352873031+354910754
2188+356978641+359037910+360999922+362774626+364299909+365629006+366922439
2178+368182548+369172136+369735545+369925713+369813187+369508338+369247215
2168+369155270+369080711+368801979+368248043+367482132+366569147+365548168
2158+364555832+363776287+363183679+362571568+361842509+361100783+360569249
2148+360355751+360241776+360305524+361755431+365987647+372786816+380615360
2138+388462590+396242616+403856622+411030629+417699404+423989180+430100638
2128+436210574+442397780+448784962+455393368+461712121+466952907+470679221
2118+472817062+473535495+473360335+472898122+472533983+472748261+474372547
2108+478263322+484982100+494802338+507514922+521772663+534901953+544045030
2098+547454683+544669922+536604513+525488613+513401180+501078145+488523967
2088+475701309+462443779+448672176+434674109+420937351+408120563+396884931
2078+387368798+379299377+372525469+366892756+362095794+358052001+354811936
2068+352171723+349925518+348051922+346404381+344816724+343359165+342061422
2058+340875277+339951593+339366414+338919581+338602547+338700213+339347171
2048+340514890+342285025+344911678+348861669+354679201+362687920+373167189
2038+386629598+403360454+422858796+443957983+465124225+484638467+500820328
2028+512049125+517093428+516110045+510736746+502924028+494160841+485300545
2018+476469337+467398292+457972098+448362015+438842167+429540759+420325723
2008+411122797+402213575+393928056+386270214+379041188+372101631+365493076
1998+359520779+354655797+351132133+348567148+346104882+343182147+340070137
1988+337360863+335238700+333549328+332140101+330870220+329654913+328606444
1978+327861151+327337269+326837832+326261235+325684490+325343903+325399182
1968+325612865+325470732+324751667+323768432+322938067+322372392+322012971
1958+321892198+322004204+322111380+321956318+321562236+321170681+320994890
1948+321156230+321770905+322831485+323831846+323867509+322632773+320949122
1938+319812311+319438996+319422353+319349651+319149639+319012631+319044729
1928+319201091+319619728+320517965+321646046+322534401+323263385+324060835
1918+324392877+323605754+322207857+321356391+321497559+322151910+322603759
1908+322545137+322181964+321868237+321750138+321769122+321850070+322012228
1898+322335688+322765359+323060028+323225158+323688783+324506369+324857728
1888+324129153+322948914+322251693+322127688+322157779+322143960+322124159
1878+322136196+322207634+322443385+323222632+325186390+328448261+331585273
1868+332298692+330110774+327027183+324989460+324338862+324388902+324422968
1858+324146056+323695061+323410274+323517747+324056786+324999045+326368151
1848+328434924+331452613+334479885+335199768+332847426+329704953+327969144
1838+327772884+328135834+328611942+329892707+332688501+336119105+338031783
1828+337758734+336717286+335672829+334132761+332248094+331058420+330998498
1818+331530329+332075461+332747532+334037101+335890711+337389691+337702007
1808+337140939+336802804+337588478+339747085+342671008+344985717+345629294
1798+345179377+345495519+347987579+352142041+355120276+354340658+351197479
1788+349096491+349453683+351375388+353554315+355554294+357226540+358237525
1778+358949086+360771007+364962396+371015529+375939468+376873443+374684745
1768+371908714+370006067+369929911+372107984+375281960+377403268+378369080
1758+379393625+380539909+381674194+384088389+388874689+394603210+398094591
1748+398233865+396917659+396215646+396911938+398772458+400791680+401910993
1738+402872793+405987590+411717746+416167360+415471328+411952493+408881310
1728+406877096+406126306+406988693+409186418+412618360+418330908+427047584
1718+436415564+441069798+439121271+434535393+431094869+430203728+432205044
1708+436825212+442563987+447426108+451783072+458132101+466638771+473085652
1698+474894125+474069184+471671595+468622850+467674944+470268720+475444718
1688+482328848+491821130+503438585+511058275+510229173+506348911+505215778
1678+508352642+514726710+521573839+526758864+531524063+537533324+542841908
1668+544530425+544479159+546611353+551548219+556581897+559497945+561625680
1658+565895157+574482293+588201181+603338251+609625240+607298978+607127273
1648+611727268+615945107+614807776+611059135+609550310+611731764+617385466
1638+625738449+633799809+635973721+631483539+626748840+626096941+629197584
1628+633722612+638232854+642964507+647424820+650024614+651592619+655314549
1618+662192847+668337294+668649870+664190820+659170218+655386545+652478708
1608+649619388+646816907+645113307+645562072+648269897+652461322+657238223
1598+661965938+665954602+668390715+669003236+668373924+667242871+665934318
1588+664539653+663157544+661880569+660827307+660357515+661287812+664574425
1578+670053154+674897444+675644222+674300601+675836360+681476317+688167827
1568+692757866+696454312+702129933+710907609+723649801+742606281+767105090
1558+785423342+790431239+792326753+797994052+807142405+817491057+826904434
1548+834449193+841480993+850069800+860130916+868964241+871816205+864714565
1538+852895389+845149131+843284079+843989102+843215278+841032153+840793059
1528+843794216+848260770+852515127+856921648+861425500+864393817+865588469
1518+866161388+865865976+864430149+863460696+865019414+870235867+879199959
1508+889213002+892093795+883312627+871974611+865667300+864855659+867671885
1498+871430445+873191999+872313488+871409716+872920436+876517396+879327010
1488+878640413+874943744+870860052+868422825+868116713+869389602+871696733
1478+874956747+879298108+884631062+889460269+890369242+886335554+881623590
1468+880246088+882120947+884013786+883255640+881643353+883093743+888994192
1458+896075029+897411741+891513372+884489225+880017693+878089710+877527193
1448+876457065+873481467+869608933+867136636+866879487+868091154+870218035
1438+872860105+874239391+872850521+870558696+869882353+870752170+871392627
1428+871055459+870840289+871677192+873225285+874920340+876599645+877420128
1418+875911265+872458222+869141221+867012928+865631191+864324050+863208526
1408+862741854+862496519+861387905+859545366+858642114+859667810+861743500
1398+863281116+863396799+861786964+858572644+855183647+853616163+854096282
1388+854347041+852019330+848187586+846233598+847817354+852088131+857525029
1378+863272869+868939277+873896575+877487071+879824441+881397498+882109951
1368+882101332+882887563+885963390+890469620+893413641+892881141+890253336
1358+888099930+887270160+886790412+885825640+884933830+885252201+887280636
1348+890634564+894329821+897286101+899172477+900835584+903398080+906720133
1338+909234781+909983714+910072427+911277110+914132863+917727223+920773776
1328+922715578+923878580+924830943+926042907+927974308+930725523+933607504
1318+935767671+937231583+938687842+940442486+942155968+943523662+944813417
1308+946285056+947243735+946682110+945064548+944252089+945355057+947536473
1298+948926532+948211776+945674170+942930682+941200855+939992754+938002806
1288+935208720+933115571+932728102+933194848+932783083+930777384+927980103
1278+925564645+923947455+922749682+921597231+920587731+919767100+918751879
1268+917366055+916071842+915239323+914474713+913229165+911730705+910610054
1258+909668612+907809653+904456468+900342536+896558715+893432736+890589687
1248+887562377+884198939+880899324+878416254+877058292+876243679+875190120
1238+873863958+872909811+872814932+873403453+874048071+874320971+874511250
1228+875368660+877239433+879705191+882152524+884260384+885799264+886595674
1218+886952606+887632516+889294508+892036213+895201868+897652692+898780698
1208+899256657+900330277+902696846+906383782+911105331+916100076+920021722
1198+921935663+922520989+923530638+925911175+928869239+930891953+931365163
1188+931089068+931463163+933221744+935849995+938267607+940047141+941692639
1178+943816994+946441976+949099500+951437390+953496213+955314159+956687649
1168+957809266+959587536+962236442+964340290+964616162+963970505+964562593
1158+967267743+971008248+974264250+976394400+977566540+978355892+979404473
1148+980697868+981559290+982088596+983600133+986681607+989969706+991941451
1138+992818847+993652630+994604027+995137048+995393156+996510315+999406933
1128+1003701188+1008101468+1011446555+1013159962+1013428850+1013435983
1120+1014658869+1017287119+1020152383+1022689468+1025368985+1027672921
1111+1028095236+1026217999+1023288615+1021042336+1020602634+1022502904
1103+1026495208+1031005673+1034034321+1035149473+1035620528+1036111867
1094+1035627735+1033314810+1030400286+1029516871+1032058043+1036759531
1085+1041027113+1043135122+1042856873+1041054901+1039257312+1039022528
1077+1040713126+1043012975+1044645619+1046123648+1048577667+1051610029
1068+1053898585+1055127266+1055967662+1056795649+1057250507+1057501712
1060+1058944523+1062566150+1067181005+1069898414+1069082463+1066437272
1051+1064661602+1064150946+1063946475+1064466270+1066644046+1069237673
1043+1069854652+1068676345+1068445721+1070546003+1073197658+1073741823
1034+1071352444+1067095412+1062845142+1060777329+1062313608+1066436306
1025+1069875232+1070073685+1067707487+1065547617+1064864215+1064050642
1017+1060930310+1055748034+1051441965+1050475188+1052584237+1055952876
1008+1059004630+1060888108+1061399805+1060782381+1059407108+1057619030
1000+1055963204+1055349866+1056437602+1058625260+1059957737+1058687523
991+1054815508+1049512348+1043520734+1037179469+1031870736+1029578019
983+1030074782+1030284454+1028108015+1024966211+1022993277+1021965945
974+1020332855+1017526956+1013986315+1010098995+1005910987+1001328601+996386459
964+991630659+987881683+985080019+982298787+979194504+976480587+974724532
954+973362781+971145924+967532098+963686311+961375392+960646222+959828191
944+958056384+956245051+955168236+954027153+951595349+948142752+945505512
934+945105784+946422435+947843625+948407257+948190527+947989102+948879501
924+950946645+952821207+953225542+952175698+950237759+947846894+945846618
914+945171241+945540730+945738216+945328606+945021974+945317164+945732569
904+945689625+945427349+945416502+945332098+944294811+941923858+938706714
894+935687503+934221139+935259467+937961793+939733525+938976419+937242654
884+937087517+938505661+939052278+937122958+933690793+930873749+930087815
874+931416949+933748301+935565207+935955648+934877347+932823799+930534203
864+928775919+927811668+927305320+927354283+928556514+930390286+931210472
854+930861119+931346142+933652604+935927637+936100159+934426427+932270346
844+930287457+928609712+927308515+926434834+926407492+927764265+929967674
834+931770537+933292700+935921619+939711161+942736539+943486067+942237102
824+939746825+936390891+932915335+930434346+929428115+929828661+931720089
814+935115624+939543171+944410643+949255453+953195302+954757586+953142476
804+949602281+946883460+946984283+949600869+952931095+955498495+956490831
794+955238374+951815794+947427254+943770260+942683267+944936382+948524946
784+950393416+950326918+950677089+952180453+952799884+951369035+949482882
774+948536685+947557054+945458778+943448620+943230033+944416067+945683383
764+946804183+947535804+946672154+944320741+943016646+944864981+949036346
754+952707233+953581360+951643421+949046004+947852689+947971939+947964286
744+947896897+949761652+953614125+955501838+952369470+947255549+945362784
734+947231625+948964424+947907299+945639324+945223325+947560769+951031940
724+953294491+952774102+949693074+946633518+946911470+950744998+954306592
714+953999143+950532726+947360459+946442496+946662643+945775886+943059814
704+940122406+939283125+940837236+942262809+940589226+935613278+929485474
694+923631758+918363147+915346982+917756942+925974850+934347967+935267417
684+927420187+916722924+909561027+907670120+907791375+905149603+898317965
674+890216707+883520664+877597479+871938947+870180143+875259292+882078819
664+885370485+884905745+882048357+878515071+876737321+877382012+877449030
654+874498397+870653947+868755387+867775532+865980024+865325377+867947312
644+871171959+870593319+866610377+863582324+863750685+865024317+863917560
634+859557997+854820325+853129282+854291243+854381144+850076710+842072635
624+833773593+828534702+828860948+835619104+846208857+854536652+856052647
614+852919387+850066828+848719269+847010542+844327533+842214769+842570735
604+845030921+844822513+838356426+830716118
##END=
