##TITLE=<SNM>
##JCAMP-DX=4.24
##DATA TYPE=INFRARED SPECTRUM
##DATE=3/5/2025
##SAMPLING PROCEDURE=Instrument type and / or accessory
##ORIGIN=Admin
##XUNITS=1/CM
##YUNITS=ABSORBANCE
##RESOLUTION=4
##FIRSTX=4497.3318
##LASTX=599.83466
##DELTAX=-1.4281778
##MAXY=1.7186701
##MINY=0.19691963
##XFACTOR=1
##YFACTOR=1.6006363e-09
##NPOINTS=2730
##FIRSTY=0.21311143
##XYDATA=(X++(Y..Y))
4497+133141696+133686890+135133254+136285317+136358257+135493915+134149982
4487+132700499+131769565+132160109+133878628+135768704+136694620+136594719
4477+136010295+135363907+135088364+135566138+136412048+136569016+135561288
4467+134080859+133113013+133007192+133541047+134383866+135232717+135766842
4457+135785805+135356506+134635139+133664835+132637688+132082626+132271079
4447+132683463+132625315+132106523+131588765+131234901+130927249+130708987
4437+130789617+131251583+131890394+132292900+132179082+131714611+131321507
4427+131131965+130774498+129836443+128548247+127738300+127857396+128313935
4417+128183090+127383523+126676725+126658022+127247781+128010166+128498767
4407+128396986+127739203+126991862+126639841+126716756+126873193+126770686
4397+126331314+125778533+125494490+125731594+126459488+127410390+128092322
4387+128002001+127202518+126349942+125815557+125264471+124426744+123724405
4377+123713848+124287334+124806526+124934662+125015692+125459198+126052429
4367+126240155+125884941+125335586+124876701+124440950+123856898+123243196
4357+123025847+123489331+124520928+125847340+127144845+127950631+127972239
4347+127462309+126870205+126272897+125526999+124739050+124229885+124192674
4337+124546958+124968297+125096108+124953709+124995342+125427024+125804832
4327+125736091+125548122+125704066+126025049+126029062+125634571+125137675
4317+124822892+124853381+125316129+126210290+127351507+128275943+128474459
4307+127883174+126947288+126150393+125737990+125851687+126540685+127513326
4297+128169991+128189262+127999925+128316998+129209837+130049864+130384196
4287+130340265+130149755+129794736+129263972+128805785+128666003+128761155
4277+128869258+129002486+129306870+129699230+129905631+129852697+129759723
4267+129739531+129589573+129176621+128736457+128563933+128719384+129193518
4257+129953566+130768373+131345600+131574531+131510369+131401867+131596939
4247+132036078+132223730+132049577+131974756+132162846+132270920+132238263
4237+132364258+132575016+132494619+132219681+132257040+132744123+133347567
4227+133881719+134506183+135251141+135745551+135594076+134829094+133886169
4217+133255375+133230714+133804096+134651133+135350883+135707764+135752412
4207+135553849+135254576+135097645+135170613+135314986+135421850+135591516
4197+135946469+136430304+136815225+136947047+137001815+137261886+137623328
4187+137724169+137533613+137363956+137363556+137421433+137510711+137799837
4177+138386709+139031943+139271133+138927676+138467572+138577378+139300262
4167+139918210+139893828+139538223+139412079+139510127+139493872+139316070
4157+139127878+138898370+138566402+138406827+138864670+139929046+140911415
4147+141129360+140644408+139940906+139157836+138184088+137268105+136968459
4137+137570692+138848210+140283013+141361670+141844192+141949129+142168312
4127+142750846+143423869+143679267+143253868+142341460+141477034+141175452
4117+141508202+142071568+142468954+142708888+143001338+143298479+143282271
4107+142836001+142318698+142266183+142943954+144158456+145304998+145741661
4097+145365845+144666132+144119086+143867459+143939989+144302958+144782287
4087+145321941+146093719+147065196+147803507+147928310+147495762+146900259
4077+146606618+146829851+147222248+147118847+146363537+145560544+145264613
4067+145375350+145593426+145933605+146434411+146861224+147058577+147210536
4057+147487597+147750498+147767730+147484339+147024244+146622435+146562063
4047+147013873+147860332+148707098+149129741+148985109+148526037+148156514
4037+148051112+148107239+148232582+148481370+148857214+149154263+149146275
4027+148889155+148707489+148891557+149488447+150315095+151037533+151347288
4017+151254696+151027004+150748304+150318046+149901370+149876337+150322636
4007+151013970+151821460+152723850+153598266+154295549+154702934+154631614
3997+153972909+153016328+152310303+152155774+152398483+152708406+152976306
3987+153354254+153843581+154069598+153765130+153299756+153345056+154134811
3977+155309803+156271188+156510518+155904067+154861922+153999897+153665183
3967+153875457+154523605+155430082+156314683+156902281+157062386+156825924
3957+156329671+155805601+155586911+155975434+156941772+157911582+158072097
3947+157261536+156363316+156278152+156777012+156967280+156702387+156644835
3937+157134125+157991328+159154646+160599689+161773936+162045718+161699590
3927+161560245+161764459+161683299+161119104+160892324+161819832+163535763
3917+164598594+163885876+161836589+159937521+159216461+159711895+161255470
3907+164131312+168427993+172960800+175730606+175924710+174265138+171492166
3897+168220837+165708383+165250503+166724648+168099348+167676155+166804952
3887+167563827+169293666+169925969+169823099+170520233+170953201+169533573
3878+168021371+168906223+171841013+175094393+177972954+179734167+179065222
3868+177004075+176122407+176609351+176323772+174258417+171917854+171300707
3858+173728705+179937468+188677882+193704745+189570349+181147203+174597023
3848+171766872+172276456+174847300+178146372+181675500+185457643+188577302
3838+189252391+187427799+185250525+184065627+183319693+182235431+181128268
3828+180602112+180885680+182735632+187031064+192031247+193638927+191781193
3818+190248938+189515069+187124849+183314181+180895251+181571718+185018085
3808+188989285+191267624+192964862+196114813+198963583+198242915+195434697
3798+193745223+192686265+190588792+188159286+187113472+187778005+189504921
3788+191880488+194598646+197099407+199480225+202775889+207070689+210522008
3778+211828097+212355314+214321393+218778718+225347071+232352580+238049562
3768+242519008+246866407+251500390+256803653+263618503+271827939+279788271
3758+286434414+293217798+302790018+316601478+332887819+346296140+354218805
3748+361086887+371019665+382513947+390524978+395028851+401003257+411361442
3738+426304047+444053882+460237483+470169106+473744820+475003095+477397728
3728+481559122+485860867+488464331+489525617+490525795+492210856+494648834
3718+498278691+504211390+513818483+527091555+540528400+549449307+554066346
3708+557695794+562140198+568391133+576730307+585257309+591181331+593783417
3698+594365709+595365180+599754471+608740359+619859765+627688441+628217073
3688+624209175+621053842+620058095+620545132+622603952+626340720+631337849
3678+636891985+640359299+638602480+634491022+633223139+634418929+633684519
3668+630813909+630240740+633994564+640171693+645709072+649650873+653233104
3658+657159935+660506076+663249108+667826266+676373972+686943037+692099992
3648+687126919+677576390+670377522+667649534+667920106+668516362+668661740
3638+670171372+674322228+680207187+686878541+694355727+700966829+702529935
3628+698981666+696273414+697064500+699406255+701221984+702416582+704097808
3618+707078792+711201719+714917634+716037830+714880173+714759819+717013841
3608+718987385+719407580+720982156+725075888+728922956+729741002+728597867
3598+727836497+727650009+727273829+727611430+730418438+734493030+735243526
3588+729606722+721260101+716687039+717436940+720948790+725251429+729666228
3578+733239744+735309065+736311068+736734167+736640923+736391204+736778481
3568+738243874+739819120+739110404+734722416+728407432+723444785+721681338
3558+722809801+725284273+727254838+727617239+727101864+727800897+730843622
3548+734627757+736087863+734580688+732780450+732788642+734139715+735525940
3538+735625664+733045809+728611943+726222151+728748086+733893422+735618439
3528+731424536+725595583+723220612+724470248+726072454+726257602+725858856
3518+726310778+728186833+730422757+730974328+729172376+726538824+724922542
3508+725383698+728720678+734644887+740526718+743273028+742626798+740179808
3498+736833221+733493634+732031815+733560960+736602568+738553174+738538874
3488+737675174+737414284+738542151+740648487+742101294+741794452+740310812
3478+738298540+735637952+732831019+731003001+730152706+729330489+728691782
3468+729767665+733389516+738113764+741479939+742911297+744020396+745683747
3458+746896071+746724031+745291630+743005956+740352444+738286698+737719264
3448+738466037+739082327+738296454+736828156+736880066+739472135+742882251
3438+744123993+741957182+738063567+735307576+735153559+736417494+736646062
3428+734759729+732104206+731009704+732401366+734871816+736305780+736382714
3418+736679353+738408020+741015431+742938778+743088401+741847702+740915856
3408+741770098+744057485+745920433+746027753+744474403+741755799+738410179
3398+735568764+734477911+735520131+737942841+740629421+742648917+743156026
3388+742280260+741649223+742319658+743010052+742368440+741487759+741785738
3378+742224999+740963447+738310456+736143943+735564072+736047944+736884609
3368+738626831+742044022+746095973+748849358+750379918+751930884+752855134
3358+751399646+747464547+742915393+739912513+739458953+740891279+742651747
3348+743702979+744183573+744717195+745775725+747679709+749509440+748888607
3338+745550360+742864079+743047961+744313162+744698651+744934666+745746605
3328+745854819+744309513+742066364+740037559+737976132+736216856+736621038
3318+740586150+746604720+750776131+750332700+746175067+741455287+738765505
3308+739048440+741597686+744802694+747443694+749074127+749796471+749833784
3298+748676424+745944935+743180826+743034629+745987387+749229708+749547646
3288+746463439+742356449+740294352+741525369+744357326+745931976+745292449
3278+743603702+742053629+741359958+742417818+745651276+749634635+751616520
3268+750331806+747334959+744807609+743509341+743197509+743358005+743212181
3258+742303869+741261277+741358766+743073729+745163978+745783545+744561615
3248+742637150+741191939+741238711+743332311+746359172+748334653+748631738
3238+748000999+746993337+745707058+744503076+744092415+744893853+746464407
3228+747647684+747563750+746349788+745008993+744854827+746133658+747002721
3218+745505824+742484474+740218238+739110181+738266366+737992889+739138110
3208+740919803+741450819+739950347+737416890+735488255+734910618+735155421
3198+735638027+736708920+738490912+739602990+738763048+736855489+735649943
3188+735367306+734798159+733061672+730649910+728942692+728892644+730130438
3178+731445390+731985565+731530144+729858675+726567497+722019385+718230335
3168+717592670+720202315+723368075+724630521+724174950+723363308+722913993
3158+723097950+723726156+723826923+722783958+721325863+720345608+719794037
3148+719230029+718429484+717374082+716335586+715848884+715925297+715510390
3138+713663306+711194942+709858392+709843646+709658721+708910757+708962369
3128+710127996+710740190+709762467+708350398+708052642+708826003+709313152
3118+708503521+706858789+705571915+704803544+703426331+700552667+696793630
3108+694030862+693827542+695822535+698116253+699535992+700463668+700903599
3098+699399701+695184423+690335651+688172714+689780878+693056787+695054909
3088+694683869+692803866+690493615+688284055+686855751+687205938+689326350
3078+691355751+691212012+688857299+685981624+684168576+684075332+685205955
3068+686100935+685890689+685316030+685229266+685271121+684928456+684547957
3058+684539169+684617742+684203282+683013376+681107828+678523951+675419783
3048+672707286+671581504+672109764+673184530+673847442+673664752+672351439
3038+670279735+668631353+668100487+668201849+668173697+667871100+667637543
3028+667685953+667777186+667483824+666622656+665403928+664395595+664020682
3018+663606296+661817601+658845406+656640464+656205523+656465594+656408768
3008+656308747+656305693+655901585+655214989+654945907+655047790+654711679
2998+653444839+651487605+649555469+648359680+647989161+647812429+647077423
2988+645378100+642828408+640334424+639310674+640355724+642348558+643485660
2978+643199969+642332918+641436671+640042551+637883114+635738721+634465923
2968+634032323+633956506+633782977+633115372+631981249+630991460+630614387
2958+630486437+629823450+628397529+626727624+625375136+624569528+624433124
2948+624783423+624703547+623197639+620412676+617620601+616060400+616047701
2938+616835697+617156205+616197138+614187882+612081025+610772032+610492523
2928+610778809+611045657+611167202+611437849+611896175+611752920+609976030
2918+606670628+603243457+600876679+599506875+598491839+597574777+596842303
2908+596329386+595981694+595663159+595104476+594135206+593014860+592143303
2898+591344173+590022519+588210401+586728325+586138437+586044411+585504123
2888+584012998+582069207+580597520+579906604+579622105+579379350+578918119
2878+577888821+576441972+575399454+575105013+574873727+574067262+572981920
2868+572224199+571699664+570694794+568861190+566692406+564963553+564130537
2858+564220690+564792854+565148329+564945753+564285931+563227476+561850560
2848+560571059+559734394+559107193+558202381+556870896+555334415+553783076
2838+552161208+550484972+549164770+548627499+548709535+548770419+548329930
2828+547366245+546123535+544857403+543758395+542915362+542250624+541533233
2818+540555509+539297979+537920579+536728736+536096843+536131922+536392514
2808+536190162+535198623+533654695+532039008+530634089+529389890+528234355
2798+527344513+526876133+526552645+525810006+524338394+522364291+520430181
2788+518945014+517969711+517399075+517146414+517011836+516669432+516070531
2778+515518775+515021236+513997636+512047216+509599854+507402620+505672687
2768+504096659+502556715+501563724+501702399+502652417+503209872+502583005
2758+501187210+499775700+498422505+496862303+495239132+493938740+493023689
2748+492263510+491517147+490748069+489807137+488514528+486919136+485240518
2738+483591168+481996446+480672781+479941015+479718667+479426385+478652205
2728+477666140+476914117+476242044+475122369+473459688+471687564+470222878
2718+469166173+468345371+467450651+466317049+465103422+464040424+463200891
2708+462622918+462252362+461695020+460543506+459007956+457748080+457111643
2698+456875405+456580740+455913508+454887486+453727706+452563308+451365470
2688+450170276+449140196+448359500+447685862+446864353+445814090+444699330
2678+443601141+442373104+441053311+440056894+439658372+439606127+439449950
2668+438978442+438291511+437648222+437190417+436727324+435916093+434659419
2658+433196036+431869168+430888540+430208014+429611385+428997776+428505190
2648+428224862+427932469+427317333+426370889+425340586+424425124+423714249
2638+423230899+422819939+422229901+421435985+420620210+419861484+419173771
2628+418712056+418552007+418358368+417608207+416182472+414568163+413390136
2618+412812760+412509195+412132047+411596675+410953462+410262397+409615385
2608+409095244+408700892+408401945+408189576+407982607+407572354+406824018
2598+405914142+405198091+404873598+404870358+404925508+404700888+404058009
2588+403222796+402434205+401624574+400732945+399997679+399631107+399525910
2578+399495002+399514329+399594577+399613084+399408126+399014482+398660497
2568+398427349+398100138+397537507+396962886+396698608+396801236+397028090
2558+397016770+396577919+395934333+395490418+395318154+395138443+394841022
2548+394687564+394862956+395117441+395090667+394777829+394424254+394159305
2538+393986483+393917853+393871566+393623784+393055493+392338474+391776662
2528+391509926+391428933+391413963+391548430+391883685+392128414+391932876
2518+391367639+390752913+390212178+389759438+389550309+389683733+390026993
2508+390478170+391053201+391542621+391542993+391007398+390316594+389707975
2498+389075262+388364983+387748506+387357655+387133147+386937796+386680034
2488+386379708+386158328+386107088+386178623+386230160+386131144+385855321
2478+385503459+385192632+384934759+384671709+384370974+384074782+383923968
2468+384053370+384353360+384473788+384203998+383709886+383290734+383063879
2458+382974545+382940212+382859368+382615570+382208111+381776000+381403433
2448+381044793+380699968+380466485+380373315+380359388+380384599+380374730
2438+380211553+379962095+379855520+379853025+379608780+379059332+378640925
2428+378695441+379031590+379264775+379261945+379081414+378753942+378293270
2418+377801243+377494848+377631847+378283886+379113588+379542310+379292145
2408+378662597+378153180+377939247+377864883+377821277+377878661+378063585
2398+378229853+378186136+377880746+377468819+377177989+377067988+376986474
2388+376779430+376419933+375898302+375065286+373627560+371387316+368565525
2378+365706087+363072758+360335869+357102858+353567920+350309364+347579998
2368+345165182+342964261+341324631+340627720+340961522+342391912+345036487
2358+348652566+352711519+357184149+362731173+369542653+376356442+381372711
2348+383752561+383969808+383168593+382046460+380297275+377421005+373538003
2338+369183343+364764447+360422932+356419949+353362478+351643753+350846411
2328+350185435+349375395+348660759+348282867+348290389+348722537+349701303
2318+351226538+352920238+354182870+354785271+355156870+355856127+356907060
2308+357909845+358634722+359181898+359665882+360069915+360368341+360567788
2298+360683710+360810841+361092734+361517136+361885198+362049082+362068558
2288+362120431+362328331+362636439+362821847+362723241+362445407+362219074
2278+362108998+361992853+361765700+361450257+361165236+361057283+361198304
2268+361481760+361652199+361498927+361058996+360617091+360448626+360544068
2258+360629492+360475810+360143237+359899327+359947737+360263925+360636641
2248+360835381+360809724+360755990+360886770+361133174+361244442+361168401
2238+361088526+361095899+361119917+361196591+361510806+362103413+362751989
2228+363211656+363435121+363508406+363510752+363514923+363616694+363848539
2218+364115424+364302806+364413850+364527687+364683529+364899807+365231822
2208+365684824+366139203+366501790+366852312+367287514+367732509+368089250
2198+368445433+368924724+369435668+369798106+370047937+370385500+370867175
2188+371388396+371939744+372606864+373316324+373829279+374031221+374090653
2178+374334972+375001944+376011245+376994256+377677240+378175709+378815497
2168+379785102+381043266+382448334+383919350+385501336+387250558+389122704
2158+391112558+393420129+396261283+399537119+402874471+405997369+408885109
2148+411529349+413785493+415649297+417458249+419533640+421789263+423984672
2138+426167979+428541609+431064192+433515948+435879227+438402517+441281394
2128+444411889+447510248+450386257+452957101+455021395+456253305+456487607
2118+455825551+454434708+452440236+450014956+447378052+444683504+442006010
2108+439344194+436525829+433278965+429595038+425894167+422636876+419862527
2098+417231655+414417945+411370901+408289597+405416008+402846729+400541430
2088+398449506+396541500+394776228+393144827+391711943+390564414+389743760
2078+389190142+388721835+388170116+387567082+387077252+386745014+386441598
2068+386022111+385419971+384677778+383977069+383521387+383324956+383222439
2058+383066858+382797329+382386965+381904918+381559535+381495001+381589437
2048+381604891+381479324+381334840+381270269+381315961+381540953+382003264
2038+382602984+383180509+383758109+384488162+385371226+386223159+386908378
2028+387434440+387828196+388033750+387928366+387439542+386689008+385916615
2018+385178184+384291135+383190042+382087571+381150623+380297946+379434208
2008+378621710+377927927+377320611+376761518+376271316+375891711+375590827
1998+375227160+374781680+374556055+374760641+374993342+374649113+373746908
1988+372786687+372038611+371467565+371036012+370714461+370407322+370057283
1978+369705979+369409750+369151243+368864473+368615387+368689938+369261356
1968+369981243+370224892+369827003+369225049+368799604+368491161+368160673
1958+367914790+367857071+367823780+367583706+367117634+366602631+366262349
1948+366304354+366911707+368070035+369221325+369407218+368293985+366710473
1938+365646617+365271853+365200133+365171087+365197712+365312703+365418348
1928+365479493+365778850+366576155+367512246+368019689+368272275+368729671
1918+368979688+368266764+366952632+366151045+366286219+366822671+367027294
1908+366676251+366119243+365760827+365610385+365448399+365257442+365279673
1898+365696107+366311578+366659643+366653945+366840880+367502452+367968375
1888+367504798+366388363+365367965+364789545+364638135+364743445+364827119
1878+364763293+364694998+364825741+365502655+367314921+370310540+373009073
1868+373272756+370952785+368105672+366391975+365910114+365991405+366114291
1858+366130229+366113248+366166536+366319919+366618643+367186524+368207183
1848+370028163+372848539+375647801+376231583+374039265+371239481+369725492
1838+369512192+369723444+370016657+371087326+373664426+376963758+378923860
1828+378840372+377996036+377081915+375650296+373911985+372857439+372804487
1818+373189826+373561612+374144946+375345093+376948453+378105180+378287163
1808+377936492+377903871+378780530+380756346+383419094+385692144+386692843
1798+386844328+387615194+390116700+393828333+396301277+395558787+393101035
1788+391803846+392588155+394553060+396752230+398966780+400964864+402342934
1778+403483463+405664014+409845554+415399057+419760867+420775828+419391912
1768+417651664+416607210+417036453+419350466+422439589+424518182+425600135
1758+426822215+428219314+429684186+432430458+437438758+443336825+447184154
1748+447944258+447221094+446759788+447400693+449314135+451794639+453659523
1738+455350393+459133932+465620771+470890892+470812059+467686554+465117387
1728+464051372+464714322+467127685+470493562+474402035+480057869+488627434
1718+498211700+503635391+502750651+499272204+497002467+497345654+500509849
1708+506134291+512815289+518665691+523924976+530829478+539418183+545709559
1698+547623784+547478890+546409747+544992503+545436306+549009115+554880296
1688+562315887+572271976+584362924+592645123+592635218+589556521+589172261
1678+592923143+599676904+606947605+613123133+619367254+626731944+632881443
1668+635080799+635691504+638905151+645247692+651548080+655250664+657965693
1658+662896463+671906295+685272313+699524523+706167278+705785736+707410062
1648+712950643+717617768+717187221+714668958+714712303+718518260+725567654
1638+734813799+743060324+744633186+739106234+733232297+731220025+732595525
1628+735068880+737044212+738137001+737416518+734040587+730053728+728361629
1618+728548266+726899885+721525087+715280705+710611868+707223127+703992201
1608+700476031+697065319+694221744+691891533+689694113+687525739+685817032
1598+685021626+684943426+684906784+684523157+683760968+682467242+680589623
1588+678629558+677254728+676675973+676623170+676813233+677597691+679942499
1578+683992812+687400172+687302012+685654078+686569316+690545748+694587422
1568+696357125+697459373+700427696+706303569+716108061+731406215+749674330
1558+759424381+757624515+755066258+756948867+762794205+771256189+780966841
1548+790554385+799666546+808975846+819095522+830033318+839034436+839722745
1538+833095854+828235686+828562041+831118436+832089680+831958379+833803750
1528+838373162+843869877+848901563+854046973+859396077+862978456+864017026
1518+864313888+864886461+865408018+866183985+868584353+874254300+883953706
1508+894770032+898021290+890433879+882445414+880833005+884542366+890195853
1498+893946995+893155090+889502778+887730170+890423974+896133765+900561300
1488+900551246+897526842+894703748+893599564+894077478+895651755+898259390
1478+902039429+906799500+911822919+915516789+915655613+912424687+909537766
1468+909880133+912989440+915833089+915964018+915069336+916683086+921675746
1458+926732531+926622976+921721102+917064479+914588294+913869078+914492220
1448+915700894+916001331+914587996+912291970+910710394+911255187+914531395
1438+919501042+923089379+922853066+920211321+917681886+916115205+915557974
1428+916055624+917344733+918922287+920761700+923445747+926887441+929002863
1418+927385761+923106136+919281262+917263330+916666627+916658286+916683607
1408+916736262+916866670+916434708+914930885+913315049+912822017+913285036
1398+913943107+914732704+915183359+913449479+908827487+903591364+900203144
1388+898485202+896538767+894175563+893408235+895241168+898621270+902430206
1378+906627609+911094542+914701051+916508365+917372661+918914616+921358403
1368+923784689+925928635+928234566+930273203+930892919+930305377+930224570
1358+931559109+933516418+934867788+935334381+935558555+936100667+937034673
1348+938229420+939335838+939990037+940840629+943502632+948337849+952887302
1338+954107073+952102993+949561046+948259053+948140189+948828573+950296201
1328+952092045+953331180+953780495+953999976+954333927+954669666+955254378
1318+956829848+959569007+962423382+963953570+963679348+962265120+960426228
1308+958359216+956362659+955026034+954517734+954593402+955335111+956868650
1298+958430043+958818287+957707698+955600991+952857288+949617648+946309192
1288+943527134+941431077+939617581+937692670+935782058+934207333+932706861
1278+930485237+927188250+923408062+920188457+918230031+917278225+916266094
1268+914551354+912664277+911303299+910160387+908359776+905592539+902257346
1258+898843358+895690483+893215043+891925041+891929286+892515786+892682986
1248+892163216+891494792+891127476+890958638+890796653+890898387+891743245
1238+893300021+894824176+895650713+896032180+896801221+898190425+899397386
1228+899697525+899701398+900741830+903142496+905889476+907954998+909284026
1218+910582518+912635901+915544941+918350757+919889435+920060954+919834695
1208+920359827+922269322+925188192+927968239+930020580+931931341+934263786
1198+936711669+938880937+940836384+942489830+943440742+943796440+944456970
1188+946278657+949279675+952798824+956182948+959076273+961266394+962787123
1178+963840962+964146463+963248950+961806421+961546648+963583051+967409339
1168+971437011+974140199+975146298+975485165+976442109+978184033+979995294
1158+981548495+983231284+985499009+988322104+991061487+992875131+993409796
1148+993214072+993589656+995656295+998994914+1001730275+1002861941+1003414182
1138+1004070615+1003547196+1001122177+999027758+1000019110+1003729738
1130+1007033576+1007842834+1007419288+1008500533+1012303287+1017814004
1121+1023189174+1026960872+1028123147+1026797545+1024900488+1024421085
1113+1025080720+1025219842+1024853195+1025800458+1028533883+1030952423
1104+1031043656+1029328023+1028026030+1028839757+1031588003+1034811109
1095+1037743906+1040742839+1043643016+1045493824+1045928169+1045584983
1087+1045782568+1047781509+1051297456+1053929518+1053528017+1050906679
1078+1048420291+1047228970+1047044940+1047483455+1048859552+1051543152
1070+1055266589+1058996431+1061359040+1061558636+1060252398+1059209582
1061+1059772324+1062216261+1065689681+1068485889+1069327172+1068073142
1053+1065852411+1065092829+1067613550+1071479162+1071830764+1067091174
1044+1061504715+1059464291+1061146187+1064713745+1069079912+1072853918
1035+1073741823+1070791151+1065933069+1062239944+1061314577+1063318657
1027+1067486791+1071681514+1073157557+1070804929+1066551147+1063745108
1018+1063851907+1065081508+1064613426+1062418240+1061418248+1063237255
1010+1065744495+1065948337+1063999816+1062432614+1062284257+1062031411
1001+1060291721+1057674628+1055347545+1053893695+1054033413+1056347984
993+1059681836+1061062475+1058179502+1051964613+1046309040+1044499939
984+1045657746+1045826211+1042769411+1038108021+1034369837+1031854627
975+1029135427+1025487881+1021672168+1018482651+1015655759+1012472125
967+1008630792+1004374329+1000304727+997055331+994752080+992874833+990602192
957+987121697+982279255+977266784+973950359+973137079+973791948+974190247
947+973451965+971921926+970642350+970417805+971021732+971174036+969434570
937+965600759+961450648+959589488+960912185+963532854+964801853+964200533
927+963469251+964048229+965311270+965496865+963967720+961802027+959811204
917+957309847+954002285+951510088+951271913+952327464+952989632+953414370
907+954572251+955830601+955512364+953285824+950628588+948990410+948255255
897+947426186+946097978+944609199+943255892+942013480+940776207+939532902
887+938737943+939263447+941166314+943015930+943593344+943523783+943638774
877+943079905+941111946+939054020+938331601+938520994+938716047+938742710
867+938277829+936933162+935338477+934525793+934648456+935104697+935387557
857+935668184+936515723+937511469+937077869+934802249+932667463+932712968
847+934749967+936976954+937878935+937130821+935563023+934575097+934729784
837+934931018+933731505+931366364+929687597+930140263+932205115+933732250
827+933157144+931374780+930489109+931077844+932174655+933537345+935787718
817+938437506+940029658+940493347+941185082+942740889+944543585+945467463
807+944689931+942920004+942187829+943388162+945489954+947744572+950328151
797+952086981+951030908+947978278+946331610+947786577+950679306+952498238
787+952434189+951306991+950209883+949319073+947723123+945138427+943442976
777+944920509+949109572+952628571+952577928+949320637+945317244+942321290
767+940497071+939728998+940687432+943895121+948306495+951852678+953327158
757+953060980+952053392+950960975+949857015+949001730+949399954+951501747
747+953647033+953734990+952560351+952828317+955121215+957238722+957325412
737+955993629+955212150+956205290+958365100+959901618+959697404+958524330
727+958012381+958559855+958743141+957045158+953859812+951237952+950877413
717+952723975+955436771+957559193+958476516+959191264+960696204+961243902
707+958072781+952216867+947933890+946813694+946301596+944262363+941341705
697+938469754+935448330+931925159+928020894+924722418+923395997+923117680
687+920317747+914206529+909036690+907562211+907044676+904817689+903349316
677+905509498+909089047+909786070+906160718+898827941+889582765+884841239
667+891637265+904265373+911504310+909441766+900741979+890722102+883496050
657+880183200+879603626+880101202+880991341+881805664+880926398+876749475
647+870275111+864700271+862144322+862529290+864861214+867864243+869958290
637+869640649+866184581+860605793+856050979+855212377+856951768+857513765
627+855188321+852138596+851553809+853344291+853625140+849736590+844020840
617+841236771+843759950+848972315+850588672+845244260+837355072+833535635
607+835014211+839027807+844513128+851347882+856369364+856148840
##END=
