##TITLE=<SNM>
##JCAMP-DX=4.24
##DATA TYPE=INFRARED SPECTRUM
##DATE=2/5/2025
##SAMPLING PROCEDURE=Instrument type and / or accessory
##ORIGIN=Admin
##XUNITS=1/CM
##YUNITS=ABSORBANCE
##RESOLUTION=4
##FIRSTX=4497.3318
##LASTX=599.83466
##DELTAX=-1.4281778
##MAXY=1.7382292
##MINY=0.18598579
##XFACTOR=1
##YFACTOR=1.6188521e-09
##NPOINTS=2730
##FIRSTY=0.2088192
##XYDATA=(X++(Y..Y))
4497+128992143+128318308+128215629+128178984+127873460+127469610+127139738
4487+126777218+126354065+126163922+126552253+127509991+128502928+128800104
4477+128296741+127870855+128416596+129722965+130781578+130973138+130466600
4467+129646446+128748990+127999280+127581420+127344093+126957106+126561817
4457+126775367+127763094+128814215+129211787+129071433+128905756+128841903
4447+128739095+128703647+128895382+128974948+128394137+127353445+126865418
4437+127536280+128709695+129161216+128419588+127127128+126222483+126059227
4427+126317191+126504259+126416427+126204257+126014538+125601704+124585276
4417+123210157+122366292+122563099+123346112+124020536+124448770+124779718
4407+124860315+124358637+123305629+122223360+121668478+121677388+121750124
4397+121470668+120941853+120413122+119853969+119286366+119140682+119752818
4387+120753073+121354034+121116891+120251459+119296620+118678400+118525638
4377+118810682+119403156+119865687+119695555+119002105+118421486+118295013
4367+118466065+118699507+118717521+118214351+117346176+116760605+116833700
4357+117350732+118087077+119128495+120386419+121280386+121272921+120488058
4347+119507088+118717650+118078213+117387063+116608993+115988610+115793193
4337+115870145+115726725+115233442+114887453+115111653+115675381+116093931
4327+116249510+116348010+116566228+117000739+117741088+118698587+119463273
4317+119651943+119358559+118980777+118684071+118308903+117796096+117412726
4307+117392347+117588777+117773176+118109601+118968249+120298771+121491443
4297+121835710+121036966+119532971+118342675+118235946+119013693+119887990
4287+120365837+120385195+119887834+118852840+117648617+116867371+116778048
4277+117167023+117719162+118391350+119303524+120338241+121054612+121139498
4267+120827079+120662424+120884811+121235458+121401742+121454946+121673605
4257+122070837+122371870+122343786+121901092+121167407+120708715+121173731
4247+122333790+123142134+123140634+122991102+123267696+123677134+123811855
4237+123760639+123675560+123478163+123182092+122937015+122735688+122513991
4227+122442480+122713330+123106705+123175280+122945585+123041388+123847247
4217+124867292+125349944+125270397+125143132+125092754+124762100+124057125
4207+123422732+123320237+123732031+124266377+124580545+124570724+124281096
4197+123887334+123689606+123844707+124193945+124552820+124965976+125502403
4187+126076164+126577087+126889737+126793584+126178769+125355329+124863951
4177+125005493+125743605+126926408+128378765+129841016+130986062+131532383
4167+131423694+130996850+130745652+130715920+130489768+129981858+129701987
4157+129927863+130225711+130110900+129633826+129124084+128802562+128655985
4147+128449006+127992579+127443947+127139978+127218375+127594030+128110326
4137+128516201+128533607+128151968+127712846+127644537+128178340+129153530
4127+129964563+129978821+129234413+128479207+128317949+128547774+128550102
4117+128146372+127799555+128017367+128729614+129299914+129196544+128603067
4107+128199953+128398886+129065947+129926961+130803264+131442269+131614508
4097+131447939+131278359+131181028+130978348+130593064+130159621+130007448
4087+130582111+131972289+133492374+134184223+133773644+132857493+132247548
4077+132321435+132829556+133221873+133291645+133384429+133796886+134237334
4067+134233118+133840259+133480325+133257192+132944570+132531653+132232940
4057+132022455+131640052+131039670+130503686+130351209+130638628+131032426
4047+131133844+131043500+131223876+131711186+131984503+131700085+131100919
4037+130639300+130484752+130504781+130656945+131150864+131962614+132528514
4027+132436909+132141730+132399399+133205691+133790488+133532451+132563944
4017+131593144+131273849+131628794+132028622+131855517+131192092+130655749
4007+130629782+131004333+131590245+132323082+133048133+133512256+133625456
3997+133512882+133327728+133131298+132940419+132837316+132949366+133314924
3987+133868996+134482061+134877388+134744710+134188678+133807499+134055448
3977+134722646+135228752+135284772+135114788+135051266+135081402+134982018
3967+134815799+134933703+135483660+136298678+137259076+138348286+139323181
3957+139755649+139516537+138957347+138582906+138664239+139007817+139051659
3947+138520700+137890293+137753096+138043691+138376940+138728222+139213221
3937+139743213+140394939+141489634+142864330+143606133+143086091+141886158
3927+141177749+141523020+142395117+142832279+142634395+142450235+142695524
3917+142999401+142800062+142047048+141166685+140677010+140884807+141867085
3907+143733159+146532597+149628308+151748342+152215944+151318773+149464353
3897+147181119+145491804+145263379+146271780+147169134+147123561+147247835
3887+148727272+150686544+151500945+151603910+152259068+152683822+151532223
3878+149765321+149154299+149950935+151629628+154024497+156369072+157084632
3868+156319716+155912331+156349558+156304197+155047635+153589001+153175265
3858+154525945+158202957+163775377+167480758+165462759+160360426+156142119
3848+154235820+154593877+156466237+158898782+161379136+163860429+165927361
3838+166519282+165257658+163195035+161490974+160585206+160553837+161347932
3828+162564324+163763190+165310641+167820009+170330205+170801526+169643989
3818+168926238+168388053+166498664+163815933+162267949+162966591+165865854
3808+169562674+172056596+173374719+175093784+177018869+177486343+176794273
3798+176359734+175994452+175127234+174679201+175972011+179050160+182897164
3788+186626772+190075044+193554632+197671833+203177022+210104459+217087142
3778+222742516+227683379+233828484+242651716+254455711+267873597+280257216
3768+290079460+297764431+304028056+309717101+316069019+323377717+330526730
3758+337023347+344377885+354558324+368460325+385434142+402756378+417424327
3748+430035046+443197021+457181018+468793020+476762694+484195988+493552453
3738+504542875+515416654+524300693+529894763+532528432+534136358+536739394
3728+541263465+547046122+552094681+554410896+553101720+548591824+542557214
3718+537059572+533734994+533742173+536989432+540901496+542173485+540849581
3708+539535435+540211323+543402801+547688542+550377439+550717169+550550010
3698+551152665+552667218+555817790+561456742+568822105+575366697+578363659
3688+577674885+576047445+575608672+576587139+578544920+581185142+584590650
3678+588558274+590584575+587335291+580815957+575789821+573082183+570366224
3668+566716716+563429325+561403060+560130004+558672741+557228181+557043202
3658+558452931+559998449+560653424+561708548+565000321+570072113+572919332
3648+570386879+565322819+562297027+562482191+563606756+563041288+561293781
3638+561284061+563851382+566409535+567257662+568746994+573733255+580456235
3628+584079969+584389875+584840651+587224171+591429057+595968961+598510987
3618+598895820+600087175+603904356+608784725+612519837+615324125+618525360
3608+621774350+623523330+623470458+622879143+623148806+625050438+628783451
3598+634011319+639504946+643157252+643635679+642415347+642770283+646071188
3588+649656851+650242127+648867744+648445503+649245213+649792787+649884834
3578+650680127+652521964+654337219+655119109+655451217+656997544+659824734
3568+661246466+659024067+654660637+651138966+649867750+650513410+651578512
3558+651537496+650420994+649718339+650597652+652756575+654536925+653844800
3548+649845364+644435610+641250834+642280074+646047550+649517233+650988965
3538+650522541+648620688+646230909+645254246+646938645+650088002+652217470
3528+652335144+651244195+649455156+646608157+642810416+639355387+637933729
3518+639199348+641931987+643920364+644068156+643094660+641985006+640606131
3508+638306485+635414494+633411536+633371624+634194899+633213891+629638611
3498+626305748+626483878+629924769+633583849+635201680+634767583+633519416
3488+632539881+631811452+630275434+627253692+623743213+621532743+621634364
3478+623720091+626219886+627691397+628168130+628514009+629034336+629208270
3468+628556498+627212160+625620913+624490935+624871718+626866797+628371225
3458+627029316+623157495+618935304+615895042+614561529+615176444+617527122
3448+620920147+624722085+627767981+628000015+624452422+619139797+615277513
3438+613816274+613179524+612141705+611320603+611506870+612313613+612971165
3428+613053345+612218105+610417247+608546764+607854970+608444002+609026958
3418+608480305+607154229+606150357+605746599+605416921+605066845+604903295
3408+604470192+603402880+602545548+602827251+603599236+603289330+601523929
3398+599604182+598859921+599386397+600335630+600713099+600001313+598629066
3388+597771660+598151448+599353923+600311072+600077418+598519013+596594701
3378+595529304+595521388+595773046+595938033+596768855+598784700+601047195
3368+601981995+601016636+598808559+596379199+594637619+594107093+594585115
3358+595507102+596414545+596592934+595411998+593510109+592371700+592763270
3348+594244023+595991678+597614037+598859737+599253186+598620744+597431893
3338+596193226+594910743+593806723+593950870+595957841+598465810+599197920
3328+597599309+595329413+594019243+593649653+593424099+593293318+593758748
3318+594731987+595620542+596239581+596863664+597562859+597910063+597378653
3308+595978791+594361918+593209591+592730722+592856239+593399026+593836399
3298+593673254+593123435+592741326+592629801+592704065+593249025+594511293
3288+596111193+597353873+597858000+597567056+596495473+594899072+593472406
3278+592924759+593387133+594443178+595571683+596231002+595759644+593983749
3268+591896181+590894739+591297319+592261684+593119900+594026312+595127681
3258+595909277+595816640+594908313+593543099+591998870+590576622+589521645
3248+588753967+588173735+588105509+588859159+590039432+590884835+591247208
3238+591556378+591806563+591497578+590631961+589806293+589242593+588551131
3228+587551309+586729654+586699941+587418281+587919463+586985068+584553941
3218+582234081+581676235+582610961+583241782+582536108+581280099+580693608
3208+580876930+581046003+580752224+580166211+579403099+578323637+576977826
3198+575751714+574961503+574509254+573898573+572654824+571044505+570113092
3188+570492292+571468955+571761446+570824621+568923762+566695693+565106250
3178+564887581+565548079+565731990+564866336+563595894+562407963+560871098
3168+558749067+557109661+557252224+558607461+558877418+556810506+553817888
3158+552048178+551873730+552073436+551688456+550761131+549670218+548638327
3148+547752938+546885665+545685620+544001810+542226615+541046343+540817843
3138+541193435+541467884+541308458+540900429+540382016+539611208+538519559
3128+537136377+535384636+533470964+532254903+532511864+533813823+534643983
3118+533850937+531918745+530468442+530386887+530960234+531016125+530262071
3108+529164089+528192654+527573357+527259732+526922580+526230013+525112038
3098+523706249+522304989+521318016+520960724+520999016+521068825+521108810
3088+521191285+521153950+520695921+519702874+518364021+517054919+516102262
3078+515596368+515443900+515477074+515348355+514626848+513360861+512207098
3068+511708347+511780254+511946529+511680769+510687685+509202145+507736636
3058+506535376+505696233+505479331+505877861+506231876+505817993+504553663
3048+502957261+501773638+501432141+501510382+501122161+500069062+499025241
3038+498472108+498191547+497901265+497681602+497568199+497222873+496265798
3028+494685855+492798803+491046583+489859315+489344437+489063065+488485264
3018+487672041+487109924+486969532+486953038+486754840+486291804+485531637
3008+484404531+482982578+481561767+480347253+479216944+478163439+477716419
2998+478264986+479144594+479164108+478013659+476479334+475368650+474866364
2988+474742210+474663528+474381089+473835172+473097612+472182732+471000545
2978+469636545+468584477+468372031+468836982+469103368+468553622+467554242
2968+466845990+466530193+466115021+465226135+463836877+462198612+460919075
2958+460578499+460908840+460865467+459785342+458039602+456446846+455453872
2948+454968081+454667159+454259314+453598411+452783936+452125758+451805506
2938+451667471+451537316+451443390+451274428+450667281+449501073+448135601
2928+447080955+446645422+446657315+446439788+445451416+443901002+442413916
2918+441393622+440943325+440919687+440838280+440167473+438947988+437853504
2908+437464290+437640359+437795809+437654313+437387669+437109833+436691016
2898+436031365+435125800+433935733+432508736+431158249+430249260+429767519
2888+429342332+428857057+428717844+429166042+429688505+429562989+428696599
2878+427567800+426645040+426065029+425621396+425005670+424164391+423331654
2868+422704846+422249099+421866402+421637645+421655649+421588786+420848096
2858+419384575+417831951+416719021+416087500+415849796+415837204+415561944
2848+414597984+413126914+411712141+410743026+410267618+410110180+410030319
2838+409844309+409403180+408548462+407312887+406098594+405352344+405032755
2828+404657090+403954287+403215291+402852807+402845407+402807925+402427105
2818+401679015+400781292+399988835+399314604+398544202+397655463+396963264
2808+396630162+396292347+395415353+393894762+392166217+390823461+390172021
2798+390016350+389830561+389251839+388429669+387757610+387289345+386674982
2788+385728658+384719521+383948308+383392929+382925842+382541267+382221825
2778+381869429+381428926+380859261+380079138+379163079+378373273+377790795
2768+377194216+376479005+375847153+375389492+374845711+374003622+373029610
2758+372195068+371519696+370846349+370089643+369303408+368613382+368102517
2748+367686093+367191650+366628244+366155303+365689431+364854632+363508564
2738+362052848+361013813+360489104+360157769+359718960+359152498+358574954
2728+358051828+357640707+357417657+357302376+357012610+356318460+355239108
2718+353988806+352848225+351996526+351357678+350737534+350131602+349675119
2708+349296840+348721358+347893923+347161444+346877348+346950213+346935596
2698+346500394+345635845+344508187+343333254+342367415+341790792+341517447
2688+341214205+340617699+339830028+339184075+338817172+338552443+338195740
2678+337753396+337357554+337084871+336816166+336329565+335628125+334968916
2668+334476976+334065854+333759961+333636912+333452559+332814042+331757592
2658+330783286+330268481+330045431+329651467+328949291+328312505+328100390
2648+328177894+328133490+327764195+327159368+326473207+325785169+325141940
2638+324603755+324138988+323544029+322680253+321776344+321236466+321149168
2628+321207637+321107305+320833224+320527257+320225525+319844852+319369371
2618+318870619+318351029+317795060+317348850+317148554+317009709+316636180
2608+316093724+315723214+315624539+315549465+315306385+314991287+314741249
2598+314464370+313971178+313255047+312469549+311732467+311115748+310702822
2588+310498181+310377194+310213128+309984702+309740518+309511172+309274241
2578+309013305+308768568+308562989+308354648+308118859+307830289+307359226
2568+306634129+305882817+305434048+305323738+305327678+305305144+305313981
2558+305412730+305497046+305410263+305170037+304950117+304815285+304617640
2548+304215834+303677042+303184126+302814886+302525230+302321142+302275634
2538+302333587+302292073+302055677+301741076+301477783+301273345+301104861
2528+301013384+301060991+301220620+301333231+301220675+300857234+300393093
2518+300015494+299810946+299736443+299706730+299701004+299735761+299748538
2508+299612749+299280806+298816481+298301732+297811265+297435508+297202112
2498+297032210+296882688+296821145+296851171+296835835+296683533+296400174
2488+295965580+295431372+295047275+294957602+294903662+294557600+294009584
2478+293634232+293599862+293730588+293767941+293601077+293261936+292836694
2468+292443374+292204013+292144385+292155320+292106296+291961008+291746628
2458+291450474+291027736+290539257+290175061+290030491+289951606+289741940
2448+289430211+289196152+289140022+289227927+289356776+289400958+289281757
2438+289035897+288774924+288584495+288488747+288473633+288492926+288463361
2428+288315826+288075784+287845647+287681360+287550082+287433862+287386568
2418+287452750+287620351+287872285+288173631+288397657+288391913+288160965
2408+287887897+287738577+287709968+287700248+287669210+287684711+287824954
2398+288066874+288283131+288352903+288282450+288207265+288261150+288451965
2388+288647566+288626064+288172122+287202914+285762847+283861693+281458328
2378+278696271+275990308+273710581+271876917+270314223+268986490+267963030
2368+267134877+266234503+265144732+263994688+263007955+262455871+262673454
2358+263906230+266186289+269610739+274686986+281653579+289245177+295121392
2348+297697844+297352831+296222982+296216226+296939997+296718880+294958099
2338+292431095+290034744+287910577+285659035+283164285+280936694+279537513
2328+278890565+278294612+277056478+275196194+273553805+273021033+273661759
2318+274702174+275326331+275389807+275348109+275599528+276128766+276804727
2308+277659556+278673811+279567760+280059681+280193298+280224447+280285088
2298+280327209+280319311+280316752+280362831+280453333+280567104+280674744
2288+280784005+280959816+281184725+281269280+281052490+280625425+280231406
2278+280000918+279876691+279759661+279638747+279552462+279474589+279319636
2268+279079944+278899015+278943161+279197599+279450970+279523688+279449571
2258+279365550+279313432+279268550+279274459+279386794+279532892+279578272
2248+279498577+279393146+279401209+279638398+280070433+280455726+280600554
2238+280626971+280797296+281176607+281651923+282151760+282673910+283198066
2228+283703832+284229939+284836847+285527389+286267434+287074987+287985891
2218+288934166+289814289+290693400+291808448+293290397+294986873+296621070
2208+298087721+299529280+301131702+302924367+304785756+306585326+308320333
2198+310117141+312063103+314090803+316078518+317957874+319675448+321191842
2188+322557535+323861667+325087632+326109729+326865772+327476490+328119315
2178+328816337+329450987+329919657+330136154+330015350+329599184+329073334
2168+328548883+327925978+327045339+325906341+324623343+323181839+321456092
2158+319498642+317528122+315603405+313573937+311313982+308858554+306390184
2148+304021687+301624194+299361551+298295730+299603636+303218883+308015471
2138+313126364+318306882+323361222+328079955+332551927+337033030+341661999
2128+346439385+351317066+356271663+361329979+366520917+371889065+377534387
2118+383473011+389526914+395525700+401544478+407905932+415164629+424097159
2108+435487879+450018566+468442760+491305605+518043180+546769316+575167800
2098+601070502+622641955+639336315+652197809+662475929+670891298+677755038
2088+682257717+682527674+677344358+666826030+651765921+633112859+611373585
2078+586758631+560270174+533475493+507438180+482971790+460960681+441708057
2068+424987703+410717768+398713385+388384087+379348353+371606552+365011150
2058+359344915+354606041+350688123+347319508+344466582+342274815+340829004
2048+340272631+340741338+342193519+344748505+348989033+355736092+365886266
2038+380402226+399967259+424552391+453315493+484702140+516758415+547619579
2028+575669018+599649985+619251875+635169058+648289685+659283641+668611608
2018+676247665+681601895+684031881+683475250+680495408+675449721+667961530
2008+657688712+644934509+630095830+613383613+595217851+576149397+556514885
1998+536635674+517081134+498333005+480343387+462827003+446001162+430550771
1988+416822151+404633157+393830329+384448606+376327789+369031168+362201413
1978+355804870+350034400+345026416+340676094+336786637+333333265+330392893
1968+327851787+325404902+322888870+320442242+318268517+316403925+314805388
1958+313494371+312438915+311421199+310234999+308963157+307905676+307262778
1948+307004713+307029769+307251585+307410367+307053499+306033610+304782829
1938+303788548+303116968+302601630+302189643+301960352+301941188+302017329
1928+302098626+302338852+302914095+303605410+304052578+304354126+304759154
1918+304949509+304429642+303459128+302796697+302799901+303240054+303681460
1908+303853994+303795581+303702263+303682656+303728975+303844513+304086543
1898+304495530+304976148+305312840+305492149+305842648+306519401+307112648
1888+307197332+306955228+306785400+306762039+306789506+306870894+307028811
1878+307203389+307323014+307455931+307954922+309289963+311428526+313365872
1868+313783916+312584498+310966778+309932272+309614928+309707123+309934113
1858+310174542+310410957+310660185+310947816+311343142+311900657+312632399
1848+313721213+315411135+317211441+317772417+316652380+315157746+314497544
1838+314671550+315082046+315510473+316427637+318286116+320559142+321963864
1828+322098217+321778959+321440554+320776265+319869963+319355858+319495181
1818+319929278+320314001+320806383+321764673+323124107+324306957+324840207
1808+324876401+324964766+325582480+326891840+328587654+329953641+330445397
1798+330389211+330837005+332607708+335330995+337232921+336868449+335246532
1788+334382056+334948076+336301140+337699345+338945119+339977563+340675652
1778+341336849+342733287+345393797+348806410+351284076+351574505+350406494
1768+349050189+348147127+348280744+349788927+351895531+353309273+353971648
1758+354682551+355583698+356650457+358562877+361753067+365196019+367153100
1748+367325855+366916648+366948865+367782338+369390044+371267522+372666942
1738+373847251+376158606+379953143+383014171+383122382+381584634+380279029
1728+379566801+379531454+380354950+381934415+384384320+388410376+394279116
1718+400363028+403572510+403084620+401278644+400308904+400909128+403095666
1708+406575585+410625131+414414588+418211850+423164238+429114496+433794201
1698+436091896+437078021+436970436+436123302+436341750+438722619+442795509
1688+448014319+454823603+462852666+468450455+468979067+467634655+467996623
1678+471024219+475968175+481081388+485164808+488991415+493552526+497907892
1668+500582209+502597207+506092443+511311879+516322182+519441753+521535543
1658+524753310+530644105+539486318+548388583+551188232+549119736+548820949
1648+551303733+553151536+551776417+549292970+548479121+549864991+553302457
1638+558689899+564494096+567092897+565563764+563796558+564578632+567595035
1628+571207208+574422287+577375362+579954943+581647921+583218550+586334659
1618+591187892+595520578+597212488+597536975+598584294+600650875+603047871
1608+605233267+607019214+608390540+609526888+610751822+612221161+613776656
1598+615184029+616377961+617451348+618527717+619668887+620834800+621888194
1588+622654473+623091810+623471930+624254851+625721282+627950898+631092523
1578+635018100+638370992+639457450+639399349+640767473+643925961+646878630
1568+648041450+648557948+650262304+653877716+659890714+669172436+680762052
1558+689151280+692460284+695958760+702376694+710916879+720273271+729800134
1548+739162785+748318217+757312603+765764865+773152614+778219287+778290054
1538+774167937+770365041+768602291+767725113+766619510+765893732+766540054
1528+768279019+770190666+772468589+776242913+780986241+784049368+784450033
1518+783943918+783490086+782964383+782922999+784278751+787402187+792129683
1508+797146799+798990404+796039060+792253616+790728349+791514068+793724465
1498+795971755+796628239+795717997+795333606+796886046+799544236+801156691
1488+800605289+798919785+797627950+797477139+798485909+800314271+802732032
1478+805682787+808942159+812138792+814714360+815522981+814076580+812091222
1468+811627964+813066854+815108104+816266064+816868645+818495533+821814773
1458+825357652+825981588+822973838+819142591+816480940+815470109+816050451
1448+817613200+819138541+819965571+820132804+820122936+820728315+822646369
1438+825481512+827293231+826692638+825075397+824263610+824211990+823769056
1428+822386720+820574559+818967553+818105987+818797891+821208804+823287683
1418+822121402+818233013+814538954+812206907+810970744+810699240+811105207
1408+811311173+810626706+809172352+807847160+807861078+809601663+811965301
1398+813475767+813910526+813801026+813235853+812394979+811986287+812259632
1388+812475392+811990853+811749541+813539390+817698621+822625971+826673713
1378+829812393+832980086+836640786+840603329+844587816+848223995+850771507
1368+851769967+852034770+852986470+854846422+856291571+856080745+854397303
1358+852277187+850599783+849694991+849284532+848825398+848132095+847532606
1348+847294240+847196522+847008524+847029290+847693874+848978271+850479385
1338+851731602+852426083+852770415+853481097+854988028+856902473+858609406
1328+860090785+861771060+863748171+865681173+867489358+869533775+871865674
1318+874047794+876004949+878098482+880108877+881265806+881513304+881749167
1308+882708304+884376282+886525559+889184339+892232812+894943432+896461188
1298+896694180+896249331+895549474+894420970+892509912+889828894+886707446
1288+883321489+879696062+876174979+873207361+870787464+868805714+867529565
1278+867013361+866611665+865774767+864803406+864416511+865124690+866983685
1268+869328103+871061619+871868988+872598448+873753094+874397870+873581591
1258+872123702+871651903+872344249+872787698+871960962+870495710+869737384
1248+870154839+870969203+871180029+870713900+870330687+870602264+871444243
1238+872564206+873866423+875307301+876775940+878333535+880206522+882354178
1228+884386960+886050372+887498172+888953631+890342078+891443190+892314255
1218+893329357+894747923+896567448+898877477+901837216+905137163+908013691
1208+910073939+911734332+913647157+916047246+918773404+921603392+924331171
1198+926743410+928851228+930796749+932403386+933490359+934606051+936442439
1188+938752321+940759256+942090486+943070463+944693522+947923660+952376780
1178+956162739+957749936+957513337+957024821+957619965+959691480+962673236
1168+965684669+968200075+970076522+971584337+973670507+977198879+981485725
1158+984532872+985230078+984466303+983552601+982948915+983331392+985935826
1148+990484971+994585291+996641563+997773234+999538930+1001466114+1002031656
1138+1000963239+999442170+998575448+998827512+1000079213+1001308971+1001831433
1128+1003041603+1006892069+1012733710+1017611576+1019904447+1020517853
1120+1020742008+1021233837+1022227658+1023466620+1024814787+1026814432
1111+1029420265+1031154149+1030933898+1029887278+1029903405+1030959008
1103+1031101130+1029046846+1025889536+1024070747+1025303966+1029087789
1094+1033155414+1036053885+1038568408+1041630724+1044501066+1046302256
1085+1047258374+1047617212+1047680173+1048235036+1048854333+1048031353
1077+1046218235+1045755640+1047092393+1048378852+1049277164+1051660242
1068+1055999960+1059673326+1059960956+1058005937+1058154465+1062398085
1060+1066932355+1066825432+1062837926+1060092769+1061811852+1066590379
1051+1070694823+1071657053+1069904317+1068295471+1068928391+1070997402
1043+1072679961+1073232836+1073325326+1073741823+1073412513+1070230903
1034+1064801635+1061309860+1063008030+1068370287+1072585041+1072313022
1025+1068511820+1064457744+1062384757+1062356111+1062769369+1061900512
1017+1059848879+1058191431+1057640250+1057659764+1057833918+1058388634
1008+1059638863+1061297415+1062412297+1061881145+1059469864+1056512040
1000+1054952604+1055372268+1056357399+1056479860+1055943995+1055147156
991+1053395452+1049963840+1045469482+1041395892+1038602429+1036866556
983+1035520745+1034068674+1032412552+1030959818+1030435662+1031133236
974+1032111666+1031934125+1030475647+1028376739+1025195276+1020312697
965+1014825623+1010452400+1007284781+1003985055+1000049316+996862477+995579112
955+994857973+992489475+988680026+985497458+983767403+982393094+980057218
945+976456386+972584712+970426966+971214748+973805927+975570298+975069263
935+973357471+972210041+971824692+970992139+968983511+966257868+963572137
925+961474333+960391484+960325210+960646272+960599733+960073883+960001717
915+961449885+963920888+965346964+964102921+960667480+957069961+955426505
905+956563699+958921593+959733159+958225933+956327099+955422455+954393214
895+951880901+948652972+946346551+945376589+945380934+946446773+948443692
885+950109609+950251509+949174993+947802083+946304209+944752285+943819216
875+943675621+943748081+944301325+946403989+949561372+951459911+951171471
865+950366974+950159756+949243329+946430057+942866853+940756678+941233117
855+943592778+945941320+946763932+946090732+944802359+943266930+941455873
845+940026998+940188781+942336732+945603468+948673002+950372202+949940683
835+947856428+945982410+945688005+946169010+945744780+944207804+942513538
825+941427227+941551676+943153895+945441685+947135363+947542067+946688527
815+945157884+944046390+944375405+946275049+949295760+952861025+955629010
805+955871132+953806686+951845702+951491355+952026778+952631126+953424799
795+954011400+953780029+953752047+955299258+957731158+959403334+960387729
785+961882436+963576556+964275382+964379727+964996520+965707276+965313312
776+963961094+962307181+959569903+954953011+949885822+946705905+946345226
766+948102527+950536857+952868020+955798009+960076460+964657343+967667303
756+968424082+967480262+966274879+966819948+969668052+972522856+972235888
746+967801545+961292521+956431077+955628862+958158260+961604452+964330168
736+965938868+967050730+968991832+971937653+973205040+969426150+960997305
726+952394969+948177932+949886411+955442411+960792886+962950410+961901066
716+960058124+959703409+961159530+962826256+962784651+960863726+958870782
706+958437275+958663344+957254646+953640853+948916597+943712072+938546723
696+935046186+934544342+936011803+936106355+931737992+923584480+916284655
686+913742224+915516388+917974136+918043208+915919852+914194141+914555263
676+916435982+917751527+914815721+903340907+883676278+866549956+865111361
666+875367684+884591011+888301638+888911068+889055693+888499430+886462672
656+884427755+884499553+885779237+884825254+880422723+876082858+875950751
646+879169475+880517569+876854144+870425827+865419537+864165994+865786476
636+866500250+863733665+860870908+863277403+870928776+878526025+880997027
626+877414383+870860440+865920939+865570863+869887238+876266806+879703720
616+875758777+864522256+850603539+840011057+836660447+840738970+849162513
606+857582816+861875774+859424875+852707160+848837180
##END=
