##TITLE=<SNM>
##JCAMP-DX=4.24
##DATA TYPE=INFRARED SPECTRUM
##DATE=2/5/2025
##SAMPLING PROCEDURE=Instrument type and / or accessory
##ORIGIN=Admin
##XUNITS=1/CM
##YUNITS=ABSORBANCE
##RESOLUTION=4
##FIRSTX=4497.3318
##LASTX=599.83466
##DELTAX=-1.4281778
##MAXY=1.7158998
##MINY=0.27295864
##XFACTOR=1
##YFACTOR=1.5980562e-09
##NPOINTS=2730
##FIRSTY=0.29840961
##XYDATA=(X++(Y..Y))
4497+186732859+186490607+186934679+187463512+187867452+188029755+187694239
4487+186978896+186490588+186685938+187453367+188282898+188649539+188406896
4477+187877541+187396730+186981899+186710704+186989023+187945200+188902104
4467+189022633+188317362+187537754+187228906+187249458+187091239+186484527
4457+185767525+185563261+185979025+186459314+186618428+186641739+186638103
4447+186355494+185808907+185330092+184838632+184003655+183178693+183178973
4437+184074242+185085937+185627172+185727672+185643135+185582078+185579449
4427+185393760+184801091+184039350+183671365+183997594+184794918+185550636
4417+185820563+185509440+184890569+184198501+183338926+182237398+181275682
4407+181066085+181756494+182740570+183142868+182603350+181546561+180645436
4397+180163487+179946318+179807214+179634673+179362359+179119752+179141553
4387+179335560+179269038+178657851+177614061+176489911+175643801+175228019
4377+175177928+175445841+175996586+176489389+176419753+175791222+175236467
4367+175300229+175957405+176866250+177679295+178077342+177899970+177343369
4357+176766403+176352971+176202379+176500523+177212322+177863511+178037172
4347+177837160+177508115+176948344+176002778+174944348+174234898+173951395
4337+173810743+173651853+173542513+173569815+173857981+174542795+175384840
4327+175813340+175641116+175196092+174663548+174031194+173648608+173966165
4317+174701107+174942707+174119087+172556740+171179932+170806652+171558957
4307+172804269+173752166+174140366+174379914+175139044+176635579+178151080
4297+178485011+177264315+175597160+174952572+175547273+176267856+176091081
4287+175122633+174233332+174036789+174328834+174470120+174258751+174118752
4277+174274043+174273651+173711922+172908984+172468380+172617200+173245545
4267+174041787+174461410+174214963+173779487+173758544+174015678+174208995
4257+174635463+175644361+176795663+177430833+177582861+177698578+177844470
4247+177635451+176874810+176041381+175869642+176425516+176977100+176862800
4237+176093431+175166869+174704371+175030022+175793442+176346164+176537131
4227+176663012+176816793+176833931+176663478+176431782+176353418+176645053
4217+177265434+177900809+178401221+178926977+179527496+179894567+179614793
4207+178568634+177177672+176138693+175693986+175457049+175183933+175185481
4197+175619669+176018965+176010760+175922549+176197642+176736975+177228584
4187+177662455+178109157+178328172+178012629+177265080+176585451+176477491
4177+177081125+177996647+178450846+177952188+176933667+176454441+177143544
4167+178687578+180291084+181303190+181465232+180933434+180091874+179223367
4157+178496611+178153617+178326904+178833787+179456481+180111139+180553831
4147+180409245+179677976+178804004+178174839+177819164+177547950+177272838
4137+177197384+177543884+178054609+178140040+177705180+177429491+177904595
4127+178784982+179203823+178879608+178349451+178215308+178655054+179517650
4117+180384460+180693252+180197223+179191253+178174839+177569694+177691510
4107+178525200+179549838+180182882+180326872+180190379+179840652+179322617
4097+178942623+178986654+179263183+179272917+178773345+177981933+177429938
4087+177718682+179045846+180807553+182013124+182199708+181671379+180935728
4077+180265796+179700374+179101290+178293877+177420073+176966359+177222262
4067+177970557+178832817+179561158+179959857+179966478+179780658+179537921
4057+179092935+178433764+177936261+177931263+178321962+178783322+179127865
4047+179394827+179665425+179837762+179696513+179249886+178787798+178542693
4037+178495100+178559197+178787985+179318291+180153883+180999732+181354605
4027+180959338+180228311+179969406+180490779+181301194+181869060+182198011
4017+182409045+182291313+181630146+180599223+179602242+178983092+178930110
4007+179453105+180422374+181645308+182834822+183637499+183884674+183700477
3997+183248366+182610492+182037144+181962454+182493861+183113515+183206387
3987+182821787+182664071+183261831+184231808+184571297+183880963+182995690
3977+182956489+183729084+184438813+184555967+184349354+184347433+184782199
3967+185470874+185966660+185890180+185308664+184786340+184888387+185621950
3957+186518543+187179318+187614533+188223631+189456524+191089234+191974843
3947+191401476+190418351+190518311+191438924+191476949+189892372+187806115
3937+186828771+187858687+190683075+193904112+195596257+194981322+193377387
3927+192731232+193461569+194163279+193750108+193318922+194572552+197039493
3917+198106036+196058737+192171200+189001653+187790431+188150415+189741538
3907+193433670+200065479+208301670+214876861+217652836+216536594+211785585
3897+204743850+198812874+197079756+199482246+202277636+201940292+200396090
3887+201741306+205768170+208604756+209200595+209677583+209322429+206092180
3878+202412264+202337294+206106521+211219677+216133811+219649913+219675388
3868+217024753+215277238+215168719+213938829+210292090+206572059+205499903
3858+208403644+216155798+228150363+236963054+232969012+220734956+209761355
3848+204112111+204123412+208267953+214352224+220857070+227115375+231699997
3838+232154177+228378367+223424343+219260744+215561936+212274825+210598494
3828+210936696+212378682+215242010+221309796+229233820+233004614+230842921
3818+227464262+224183698+218446151+211246756+206858099+207783318+213591322
3808+220890508+225367077+227315480+230339526+234000681+234166565+231067978
3798+228124758+225231143+220982336+216877929+215333782+216621597+219631898
3788+223629614+228050627+231878152+234969278+238820524+244105084+248817770
3778+251171492+252781824+256565411+264065970+275126625+287512989+297727403
3768+304715000+310335767+315921622+322373206+331573780+344155848+357372470
3758+368285070+378415191+391912743+411342017+435200566+456331609+469002521
3748+478038088+489926222+503178539+509501183+507846821+506919364+512881558
3738+526278703+542449494+553457912+555353781+552093022+549475806+550069743
3728+553407523+557030373+558151184+556268594+552687182+548141798+543234845
3718+539729521+539764805+544420145+552625789+560070513+561478893+556890765
3708+551025584+548335152+551134719+557959397+563564647+564460252+563052393
3698+563022704+565765167+571672272+580668862+590978424+598546531+599017495
3688+592685601+584866366+579913685+579174845+582145871+587624867+595560622
3678+606550354+616164976+615466679+606749117+600378582+598204431+594407921
3668+585976361+576216462+568543660+564170892+562884738+564000551+567515199
3658+573163939+578754681+582724553+587331144+595344591+604848400+608231907
3648+601220514+589688951+580294052+575062717+573306493+573630987+574886035
3638+576552892+578795186+581776022+585454559+590918225+599649737+608765943
3628+611218450+607300160+604506226+607415822+615850925+626131171+632585030
3618+632621284+630071653+629389469+630904447+633079456+635755528+638763107
3608+640159925+639395237+639373231+642981311+649413761+654985592+657635108
3598+658871917+660649177+662828959+664723485+667504962+672856957+679369748
3588+682135037+678798413+673996865+672745435+674911194+677311483+677806729
3578+676845852+675580025+674134048+672627946+672653831+676147331+682438421
3568+687159032+686367788+682094084+679194744+678698902+677755406+674130393
3558+669206506+666204298+666784733+669516380+671401208+671553757+672283385
3548+675347359+678406708+677622625+673486402+670151568+669793207+671429853
3538+673520119+674818023+674413561+672890898+672116811+672772961+673259479
3528+672544846+672064370+672600122+672065116+668973467+665734266+665314512
3518+666591454+665888979+662104404+657744690+655565281+656302592+658749131
3508+661274444+663379854+665024034+665014336+662076207+657413631+653810698
3498+652495936+652455580+652360768+652311012+653257118+654852885+655564983
3488+655341119+655465322+655816223+654930391+652848554+651601973+652294228
3478+653703056+654562929+655272415+656445444+657659800+658400840+658732123
3468+658707432+658333107+657948935+657602882+656467749+653846579+650443266
3458+648113769+648099372+649525730+650316900+649670298+648397235+647151028
3448+646084895+645726460+646692707+648690549+650542480+651309853+651176922
3438+651052197+651700216+653114937+654080663+653140673+650611929+648325250
3428+647084115+646188286+645403755+645212639+645431654+645596736+645670065
3418+644993699+642612432+639416124+637407540+636783094+636095986+634924673
3408+634534086+636067043+639293114+643067544+646233864+647848206+647205931
3398+644395062+640478899+636739753+634108886+633383212+634960777+637930238
3388+640408778+641367492+641541152+641928457+642154037+641126769+638689256
3378+635897410+634063159+633897480+635070434+636355954+636690370+636066968
3368+635194786+634969505+636330219+639258651+641931590+642430043+640981530
3358+639224486+638463527+639444843+641949120+644125620+644176495+642738425
3348+641879522+642542162+644252434+646079972+646910678+645834848+643364811
3338+641440820+641355631+642352761+642650476+641264922+638477552+635493098
3328+634127535+635518087+638536035+640658005+640827115+640153509+639901672
3318+640221318+640599596+640573860+640224078+640272043+641184507+642398713
3308+643116181+643294243+643025845+641951283+640431157+640057206+641888846
3298+644825409+646592972+646116002+644062512+641445594+638930203+637175098
3288+636777201+637672358+638922967+639585458+639767473+640354920+641797764
3278+643568012+644775803+645228528+645535567+645960319+645657756+643853269
3268+641507584+640416909+640983992+642371560+644212003+646378656+647679618
3258+646886732+644691061+642907610+642394685+642789896+643459922+644069300
3248+644539481+644626461+643642757+641544360+640028337+640778105+643040988
3238+644614973+644567231+643426055+641754125+639990069+638800554+638687913
3228+639632080+641085443+641917491+640978397+638293149+635277738+633550607
3218+633665112+634919749+635917253+635321302+632874092+629957968+628653351
3208+629783039+632129395+633905014+634432113+634038616+633222158+632295372
3198+631297123+630195185+629284661+628920332+628719816+627789077+625883287
3188+623552373+621217616+618717107+616033537+614132186+614357505+616815457
3178+619677909+620557028+618828777+616237298+614987882+615624264+616986246
3168+617912584+618201683+617886811+616862080+615477123+614407745+613694007
3158+612726118+611344965+610091932+609074884+607582210+605436704+603708230
3148+603356061+604047085+604673322+604305076+602541915+599825337+597606168
3138+597308043+598714037+599871065+599164301+597159335+595651965+595381740
3128+595633279+595629363+595139189+594065933+592600002+591429695+591011433
3118+591032208+590930795+590485715+589734081+588619611+587201794+586206528
3108+586279185+586676411+586054836+584554441+583659433+583945510+584514569
3098+584558059+584011006+582813883+580862813+578752555+577561958+577736514
3088+578565355+578816969+577850721+576117473+574592051+573808266+573538749
3078+573259124+572637848+571730270+571038351+571147449+571954806+572671976
3068+572856938+572711549+572335098+571531396+570304024+568953530+567772855
3058+566950989+566530265+566381371+566390210+566421093+566058219+564901937
3048+563249813+561867466+561011472+560253871+559235070+558024669+556729302
3038+555437329+554596627+554643921+555230920+555596144+555590475+555543032
3028+555291828+554250388+552442543+550739880+549889667+549728613+549629474
3018+549451860+549474799+549455777+548579754+546678104+544856608+544430737
3008+545466248+546668034+546714992+545390458+543345322+541421294+540258000
2998+539787968+539205966+538078628+537035434+536738055+536799709+536295027
2988+534850877+532916928+531201919+529946050+528844187+527757055+527081547
2978+527168191+527739451+528076776+527671232+526707111+525901171+525746831
2968+526000235+526014073+525361167+524019700+522196153+520296070+519062133
2958+519178168+520247619+520735778+519709816+517970899+516660165+515685526
2948+514366885+512791110+511673879+511352033+511515361+511753473+511977263
2938+512174719+512027876+511190307+509834219+508524007+507635974+507137372
2928+506767858+506251091+505459437+504437354+503260409+501938411+500442752
2918+498821921+497337228+496427861+496345394+496863392+497479670+497812296
2908+497724085+497192772+496258676+495055100+493767192+492588681+491647460
2898+490817016+489758716+488445819+487403446+486987384+486736442+486031505
2888+485056717+484390757+483991815+483377029+482582017+482132910+482133618
2878+482060439+481494215+480545460+479510621+478566268+477886433+477602818
2868+477509684+477187726+476499089+475658611+474866994+474188502+473687326
2858+473347912+472981457+472446190+471744760+470851468+469725882+468444651
2848+467099454+465768281+464747801+464389515+464530465+464572985+464246849
2838+463768537+463241401+462526245+461678009+460915335+460237216+459543843
2828+458858488+458050571+456824877+455316761+454102928+453385161+452803943
2818+452185725+451818114+451830124+451811923+451248309+450099151+448814452
2808+447811764+447069567+446292645+445312410+444180633+443020584+441975488
2798+441225832+440854192+440645732+440165145+439195988+438024936+437098560
2788+436503654+435941980+435105903+433997251+432959764+432347253+432106344
2778+431857042+431354598+430577863+429456529+427981347+426584306+425885001
2768+425916481+425993987+425511795+424578930+423715327+423218365+422971451
2758+422588809+421689474+420313543+419029962+418328644+418010006+417490553
2748+416597597+415691287+415040657+414427587+413498861+412323184+411346903
2738+410783215+410287970+409409671+408222618+407281659+406986817+407147870
2728+407191323+406747176+405923706+404980844+403973270+402868497+401773832
2718+400837609+400078143+399391296+398610011+397629403+396598145+395841551
2708+395506874+395435895+395379053+395184990+394807234+394241793+393503363
2698+392652814+391773099+390912405+390136938+389530245+389013777+388369487
2688+387552358+386705875+385866814+385003808+384264110+383849802+383732387
2678+383664019+383376599+382782550+382062620+381446193+380922265+380324076
2668+379585646+378775454+378018077+377441521+377070180+376771906+376382065
2658+375831282+375157192+374474448+373889090+373373964+372778722+372009185
2648+371159569+370405809+369776887+369133940+368422066+367817574+367490879
2638+367305470+366924133+366230088+365505756+365108418+365044788+364976532
2628+364605750+363962953+363323475+362903087+362640806+362271031+361640729
2618+360908938+360321678+359851011+359262073+358524053+357898040+357574701
2608+357461501+357361169+357148718+356751940+356161994+355517929+355050470
2598+354875280+354850850+354652162+354033348+353068107+352123716+351558910
2588+351412104+351385249+351179065+350811118+350504862+350327696+350102265
2578+349660505+349014761+348267193+347536707+346993198+346738936+346571019
2568+346086441+345169241+344183038+343550610+343356361+343459267+343715095
2558+343919228+343794130+343260281+342590479+342165280+342112876+342179602
2548+341959282+341334014+340615874+340149535+339962559+339929587+339996277
2538+340072402+339953831+339489506+338714859+337841037+337157584+336823280
2528+336746595+336762335+336808286+336834134+336724999+336427882+336010477
2518+335560922+335160899+334918721+334864415+334835211+334645176+334363202
2508+334217552+334235381+334217515+334067054+333887836+333768146+333664569
2498+333464576+333070781+332515859+331986373+331608766+331314670+331069583
2488+331053769+331387699+331808871+331871159+331433614+330762656+330180244
2478+329791858+329533344+329312091+329079089+328827102+328526591+328141748
2468+327792525+327740978+328062079+328486570+328691039+328580524+328236895
2458+327804311+327471014+327380827+327505440+327655565+327613642+327290155
2448+326823032+326459822+326270645+326067706+325680140+325191757+324811390
2438+324606847+324468918+324303239+324171353+324199401+324378731+324532325
2428+324506664+324352436+324272468+324385183+324576150+324653395+324593718
2418+324482457+324304321+324048530+323898181+323988703+324120926+324051029
2408+323898404+323955956+324256094+324559478+324639781+324450343+324130847
2398+323895421+323827053+323814856+323740857+323613670+323453884+323183174
2388+322722690+322091157+321293907+320154708+318336905+315560575+311828702
2378+307456680+302835096+298159224+293487529+289022821+285069527+281656834
2368+278529845+275632892+273276578+271789349+271375711+272312885+274911899
2358+279198937+284824179+291504159+299458600+308677096+317713689+324264337
2348+326853206+325680364+322562047+319741444+317930093+316125606+313345471
2338+309730864+306118886+303036823+300348741+297787192+295481361+293784591
2328+292811517+292355192+292149679+292135058+292523389+293572009+295255371
2318+297216586+299027694+300446723+301515261+302499542+303657167+305027354
2308+306498750+307978594+309387478+310611475+311562971+312202001+312504863
2298+312566610+312678076+313085391+313694956+314217354+314566876+314895921
2288+315277817+315627898+315915766+316181516+316361517+316353684+316208781
2278+316048995+315887643+315682503+315450023+315238393+315077227+314963058
2268+314858846+314761386+314729944+314756873+314716032+314562997+314463038
2258+314607233+314995171+315468113+315868509+316107814+316149402+316007669
2248+315766387+315570757+315569415+315813755+316206767+316610184+316984472
2238+317344437+317640323+317802608+317831029+317749346+317590083+317473153
2228+317531263+317714025+317828418+317804212+317784220+317919836+318177194
2218+318407883+318544395+318627309+318683741+318722084+318821782+319060453
2208+319364247+319581360+319685347+319791983+320001972+320296963+320562825
2198+320693854+320703663+320706833+320769383+320860055+320969860+321152510
2188+321407928+321653388+321853343+322059043+322286711+322460484+322536609
2178+322633697+322937080+323421882+323786659+323813066+323692183+323787778
2168+324156657+324533145+324743880+324891656+325101085+325304584+325395890
2158+325442327+325594541+325866333+326134693+326315068+326446208+326619533
2148+326855705+327061517+327155844+327221750+327431142+327818223+328232196
2138+328517714+328665937+328788350+328987671+329262223+329536664+329757917
2128+329919865+330029187+330099941+330149436+330151040+330057533+329942095
2118+330012141+330376657+330900249+331388147+331776198+332049258+332173349
2108+332205910+332267564+332364875+332448200+332598064+332905401+333245300
2098+333408218+333380767+333323253+333368384+333551742+333824354+334053515
2088+334117929+334055417+334028264+334116027+334225832+334242542+334194092
2078+334200955+334293603+334365141+334341681+334325978+334480915+334822417
2068+335225574+335560959+335730480+335685573+335510308+335363130+335299648
2058+335275516+335280066+335310726+335283237+335125018+334922899+334865012
2048+335038113+335352388+335688445+336016781+336287305+336354516+336183355
2038+335977282+335927638+335992761+336057921+336152136+336373128+336696093
2028+336975233+337126776+337232591+337436388+337837493+338508190+339428784
2018+340328231+340817509+340811205+340632211+340628593+340856448+341154983
2008+341394848+341592566+341804830+341994603+342120037+342290825+342626323
1998+343058124+343582015+344477321+345759634+346673291+346432494+345253162
1988+343946680+342942835+342293735+342051334+342135702+342242077+342172553
1978+341990090+341786516+341529121+341167329+340856187+341024253+341932800
1968+343061257+343388213+342596745+341473472+340822320+340616471+340449189
1958+340237410+340131520+340112684+340009928+339762678+339528557+339563692
1948+340069866+341220479+343054693+344900619+345342379+343738668+341253264
1938+339423152+338616541+338357468+338243633+338169969+338153111+338181607
1928+338288130+338855473+340279556+342023211+343037237+343420439+344019187
1918+344367814+343144693+340716692+338977588+338933837+339876288+340423901
1908+339895870+338759020+337816047+337261907+336828390+336497070+336609188
1898+337379471+338466639+339155500+339357395+340007168+341559669+342748251
1888+342144281+340268889+338630341+337836076+337613443+337584649+337532394
1878+337459177+337476782+337643878+338425388+340986693+345880928+351120059
1868+352900676+349975302+345194342+341652728+340143903+339879011+339900271
1858+339744998+339476974+339381378+339592374+340155876+341296082+343370571
1848+346788281+351623883+356235733+357156887+353362502+348373642+345528422
1838+345053094+345399482+345737926+347117625+350885267+356004409+359147381
1828+358966148+357511332+356017837+353649512+350505869+348252162+347722490
1818+348150151+348627195+349359135+351125840+353762936+355747350+355805684
1808+354505431+353538587+354221965+356915679+360766571+363835542+364619663
1798+363861502+364045046+367140649+372571567+376294302+374307464+368564173
1788+364252163+363565652+365187901+367261197+369304393+371084077+371878343
1778+372096724+373852575+378985965+386750931+392848667+393065631+388563438
1768+383054044+378825322+377455992+379632754+383361531+385335352+385345311
1758+385447732+385916272+386485666+388986027+395174360+403157856+408041722
1748+407614173+404474856+401920264+401417671+402842836+404867420+405898529
1738+406770823+410824766+419056407+425632418+423868511+417010824+410679079
1728+406386651+404427935+404931387+407135487+410888508+418045700+430126256
1718+443909475+450810391+447153115+439080289+432767939+430519715+432866966
1708+439425223+447971102+455175364+460961622+468898011+479828626+488275254
1698+490324008+488211735+483030939+476341355+472769678+474733056+480739635
1688+489189172+501369874+517169286+527810504+525584882+517851880+513460836
1678+515073462+521712544+529871939+536350974+542145140+548858446+553302938
1668+551851255+548507619+549354661+554619864+559248759+559650647+558708233
1658+561483257+571070726+588357553+607799322+613915819+607052761+603284485
1648+606095801+607588252+600676072+590101245+583181904+582033865+586533372
1638+595647862+604467809+603625018+591949670+579819209+573655231+572851567
1628+574180763+575543080+576916438+577343577+574788500+570933916+570356242
1618+574115342+577044781+573779845+567270859+562921850+561898685+562375244
1608+562362152+561448719+560434059+559895584+559607157+559193557+558888122
1598+559201651+560002705+560506529+560243166+559497351+558724793+558108552
1588+557643705+557219064+556724900+556259605+556256696+557680555+561878096
1578+568982623+575166555+574797116+570222304+568925818+572721918+576586573
1568+575676683+572231894+570579248+572688685+580763749+597888105+620274046
1558+628699302+617468922+603698309+595322510+592035120+592093641+593695226
1548+596617467+602868797+614077768+629427737+646584393+660393236+661115628
1538+650066927+641390990+641385843+646318308+649224659+649313280+651928034
1528+659654210+670141199+680694953+691667864+702483824+708940070+709924445
1518+709262252+708099965+705279400+702616904+703985450+711765261+726182065
1508+743573701+751405431+740828701+725480710+717986827+719247880+725589471
1498+731694443+732772063+729247755+726956302+730517610+739240991+747093682
1488+748020394+743163122+737964124+735676699+736234382+738240503+741367287
1478+746687579+754833733+764720222+773041826+774788949+769074415+762451595
1468+760886040+764420419+768447955+769034506+768573351+772424616+782573385
1458+794495685+797478721+788435098+776875486+769217193+766135316+766237662
1448+766953117+765775388+762398184+758379973+755371648+754885951+758143875
1438+764257426+768616095+767206446+763117070+761384195+762389904+763086933
1428+761872652+760542374+760941465+762970637+766347170+771184898+775002444
1418+772785215+764541041+756099187+751367088+750159073+750402407+750680801
1408+751203722+752314910+753061770+752740930+752894524+755447662+760015127
1398+764504638+767338556+767703482+765381370+762205129+761138325+762984512
1388+765289094+765020249+763007339+763332281+768113539+775636066+783105034
1378+789723304+796224010+802293324+806342791+808177491+809654276+811988025
1368+814837161+818073602+822024453+825500423+825939199+822723421+818141485
1358+814320357+811650551+809836366+808763073+808234781+807695971+806678774
1348+805235034+803752132+802772233+803011240+804854518+807618838+809758562
1338+810190028+809310983+808473415+808694966+809936549+811456377+812806050
1328+814307676+816517371+819490636+822785411+826111293+829589500+833144468
1318+836155478+838249474+839948557+842032259+844726832+847769247+850798906
1308+853533761+855821260+857517434+858473760+859059193+860223494+862271763
1298+864188145+864933289+864668247+864009337+862926048+861019289+858244376
1288+854997268+851793948+848816805+845759992+842330048+838667811+835128882
1278+832062820+829854840+828676067+828187013+827970087+828136735+828982808
1268+830245576+831309470+832053570+832883455+833902144+834677797+834991252
1258+835229811+835811738+836742477+837890740+839263315+840821261+842362199
1248+843787364+845244605+846933692+848916838+851068498+853096551+854802721
1238+856421165+858466300+861088439+863749294+865772275+867113220+868313999
1228+869739462+871217516+872490280+873713512+875350904+877754774+880888793
1218+884268907+887390394+890331284+893397421+896145703+897678063+898153540
1208+899036165+901459952+905003880+908416219+911123025+913465278+915645732
1198+917274246+918343884+919816940+922626391+926581493+930431042+932820440
1188+933461746+933466520+934291407+936487675+939322489+941312572+941619761
1178+941269680+942362741+945700260+949782773+952467051+953153487+953173629
1168+954364710+957293142+960843559+963514559+964786129+965305320+966336914
1158+968973003+973271473+977785900+980393642+980327251+979285512+979785905
1148+982293762+984853165+985932277+986422003+987945038+990437305+992523916
1138+993604968+994465661+995846516+997264743+997650258+997014696+996957853
1128+998930780+1002527670+1006068166+1008391696+1009637755+1010568196
1120+1011437841+1011870799+1012169707+1014112123+1018766866+1024057990
1111+1026658571+1025864343+1023533577+1021688360+1022060372+1025687922
1103+1031136595+1034986889+1035617304+1034946607+1035468857+1037260663
1094+1038616975+1038268312+1036182968+1033333086+1031649669+1033114444
1085+1037875338+1043711538+1047943991+1049753178+1050260284+1050391425
1077+1049594884+1047488803+1045343932+1044910900+1046860179+1050565757
1068+1054342052+1056094322+1055416986+1054692804+1056214870+1059283394
1060+1061703899+1062811954+1063489663+1064201462+1064370348+1063531810
1051+1062469333+1062818668+1065599921+1070001334+1073446720+1073741823
1043+1071136692+1067122882+1062739670+1059420055+1058810005+1060636275
1034+1063222831+1065989314+1068546107+1069291922+1068276665+1068332090
1025+1070837635+1073245682+1072346721+1068571097+1065590895+1065709279
1017+1067232986+1067122509+1065037688+1063402609+1064325367+1067334959
1008+1069797611+1069414783+1065995357+1060554144+1054060003+1048079383
1000+1044801989+1045289029+1048394852+1051327983+1051390122+1048345916
991+1044765661+1043126479+1043215174+1042503971+1038793769+1032785399
983+1027598038+1025105399+1023755651+1020912930+1016441993+1012775355
974+1011631419+1011390174+1008622721+1002413016+995408262+990441184+988090725
964+987171026+985892368+982860844+977965379+972083674+966013166+960432831
954+956325104+954246176+953433895+952425203+950605050+948547755+946760275
944+944911552+942827104+941439386+941656462+942889690+943779476+943659376
934+942588171+941181432+940610918+941513834+942920648+943452371+943194417
924+943116016+943311906+943143616+942474934+941560606+940435468+939166881
914+938194591+938123202+939029474+940283067+941205004+941361657+940337896
904+938075460+935447727+933564913+932578823+931788399+930495866+928638117
894+927057195+926675485+927180577+927418167+927144025+926960145+926680781
884+925427039+923248450+921318193+920427959+920127634+919482524+918274808
874+917026661+916052133+915324818+915172865+915789926+916338658+916000885
864+915455138+916423250+919395470+922452954+923431062+922663465+922218945
854+922923210+923813220+924330845+925132234+926275275+926298102+924187470
844+921128644+919169965+919061204+919899667+920258476+919548915+918690609
834+919085597+920670174+921836638+921721387+921255308+921355118+921734665
824+922253483+923870734+927284192+931765796+935810265+938067180+937868530
814+935999293+934596283+935112117+936890496+938565261+939541653+939414392
804+937735375+934790159+931392366+928387025+927002217+928029186+930180995
794+931518211+932640738+935939466+941691299+946820997+947984477+945108039
784+941138987+938712812+937941485+937601027+937390367+937863532+938974571
774+939981474+940379595+940278815+939970061+939255352+937517330+934981723
764+933610640+935309126+939516738+943759335+946115016+946275324+944853441
754+942788537+941057975+940118507+939299662+937419086+934889745+934085521
744+936394654+939925004+941552922+941099749+941741651+945625365+950326059
734+951153557+947175703+942355580+940223838+940582646+941632367+942908414
724+944933856+946943186+946704626+943719799+941489888+943812150+949502738
714+953259489+952016862+948117035+944937810+942801592+940592046+938110446
704+935502928+933257128+932598292+933464804+933138594+929635695+924873086
694+921259337+917768000+912644568+907708522+906254563+908042565+909006127
684+905826529+899303519+893094933+890261835+890895009+892547395+893362808
674+893430915+891603228+883961570+868987828+854321499+851714578+859465669
664+867847473+873348661+876764581+878254495+876886620+873226621+869781833
654+868068875+867118293+864993563+861489544+858781619+859098281+862211638
644+865672315+867523873+868067383+868386208+868736513+868074022+864866823
634+859360637+854603697+854000436+857063589+858968185+855593070+848413387
624+842147138+839168652+837831287+835033026+831105598+830312041+835560049
614+844550560+851742104+853707272+851760753+848383698+845098919+843435194
604+842507439+838206209+829660367+822819054
##END=
