##TITLE=<SNM>
##JCAMP-DX=4.24
##DATA TYPE=INFRARED SPECTRUM
##DATE=2/5/2025
##SAMPLING PROCEDURE=Instrument type and / or accessory
##ORIGIN=Admin
##XUNITS=1/CM
##YUNITS=ABSORBANCE
##RESOLUTION=4
##FIRSTX=4497.3318
##LASTX=599.83466
##DELTAX=-1.4281778
##MAXY=1.7268142
##MINY=0.27785352
##XFACTOR=1
##YFACTOR=1.608221e-09
##NPOINTS=2730
##FIRSTY=0.30169949
##XYDATA=(X++(Y..Y))
4497+187598277+187611045+187346753+186968271+186697344+186620273+186632503
4487+186467594+185987209+185516330+185441093+185631205+185836679+186242903
4477+186946348+187405386+187092949+186304278+185866385+186320382+187348550
4467+187792225+186744173+184856748+183886304+184713538+186362133+187159865
4457+186638026+185925500+186168870+187059074+187395731+186711836+185654777
4447+184993193+184957465+185410961+186051586+186434553+186215884+185561824
4437+185138144+185455955+186251242+186706313+186395489+185784736+185498188
4427+185411851+184909636+183833249+182627347+181608852+180795572+180398410
4417+180707678+181499425+182253053+182919863+183797799+184678551+184751194
4407+183550240+181724987+180582944+180779042+181637057+181923698+181127058
4397+179821255+178998913+179213560+180213969+181356920+182273975+182882004
4387+182913433+182014668+180428357+179066848+178605031+178752725+178657808
4377+177918041+176929493+176276211+176179107+176656305+177704636+178987016
4367+179783766+179643596+178788157+177598174+176136096+174493191+173178659
4357+172770731+173419306+174873397+176613146+177916855+178351672+178244080
4347+178187430+178228718+178068923+177759470+177531480+177199938+176443085
4337+175480739+174893058+174882959+175096513+175078815+174700389+174233809
4327+174140431+174622187+175290590+175587924+175596319+175887018+176482871
4317+176726891+176323948+175664662+175090972+174700778+174748162+175395922
4307+176233941+176724445+176906644+177167211+177608996+177971634+177936702
4297+177336513+176339773+175539354+175499771+176125237+176822123+177210000
4287+177238946+176868006+176149865+175362343+174672722+174038509+173655802
4277+173966089+174972242+176012475+176455464+176340236+176160910+176146937
4267+176001726+175487781+174960271+174905641+175220227+175499734+175781594
4257+176393625+177316518+178165582+178562651+178310792+177495010+176485299
4247+175709433+175447883+175775831+176483983+177124256+177374780+177322503
4237+177231367+177147105+176890410+176397924+175886981+175558626+175329821
4227+175099014+175027817+175213649+175426276+175565390+175886295+176378596
4217+176554458+176296114+176176828+176554365+177084766+177377893+177416734
4207+177286386+177166748+177418903+178107023+178770367+179045352+179053506
4197+178982457+178795329+178504666+178306401+178284200+178219508+177833780
4187+177182259+176677005+176646057+176972226+177266835+177324560+177297838
4177+177467529+177932996+178543637+179091365+179492474+179699653+179515842
4167+178813675+177968780+177584535+177677543+177771348+177878422+178485486
4157+179441068+179882482+179480076+178908388+178963870+179811637+180973935
4147+181601625+181014889+179415754+177891857+177377893+177780466+178435081
4137+179148330+180126668+181035940+181129208+180420444+179799888+179857280
4127+180340463+180794219+181024043+180912430+180429209+179869344+179604106
4117+179615873+179652306+179673728+179720538+179529870+178857631+178125017
4107+178068330+178629326+178913502+178511801+178075427+178245322+178813990
4097+179225958+179222900+178803853+178149478+177681231+177732303+178144660
4087+178428225+178248972+177684029+177120717+176933180+177169880+177567041
4077+177860131+177938574+177783004+177513875+177392255+177510540+177607903
4067+177446014+177254920+177544248+178493585+179705009+180587336+180878740
4057+180703824+180221696+179516713+178850719+178588909+178708121+178844177
4047+179010365+179617467+180531020+180935297+180530223+179986739+179836302
4037+179801501+179570546+179448610+179893416+180877906+181808415+181889471
4027+180855909+179496792+178989721+179586983+180487990+181035533+181325825
4017+181503039+181249939+180380676+179350840+178767773+178753226+179031991
4007+179374819+179779189+180324712+180942024+181441904+181789254+182096687
3997+182299215+182184877+181845663+181717705+182007681+182368447+182366075
3987+182129079+182202926+182743038+183215603+183110308+182698637+182788106
3977+183784771+185190477+186106754+186132030+185564493+184866903+184303720
3967+184064408+184384071+185344601+186548538+187213643+186905820+185984429
3957+185043005+184338929+184046692+184565251+186198150+188572965+190497526
3947+190913663+190229694+189798231+189923206+189555676+188241589+186980798
3937+186808198+187848245+189710504+191720866+192809761+192329283+191152383
3927+190887905+191935142+192959401+192706987+191895393+192253527+194127665
3917+195777242+195204534+192485483+189563014+188123675+188470987+190280433
3907+193717106+199047986+205254783+210072256+212011309+210931920+206910994
3897+201032515+196216136+195174532+197820218+200693912+200575294+199142570
3887+199915637+202798671+204905969+205768691+207029056+207421418+204675144
3878+201099635+200791183+204245405+209078333+213469846+216151427+215529723
3868+212637071+210749795+210652209+209730428+206182586+201929890+200115756
3858+202720155+210739788+223099140+231924641+228055560+216506671+206395010
3848+201241362+201122039+204657225+210064157+216094907+222002128+226380577
3838+227224341+224433129+220243254+216223644+212493324+209330710+207616274
3828+207534792+208514798+211153071+217024768+224610918+228201215+226259123
3818+223497376+221604206+217979627+212404078+208121194+207707800+211549232
3808+217404232+221762704+224549005+228433727+232599011+232922455+229628899
3798+226522322+224200284+221278668+218386535+217331385+218590231+221559454
3788+225726795+230401670+234395021+237570793+241572224+247256848+252700028
3778+255882638+258138204+262484372+270715965+282651285+295929639+307199873
3768+315429094+321963949+327714303+333681880+341991063+353367908+365223933
3758+374910877+383996186+396295293+413779032+434636345+453089045+465183827
3748+474311165+485172989+497407682+505861372+509551386+513385906+520607751
3738+531409756+543818086+553862164+557691904+555405149+550871890+547956593
3728+548242234+550472913+551542573+549777398+546391186+543178981+540920283
3718+539902918+540720257+544162360+549729328+553866352+552476658+546857357
3708+541877903+540728522+544037274+549690190+553345736+552891498+551307411
3698+552143726+556133056+562556316+571168819+582126302+593320762+598404324
3688+593098313+582740686+575180757+573320777+576010586+581031921+587718250
3678+596334274+603399456+602638526+596230166+591414898+588020976+580453969
3668+568730887+558293984+551783256+548556449+547809937+549741855+554149399
3658+558990091+561697467+562887358+565951572+572843783+582479470+589116765
3648+586224262+576615705+568037485+564136326+563468053+562890434+561504150
3638+561038830+562798742+565981518+569688136+575037474+582826412+589512407
3628+589941517+586145393+583941696+585956597+592450757+601948349+610440992
3618+614668374+615983944+616469611+615743594+614078748+613875682+615949216
3608+618165404+619005499+619989656+623074254+627680600+631597881+633901981
3598+635668601+637611119+639093025+640081926+642143192+646530870+652215067
3588+656259398+656866555+655471969+654458162+654267216+653890735+653196111
3578+653109755+653470225+653022510+652133529+653198408+657981617+665409158
3568+671429142+671949869+667476132+661968130+657787928+654811515+652742837
3558+652154136+653324495+655336172+656351239+655016693+652346342+650991190
3548+652163476+654917514+657664881+658820415+656639881+650831451+644190449
3538+640320460+640294664+642787264+646442809+650674084+654536957+656215961
3528+654553857+650770446+647270933+644880626+642709210+640425124+639021272
3518+639359504+641151400+643609013+646382027+649116051+650337705+648245899
3508+643252546+638252522+635890012+636513847+638898595+641632175+643337864
3498+643158185+641425514+639116967+636699901+633869663+630523663+627640944
3488+626680729+628409916+632118164+635535621+636518369+635490701+634773987
3478+635187159+635278704+634205448+633093500+632624660+631714925+629680640
3468+627609440+626590148+626389418+626587332+627376466+628427706+628540153
3458+627450517+626401575+626092399+625775886+624925302+624250691+624260253
3448+624127199+623190260+622192464+621793783+621508884+621179250+621446878
3438+621825249+620601743+617641563+615059272+614471387+615417815+616724304
3428+617903706+618782902+618846872+617602166+615293248+612899976+611329268
3418+611007195+612243377+614702287+616540140+615799558+612740755+609568578
3408+607979858+607838576+608002800+607875194+607860036+608409190+609203884
3398+609450757+608605399+606896374+605426365+605593702+607917556+611201959
3388+613393277+613439494+611780170+609201771+606113837+603288343+602357148
3378+604393360+608184073+611250585+612686681+613230536+612802501+610591873
3368+607617573+606428090+607944797+610580087+612531241+613437270+613650120
3358+613208484+611962592+610183334+608571227+607561868+607151623+607280193
3348+607782019+608337326+608969352+610071998+611604272+612835969+613102559
3338+612367796+610956976+609294724+608004616+607819971+609033989+610945634
3328+612307273+612572788+612238299+611946803+611821235+611682473+611335717
3318+610561964+609171862+607253286+605357652+604291550+604555212+606054982
3308+608389881+611051374+613310405+614443220+614446926+614100466+613749670
3298+612690980+610722555+609424961+610358824+612894527+615194921+616414091
3288+616748172+616366317+615427414+614313612+613254664+612331623+611916782
3278+612471089+613919379+615584077+616597624+616497963+615754082+615343579
3268+615641227+616080047+615846146+614782267+613624399+613186135+613423631
3258+613578812+613106858+612269691+611929421+612635387+613758973+613969636
3248+612863617+611511097+611019166+611247508+611294800+610752354+610093939
3238+609884870+609939425+609779464+609638441+609941649+610028412+608713881
3228+605952208+602977277+601082681+600744893+601578391+602616029+602947664
3218+602474340+601831417+601545035+601480509+600949775+599474614+597663075
3208+596865453+597515492+598410440+598316746+597391778+596250846+594894286
3198+593506593+592974450+593661403+594802556+595492252+595445368+594733583
3188+593438101+591732412+590061117+589061394+588972185+589188481+588901840
3178+587979022+586711596+585298553+584245830+584365134+585469411+585976388
3168+584752029+582674455+581415740+581337575+581275792+580075042+577873939
3158+575903327+575283235+575894729+576452890+575891393+574377354+572680412
3148+571134128+569584287+567820781+565937303+564540344+564144591+564196997
3138+563650511+562606462+562065868+562072317+561612705+560386197+559234703
3128+558776648+558778464+558944430+559440215+560396389+561462602+562144330
3118+562287724+561868918+560634367+558484485+555936662+553713284+552037542
3108+550711669+549837143+549926278+550929708+551743636+551485200+550670419
3098+550092244+549412629+548082087+546683646+546133379+546386738+546720893
3088+546550665+545754601+544839232+544528278+544751171+544578423+543435972
3078+541754819+540401001+540012549+540559888+541183352+540967389+540014810
3068+539160001+538691198+538038602+536702388+534922389+533380257+532555543
3058+532321048+532034741+531226890+530274125+529954610+530193737+529898645
3048+528465291+526759565+525985627+526265189+526913560+527446666+527670709
3038+527349674+526374783+524931162+523297041+521834222+520981415+520722570
3028+520361285+519388173+518243276+517614882+517367342+516889866+516172596
3018+515737705+515665100+515469113+514962951+514483770+514045062+513067762
3008+511450763+510139715+509879055+510032419+509502315+508311090+507331714
2998+506911426+506751056+506759395+506988182+506936888+505941464+504237406
2988+502741527+501794952+500968199+500104310+499633839+499669530+499673978
2978+499325294+498913419+498554654+497781642+496290248+494508470+493113957
2968+492380639+492178352+492304253+492576811+492700859+492299028+491237484
2958+489824515+488533851+487648503+487253157+487236998+487143749+486368958
2948+484761151+482900578+481658651+481411111+481634116+481510476+480958208
2938+480545777+480452120+480216106+479534231+478624458+477746522+476973177
2928+476460010+476383105+476508006+476229222+475214451+473811674+472697057
2918+472215023+472096830+471718497+470674558+469211183+467998722+467356503
2908+466875581+466032669+464987692+464331946+464133588+463821670+463117557
2898+462496798+462432828+462642639+462483900+461831749+461087646+460460104
2888+459725526+458704492+457582277+456646116+455933553+455199568+454140656
2878+452721126+451365085+450690103+450906214+451531013+451789598+451311159
2868+450407131+449607212+448971071+448118153+447016841+446281188+446305872
2858+446545889+446194944+445272533+444444558+444036685+443837808+443624699
2848+443288690+442603776+441417591+439991576+438731822+437728208+436901752
2838+436419198+436497622+436833705+436730189+435917854+434795380+433721236
2828+432641939+431598483+430952298+430846707+430972720+430969051+430599464
2818+429705109+428475784+427453972+426841996+426193811+425089534+423687535
2808+422384493+421328768+420494381+419971096+419866617+419935738+419665145
2798+418892430+418029245+417518672+417330284+417050091+416287790+415016436
2788+413598575+412434887+411667620+411254559+411066022+410835345+410271995
2778+409326198+408234560+407281758+406535023+405835543+405068906+404323728
2768+403728468+403318001+403084322+402941298+402656251+401999466+400931548
2758+399613348+398320016+397268739+396446952+395719045+395082720+394660319
2748+394463962+394286729+393854284+393118372+392374565+391988078+392017505
2738+392129100+391829080+390901480+389722634+388916859+388597306+388233983
2728+387366943+386146291+385057877+384380561+384057709+383908236+383732820
2718+383284327+382431890+381378463+380452458+379703796+378954318+378167297
2708+377505954+377051086+376627648+375942622+374908913+373817423+373065833
2698+372709403+372427802+371946064+371309776+370679825+370040831+369271006
2688+368399890+367630844+367122310+366847899+366662957+366445883+366152274
2678+365746254+365136873+364264015+363257213+362432906+362055462+362056945
2668+362032039+361612195+360831326+360044341+359527320+359230524+358901631
2658+358382534+357717337+356976755+356141848+355245752+354466328+353966504
2648+353725486+353550774+353232148+352759416+352371854+352263557+352306216
2638+352178647+351658661+350738770+349644315+348757855+348301950+348109595
2628+347877473+347535164+347184220+346862184+346571021+346355021+346196616
2618+346018049+345839148+345682819+345352148+344609564+343560029+342578911
2608+341870833+341302109+340684203+340065594+339619695+339324455+338997120
2598+338649177+338481433+338453821+338226925+337644710+336947936+336404859
2588+336015703+335660348+335298026+334939002+334609553+334398519+334341184
2578+334226216+333753670+332922618+332057468+331468879+331245430+331258031
2568+331231235+330942185+330428795+329900284+329476216+329131386+328824472
2558+328579823+328449066+328393769+328245149+327881047+327422473+327121970
2548+327056703+327039951+326859346+326517630+326151712+325782496+325316101
2538+324777621+324350921+324160494+324147077+324157677+324065354+323822187
2528+323476506+323152469+322970010+322943992+322965266+322923200+322819907
2518+322682590+322410626+321861731+321107435+320460065+320162380+320136288
2508+320120647+319979550+319774928+319632127+319659924+319890749+320168532
2498+320228833+319995969+319639687+319284481+318881352+318399207+317911094
2488+317477426+317132745+316938315+316887280+316855777+316780800+316740513
2478+316753151+316689404+316485004+316237760+316009011+315725186+315346000
2468+314971113+314728614+314654526+314675466+314645816+314452016+314125570
2458+313797567+313548693+313373535+313238813+313088191+312859850+312575469
2448+312346757+312252285+312263774+312294869+312275671+312201805+312129793
2438+312090359+312026537+311862276+311606100+311346997+311164279+311058132
2428+310960731+310824860+310697106+310674887+310797119+310998128+311140596
2418+311100865+310881492+310656560+310649462+310925077+311313084+311580305
2408+311671812+311706762+311746938+311706910+311526750+311306561+311219242
2398+311345143+311574745+311669032+311496321+311177325+310890405+310608434
2388+310150305+309381537+308225299+306551539+304166495+300912465+296787431
2378+292025348+287038963+282139657+277253211+272121133+266915765+262311012
2368+258694864+255767818+253254408+251521311+251184691+252564601+255673457
2358+260313567+266160950+273219906+282018499+292398141+302277087+308831233
2348+310675962+308656910+305213380+302460361+300466993+298197361+295291997
2338+292044306+288614600+284965003+281314424+278285586+276462409+275870558
2328+276016807+276337897+276523488+276649333+277123492+278319591+280206107
2318+282400206+284498831+286294638+287786532+289104696+290409165+291780903
2308+293197838+294621815+296037805+297359824+298409618+299102538+299582293
2298+300074335+300669317+301321746+301955274+302469701+302746187+302791774
2288+302818069+303046226+303463031+303854003+304039482+304013075+303876944
2278+303702324+303490568+303262189+303107453+303074153+303045670+302832468
2268+302408714+301998192+301871753+302074837+302398652+302619711+302708365
2258+302773057+302859672+302893492+302817217+302693743+302639317+302722949
2248+302929387+303157024+303300734+303375026+303444240+303453506+303339372
2238+303270676+303501390+303995211+304440609+304632982+304654256+304686148
2228+304785067+304859952+304831284+304777136+304856135+305095781+305365521
2218+305558987+305663578+305657110+305523723+305392948+305487179+305868644
2208+306328682+306577223+306536399+306417466+306470094+306712205+306990970
2198+307215050+307401919+307586657+307786386+307995085+308187514+308349773
2188+308448137+308397973+308199633+308033482+308069266+308276482+308533844
2178+308797451+309081201+309370937+309603059+309702646+309669531+309620849
2168+309697068+309952317+310352017+310792449+311121842+311268647+311353890
2158+311551841+311854678+312095918+312175750+312126680+312010155+311901414
2148+311927061+312172304+312565203+312931121+313144675+313205272+313207347
2138+313249191+313350001+313460447+313560145+313707209+313953304+314242984
2128+314471659+314637403+314837466+315115990+315416975+315668814+315816434
2118+315817583+315710324+315626044+315669185+315854090+316183983+316669983
2108+317217062+317606144+317688719+317560409+317470718+317582090+317872697
2098+318222715+318503834+318627623+318615874+318593154+318638741+318719537
2088+318819347+318996542+319240969+319432323+319506040+319518011+319520087
2078+319505002+319460009+319373357+319251680+319184004+319281627+319552257
2068+319939189+320397467+320813456+321007923+320960001+320866455+320886951
2058+320975678+321002363+320909818+320733290+320560171+320489604+320575552
2048+320779025+320997619+321183302+321402379+321716261+322044597+322228316
2038+322191846+321984259+321720300+321523536+321476985+321590211+321813179
2028+322083920+322381310+322737332+323192755+323782753+324551169+325434813
2018+326130327+326314231+326057054+325772600+325742283+325941345+326289696
2008+326796636+327434963+328078219+328620480+329083798+329564832+330054983
1998+330415156+330691828+331256067+332254344+333130501+333198993+332504108
1988+331589592+330789710+330199416+329895874+329819006+329719938+329427960
1978+329032652+328762837+328716472+328717584+328586827+328539721+328958638
1968+329709301+330126069+329848582+329230121+328753720+328524859+328470785
1958+328587865+328778144+328775883+328449770+327985674+327674572+327674461
1948+328059688+329001371+330608252+332331657+332921432+331724129+329646295
1938+328064395+327454013+327452160+327554267+327466614+327167965+326824433
1928+326693454+327168558+328466634+330050091+331117305+331773829+332479647
1918+332587128+331151069+328891703+327498006+327594406+328455145+329009340
1908+328743602+327972183+327347718+327096694+326938919+326713320+326729479
1898+327335117+328259343+328761651+328763875+329183422+330404556+331266741
1888+330631564+329100476+327926300+327431442+327285268+327266996+327297053
1878+327334450+327441264+327790837+328864018+331497529+335901625+340245680
1868+341384276+338518495+334279660+331302135+330124994+330005950+330211794
1858+330415749+330559959+330680486+330798493+331062452+331843655+333507834
1848+336360125+340479656+344550412+345588310+342536475+338310686+335839805
1838+335400133+335707010+336064626+337355401+340724046+345301928+348211480
1828+348193394+346967256+345662323+343606839+340886639+338970991+338620306
1818+339124059+339588414+340159251+341620661+343988175+345980171+346324296
1808+345289104+344324183+344794246+347239220+350894507+353816994+354516807
1798+353705880+353671783+356182172+360810682+364183070+362838777+358258449
1788+354792515+354354992+355834934+357644176+359424694+361050068+361898391
1778+362255451+363924448+368500181+375238731+380313622+380239941+376288897
1768+371703009+368328471+367416697+369527701+372945417+374835862+375037668
1758+375305444+375824541+376365356+378570536+383942705+390720356+394688412
1748+394183473+391585839+389646878+389477206+390847480+392566252+393367728
1738+394178321+397983118+405577107+411694416+410274664+404058435+398095973
1728+393936971+392005571+392440907+394499616+397941126+404296191+414835868
1718+426734293+432593907+429303723+422197142+416669645+414757592+416898691
1708+422634627+429826489+435555606+440105802+447001683+457167252+465541443
1698+468020292+466333468+461770670+455906164+452656563+453995964+458777727
1688+466061874+477237025+491757285+500953189+498059610+490569026+486682729
1678+488484447+494607686+501530029+506495993+510919436+516664860+520986010
1668+520191465+517169577+517219314+520940461+524420590+524719276+524053560
1658+526553794+534805642+549314525+564851410+568729367+562595046+560029841
1648+563361535+565278777+559497291+550385223+544475908+543534892+547466516
1638+555729779+564582966+565796354+557279435+547686445+543164897+543467031
1628+545567843+547387721+549039707+550030090+548684982+546268027+546664188
1618+550825821+554120342+551775399+546628422+543573585+543395611+544233927
1608+544465605+544000360+543564876+543557018+543716165+543636332+543505205
1598+543997283+545250959+546410495+546584355+545870310+544979476+544331031
1588+543930645+543743702+543811563+544112622+544738941+546470166+550610044
1578+557181035+562569473+562033105+558036992+556974523+560151703+563408419
1568+563023229+560885132+560399910+563138419+570940032+586238012+605333487
1558+611924714+602076696+590489226+583673511+581205966+581642970+583539975
1548+586633950+592593633+602999663+617286171+633112847+645435303+645980418
1538+636686559+629950677+631031122+636519629+640205863+641244353+644234405
1528+651471890+660939499+670305852+679960033+689607098+695791045+697465750
1518+697820883+697974099+697027227+696314219+698704452+705874558+717961297
1508+732053041+738109123+729294482+716751652+710775254+712294667+718645544
1498+725512405+728052296+725558140+723172132+725757684+733197012+740093596
1488+740784885+736333460+731967575+730662235+731906941+733943820+736466885
1478+740836254+747935348+756927741+765040420+767775778+763526714+757351143
1468+754882115+757218608+761261160+763225989+763803867+767255051+776055090
1458+786774149+789420855+780697683+769743425+762923708+760770971+761588718
1448+762513426+760978744+757131659+753226831+751017611+751282386+754481248
1438+759775622+763447252+762158071+758327813+756059219+755812383+755615730
1428+754786939+754709478+755982945+757570849+759304409+762477253+766209592
1418+766167564+760968440+754682942+750616225+748820770+748003543+747598524
1408+748189374+749997430+751558872+751451391+750985515+752593508+756410720
1398+760365656+762814003+763236293+761562477+759205304+758780717+761243073
1388+764316441+764646520+762522321+761956674+765474125+771931223+778940403
1378+785611351+792275258+798414212+802429337+803987444+804946472+806967785
1368+810012912+813525693+817348835+820686830+821733474+819754783+816288181
1358+813193836+810966307+809141277+807365243+805729306+804261335+802729024
1348+801174031+800117677+800056820+801152387+803361977+806307406+808945513
1338+810079328+809613527+808683481+808335168+808698084+809483586+810679592
1328+812447397+814707986+817238018+820065811+823470147+827484383+831533681
1318+834801034+836996911+838575402+840291469+842697490+845774491+848916276
1308+851455649+853232053+854613371+856008328+857417814+858589804+859561730
1298+860594216+861568663+862006519+861607578+860292379+857981534+854761324
1288+851016903+847284267+844115797+841760328+839779117+837393332+834349835
1278+831152678+828545630+826979667+826390225+826382738+826683982+827344213
1268+828357575+829332763+829852749+829949853+830080091+830757000+832161667
1258+833881366+835130519+835521751+835486764+835808244+837017518+839228665
1248+842150300+845258284+848143079+850491283+851964887+852729337+853687773
1238+855431266+857518328+859325271+860859065+862393673+864080609+866009340
1228+868027391+869755911+871166360+872657902+874376563+876065204+877677569
1218+879538476+881781867+884141857+886375094+888494548+890714220+893362037
1208+896582988+900040175+903172695+905712364+907753542+909641875+911811809
1198+914254745+916327575+917647147+918772363+920363159+922362086+924536615
1188+927022470+929818981+932425437+934605229+936974929+940049928+943227146
1178+945743094+948024586+950785147+953571504+955467101+956359639+956741160
1168+957372038+959080395+961633258+963379494+963191291+962171850+962453451
1158+964749174+967606765+969155828+969480570+970646333+974020722+978240285
1148+980539566+979913655+978218714+978131766+980712500+984897149+989018718
1138+992421572+995259890+997455916+998765704+999502135+1000468279+1002052478
1128+1003753571+1004724237+1004606453+1004082315+1004348943+1005996814
1120+1008665164+1011610667+1014343876+1016404104+1016987097+1015881820
1111+1014602572+1015002921+1016672437+1017756736+1018394137+1020377498
1103+1023582586+1026004841+1027029989+1027706824+1028479206+1029317040
1094+1030894567+1033503691+1035886141+1036761704+1036499969+1036299091
1085+1036595887+1036973331+1037072362+1036885197+1036556749+1036550523
1077+1037247890+1038576950+1040502123+1042523733+1043489433+1043352450
1068+1043777037+1045554702+1047633239+1049718003+1052850153+1056893446
1060+1060230254+1061803111+1061397277+1059362325+1057606973+1058720996
1051+1062582387+1065398468+1064045169+1060233590+1058170470+1059636514
1043+1062128001+1061382527+1056677149+1051941455+1050944030+1054208047
1034+1060324764+1067537714+1073067138+1073741823+1069753605+1065095741
1025+1062960054+1063177017+1063887876+1063858226+1063197921+1062307976
1017+1060755874+1058023777+1054839221+1052463962+1050865235+1049137901
1008+1047285741+1046533003+1048060051+1051411165+1054215089+1054242441
1000+1051804991+1049301940+1048112679+1046886430+1043809949+1039462595
991+1035875467+1033579817+1031077285+1027085509+1022574709+1020047864
983+1020548133+1021841021+1020588606+1016292472+1011464641+1008436192
974+1007623412+1007679969+1006249803+1002060780+996677826+992348188+988631416
964+983461053+976753931+970486074+966008631+963209006+961400135+959768868
954+957736140+955266445+952449252+949434665+946941546+945608854+944717724
944+942762160+939541431+936813707+936375925+937889186+939391921+939935257
934+940446867+941635016+942722725+942829910+942255664+941803947+941638426
924+941413234+941079450+940877904+940744108+940299878+939568635+938873269
914+937962125+936501715+935017289+934153956+933750865+933680817+934439041
904+935669218+935579824+933237772+930276184+928984038+929800598+931489387
894+932578430+931935174+929232356+925741072+923346540+922563113+922522641
884+922434061+922322652+922774666+924215284+926018521+926831524+926384699
874+925776355+925437752+924722521+923738957+923325266+922935443+920881663
864+917237606+914348142+914074102+915850655+917538850+917891759+917891907
854+918938774+920356339+920382728+918978357+917517576+916543278+915776011
844+915145949+914651313+914514627+915534512+917761373+919596262+919715307
834+918764654+918015993+917842466+918159424+919019199+920237295+921149180
824+921327376+921481630+922874586+925298620+926822332+926438291+925524627
814+925800668+927414146+929683184+932100695+933753756+933093080+929860565
804+926629237+926555557+929760719+933324572+934779645+934163592+932640695
794+931184140+930746062+931527042+932351460+932556490+933344141+935513111
784+937523602+937596170+936279637+935127810+934219779+932804660+931343212
774+931088000+931871204+931972014+930690765+929569773+930034166+931005203
764+930265732+927732512+925548495+925109675+925795924+926715592+928133009
754+930668008+934293163+938141285+940480891+939915836+937441990+935745789
744+936252656+937918836+938771495+938348020+938366847+940286313+942754673
734+943275772+941725152+939939260+938853848+938436895+938729466+939018183
724+938247061+937500697+939438397+944228574+948361780+948503656+944861601
714+940166304+936895171+935793748+936297501+937659176+938763712+937910905
704+934566684+930527319+927879724+926624048+925384753+923244544+920088822
694+916563663+913719044+911151430+906882797+900857551+896053884+894836752
684+896592846+899283508+901507256+902799031+903005469+901523193+897563883
674+891441830+883775235+873836860+861889031+854081450+857672730+867537500
664+874283018+875799243+874344838+872224197+870079392+867329431+863724735
654+860501634+859079399+858666819+857002492+853259775+849036581+846955523
644+848679744+853195583+856828669+856287112+852414677+849137317+848406667
634+848527194+847947611+847056111+845626241+843310800+841916213+843315321
624+846263493+847937456+846403070+840255889+830043547+820654956+817955325
614+822805765+830622833+836004601+836505166+833194376+829266050+827456068
604+828146986+830289716+834103370+840183320
##END=
