##TITLE=<SNM>
##JCAMP-DX=4.24
##DATA TYPE=INFRARED SPECTRUM
##DATE=2/5/2025
##SAMPLING PROCEDURE=Instrument type and / or accessory
##ORIGIN=Admin
##XUNITS=1/CM
##YUNITS=ABSORBANCE
##RESOLUTION=4
##FIRSTX=4497.3318
##LASTX=599.83466
##DELTAX=-1.4281778
##MAXY=1.7813538
##MINY=0.32571593
##XFACTOR=1
##YFACTOR=1.659015e-09
##NPOINTS=2730
##FIRSTY=0.34650496
##XYDATA=(X++(Y..Y))
4497+208861854+208539510+208395099+208433038+208635006+208932667+208965164
4487+208360518+207448637+207109461+207705861+208700035+209386848+209493212
4477+209054534+208256903+207472654+207035450+206938104+206910691+206691550
4467+206207334+205603496+205131639+205086855+205736052+206975953+208187688
4457+208920326+209457338+210124229+210565152+210402399+209901333+209410057
4447+208995667+208932793+209482685+210027116+209517984+207955775+206492708
4437+205962827+206095329+206230112+206082736+205673699+205128801+204780859
4427+204927570+205379738+205717675+205841517+205735836+205100634+203998119
4417+203407234+204258865+206172915+207820183+208313022+207682454+206353506
4407+204880487+203997796+204234901+205421109+206789093+207536085+207415421
4397+206930343+206628335+206219783+205047353+203337983+202101225+201922323
4387+202594405+203593394+204235853+203785068+202173512+200363185+199420998
4377+199485345+199951238+200340479+200562027+200543704+200191055+199713001
4367+199537548+199815036+200187517+200076680+199247665+198153073+197535673
4357+197678108+198342897+199329868+200566321+201735175+202462443+202905288
4347+203539035+204269589+204419749+203760458+202854270+202083225+201030740
4337+199266006+197308915+196346052+196980967+198409292+199051464+198224084
4327+196876884+196330908+196778801+197480937+197951249+198274347+198466021
4317+198282880+197733653+197211192+197031337+197200719+197571134+197930914
4307+198078882+198010368+197865525+197707030+197583906+197654755+197962422
4297+198225180+198137642+197850993+197902908+198535182+199296042+199622571
4287+199581362+199614505+199755001+199581667+198916447+198168989+197896028
4277+198218713+198762084+199034147+198785293+198190635+197783287+197990392
4267+198614259+199018823+198952213+198860346+199182798+199708061+199921813
4257+199747061+199539111+199450154+199279443+198953417+198758743+198978566
4247+199567063+200279096+200878245+201088800+200644356+199663636+198696803
4237+198150468+198031386+198348466+199173546+200167217+200746157+200873269
4227+201045399+201518154+202111806+202659362+203146902+203443252+203215344
4217+202273229+200993358+200085823+199789204+199690906+199448555+199137906
4207+198919878+198954046+199423172+200108673+200347718+199945795+199611397
4197+199968645+200664924+200957089+200784905+200703529+200893766+200847814
4187+200229732+199547410+199498495+199943154+200134469+199816635+199485399
4177+199633116+200238193+200961633+201457777+201522896+201230067+200903826
4167+200831126+201044303+201381898+201667200+201868252+202092800+202311438
4157+202203960+201551962+200690451+200236881+200406406+200889041+201290821
4147+201425119+201379760+201515244+202084285+202721428+202787876+202256936
4137+201650745+201248858+201027812+201096237+201508885+201917113+201900012
4127+201377964+200495651+199495674+198809383+198878723+199755001+200977100
4117+201861300+202051537+201856324+201781432+201745199+201299462+200578410
4107+200211858+200294761+200340694+200290198+200633290+201414143+201927245
4097+201571111+200571351+199696205+199424807+199548811+199569111+199340017
4087+199167546+199325467+199650307+199680127+199238360+198812221+199133433
4077+200352030+201789193+202574609+202446652+201832234+201245894+200900718
4067+200864485+201111254+201326659+201136260+200633865+200287324+200334353
4057+200608823+200808545+200738846+200446879+200152828+199985890+199954813
4047+200187606+200813360+201494478+201535866+200766510+199896412+199665451
4037+199997010+200270240+200132278+199749665+199468351+199487285+199779665
4027+200159834+200446250+200652080+200990537+201630716+202495765+203305253
4017+203704985+203450635+202674847+201855408+201375413+201311605+201685272
4007+202465856+203273385+203650626+203684973+203863211+204319798+204632226
3997+204392085+203714470+203065615+202735224+202701973+202914575+203374091
3987+203926336+204211548+203920354+203145393+202478502+202591082+203676045
3977+205345894+206875338+207528630+207107108+206254938+205790518+205786440
3967+205746884+205524940+205510407+205946372+206556425+206965463+207121263
3957+207126275+207029091+207048060+207691023+209257526+211140409+211978297
3947+211224479+210290772+210831430+212257402+212434705+210764209+208746005
3937+207776621+208324914+210523637+213803084+216247805+216131022+214213774
3927+212816509+213006908+213901203+214489861+215120716+216558256+218456085
3917+219362003+218084125+215011118+211840730+210026343+209951506+211636624
3907+215526250+221816280+229189333+235096534+237642876+236255868+231233962
3897+224476081+219381475+218518096+221527529+224853826+225194402+224135325
3887+225145684+227931072+229491377+229693452+230528251+230713405+227998831
3878+224939513+225534117+229642453+234458134+238667732+241706590+241825133
3868+239576488+238241450+238605452+237820539+234047516+229393654+227194589
3858+229686411+238112559+251225462+260361507+256051886+244011336+233608497
3848+228136920+227752098+231438876+237388005+243862523+249915447+254288104
3838+254855510+251526626+247252143+244107478+241556789+238738744+236406064
3828+235565445+236191863+238796390+244787500+252655368+256559904+254703069
3818+251669206+248899160+243850020+237172762+232788393+233078168+237778270
3808+244092586+248595750+251798743+256560083+261517104+262065469+258848231
3798+256045904+253919341+250731438+247332693+245934296+247136276+250272066
3788+254704183+259578731+263737151+267453695+272741969+280217703+287261766
3778+291573471+294909810+300674019+310794124+325416710+342559375+358488689
3768+371239081+381694913+390199653+396434623+401402530+406132488+410147052
3758+413028313+416300718+422454061+433117231+447300206+460314739+468716582
3748+475465462+484416282+494714678+501594515+504999817+510522736+521736678
3738+538404379+556388399+568653911+571130553+566816531+561287217+558110595
3728+558676852+562125519+565560677+566932290+566126683+563254728+558902263
3718+555125540+554401991+558064105+565139784+571145212+570544392+563337936
3708+554293382+547605974+545518716+547680991+550799985+551961672+551929445
3698+552592024+554565786+558269216+564904565+575504287+588132956+595339843
3688+591198131+581610960+575341175+574275954+575875636+578691831+584401897
3678+593967548+602199094+601489449+595427471+592752328+592939368+589464330
3668+581212413+572135847+563804458+556457129+551778548+551426385+554639042
3658+558209935+559109206+558448603+560651009+568096887+578224519+583285264
3648+577146508+564122849+552543054+546344120+544313305+543074337+541386848
3638+540832267+542100696+543423662+543953273+546383030+553495714+561641249
3628+562162992+555519918+550288769+551575772+559044285+568331100+573751769
3618+574178303+574333115+577591078+582507536+586659955+589958588+592084324
3608+590730567+586017388+582306880+583188079+587990215+593036229+595523757
3598+595930819+596157774+596477244+595861370+595205114+597496585+603703208
3588+609954202+611375000+608661451+605553558+603636598+602906547+603164436
3578+603752142+603821123+603304267+603233274+605212101+610505190+618602582
3568+625798331+627460204+624096794+620216312+618028097+616516690+614216093
3558+611198954+608438268+606555870+605703592+605994894+607847185+611236607
3548+614511204+615246285+612939006+609632074+607370567+606630815+606866357
3538+607110522+606274771+604180832+602426912+602908990+605179910+606445356
3528+604962044+602137262+599843133+597851335+595362514+592943212+591528774
3518+590953139+590577084+590562856+591606270+593543241+595118349+595526201
3508+595387879+595410765+595006219+593128096+589778554+585945604+582731042
3498+581009745+580959266+581561774+581567846+581088570+581179360+582029266
3488+582534518+581752120+579913769+577669364+575377355+573576621+573018699
3478+573496430+573475628+571804917+569372681+568070840+568452500+569291269
3468+569294826+568466512+567544247+566646126+565357003+563867691+563001042
3458+563058957+563455456+563474533+562679525+560904156+558690253+557337502
3448+557665020+558830838+558978286+557033805+553439954+549386013+545920712
3438+543831766+543764293+545791839+549015526+552032629+553639066+553173191
3428+551093299+549138004+548649243+548914749+548197955+546010531+543440836
3418+541650629+540882961+540604306+540172993+539492630+539091605+539513145
3408+540580126+541301699+540779489+539232872+537735548+537005856+536853451
3398+536715847+536434210+536304798+536408845+536232296+535379444+534453227
3388+534394808+534977843+534956862+533919592+532905819+532775653+533035339
3378+532765665+531809844+530553559+529447272+529177024+530284281+532160211
3368+533284282+532917101+531753042+530688935+529938297+529407680+529032451
3358+528668934+528212077+527842632+527764202+527804836+527622323+527100509
3348+526372254+525828416+526182987+527846441+529982667+530904609+529867375
3338+527948152+526834716+527243034+528372027+528541858+526967828+525155813
3328+525519689+528288316+530849029+530716024+528263921+525677448+524140926
3318+523060939+521617362+520151224+519703744+520816929+523116950+525527557
3308+526853757+526779207+526134269+525704789+525276422+524288553+522941946
3298+522254864+523006400+524591711+525406013+524859122+524235272+524830595
3288+526156328+526799255+526431714+526078832+526551030+527534264+528424877
3278+529102797+529445296+529138797+528363225+527740633+527474624+527287980
3268+526910595+526063096+524723063+523714213+523926581+524853337+525074293
3258+524204626+523211260+522905946+523153560+523319475+522784367+521436143
3248+520134984+520067189+521206098+522142195+521906581+521061920+520528141
3238+520333593+519928077+519087655+518089547+517197569+516300382+515169916
3228+513951858+513078203+512685262+512448139+512007521+511281853+510296247
3218+509040825+507730217+506859975+506688061+506903771+507012309+506734839
3208+505975399+504947327+504244329+504151563+504151096+503702646+503099204
3198+502884967+502837974+502327477+501429607+500779962+500426181+499639651
3188+498032999+496298265+495408550+495419041+495442035+494704223+493275162
3178+491690390+490246382+488962469+487994288+487437516+486767716+485313900
3168+483387383+482145146+482206151+482976442+483318438+482528962+480779138
3158+478835412+477394350+476725735+476792274+477263322+477387237+476435835
3148+474556491+472778428+471874809+471503855+470799348+469594907+468575422
3138+468282575+468481076+468537267+468022351+466906830+465492535+464220586
3128+463376141+462921080+462621514+462349613+462285734+462653203+463152957
3118+463038168+461970540+460442857+459119531+458139674+457252187+456227169
3108+454999051+453754479+452884776+452516876+452262292+451790058+451305968
3098+451111096+451191071+451475906+451854369+451791495+450738669+449108987
3088+448006904+447890678+448247836+448530515+448595975+448207129+446993203
3078+445188302+443703696+443140493+443211522+443267677+442909154+442087415
3068+441140217+440596451+440462009+440041583+438921069+437618940+436831548
3058+436540318+436248189+435768446+435367601+435186812+434924216+434313948
3048+433634950+433351372+433423443+433311924+432558160+431250283+429999746
3038+429338820+429123038+428825484+428284484+427670048+426965542+426104965
3028+425344339+424939038+424736118+424446972+423988749+423352505+422517150
3018+421595891+420733050+419940161+419309558+419052459+419018543+418668823
3008+417819886+416844700+415982901+415084457+414046612+412957930+411950409
2998+411264836+411157735+411500127+411713789+411227902+409961055+408445587
2988+407405443+407080549+407147554+407240679+407139901+406665763+405941568
2978+405485573+405578842+405849162+405756289+405155074+404234606+403207683
2968+402193300+401273298+400550181+400078917+399784309+399527893+399170808
2958+398551701+397596993+396526131+395794930+395687434+395924593+395823205
2948+394991371+393714391+392524249+391684367+391213067+391042302+391067488
2938+391249174+391488381+391368095+390522644+389275017+388318657+387859105
2928+387573731+387183161+386627215+385889044+384946301+383847343+382812229
2918+382223841+382324977+382916815+383494820+383636735+383189938+382255888
2908+381123949+380138164+379540506+379348616+379294042+378971160+378189193
2898+377125409+376117276+375452434+375295322+375562660+375858022+375782646
2888+375327369+374726909+374022366+373101251+372111011+371447067+371243213
2878+371156124+370807697+370239320+369727925+369316265+368810869+368170925
2868+367616416+367340132+367292384+367241582+366934939+366292982+365530668
2858+364953381+364572260+364071714+363238479+362313699+361788363+361851453
2848+362135713+362089797+361496235+360494570+359339637+358387804+358044407
2838+358394882+359025665+359358571+359033964+358056263+356849486+355980646
2828+355546136+355116871+354427239+353646673+352912382+352188510+351583379
2818+351229707+350972141+350661222+350484601+350569786+350606001+350212197
2808+349336998+348154041+346954594+346154663+345976713+346116759+346029311
2798+345473078+344619040+343818534+343344899+343156925+342922964+342422239
2788+341770294+341137356+340514297+339872735+339300227+338891729+338667899
2778+338585481+338511003+338279700+337881657+337471039+337107306+336647323
2768+336016325+335400128+334951714+334476678+333698591+332691070+331752529
2758+331002215+330390006+329966095+329832552+329839270+329556770+328671942
2748+327372113+326230437+325695438+325755652+326033985+326077780+325613594
2738+324736203+323879003+323428254+323297980+323023061+322389943+321783051
2728+321631616+321705591+321371499+320461126+319436935+318711769+318234685
2718+317784223+317313750+316872234+316414191+315889502+315431352+315232672
2708+315216971+315064602+314667672+314306706+314200612+314109140+313625912
2698+312740042+311845513+311235496+310840004+310494379+310213604+310051210
2688+309874015+309488762+308905367+308319709+307885307+307593754+307329793
2678+306999725+306618028+306249913+305881689+305432162+304901150+304443467
2668+304273133+304467502+304801127+304857570+304456293+303853030+303336749
2658+302828299+302140894+301419501+300955962+300717276+300433501+300066517
2648+299842579+299847448+299876477+299689509+299220563+298547834+297813022
2638+297172628+296710993+296383475+296112419+295920547+295878008+295943936
2628+295956331+295772435+295365481+294806769+294190950+293590328+293083837
2618+292760254+292602998+292443784+292157279+291820187+291567507+291389000
2608+291156188+290785773+290343413+289996495+289833347+289750408+289581853
2598+289293497+288981824+288734803+288533859+288256138+287798203+287255101
2588+286914686+286972027+287281508+287497829+287432459+287154306+286793125
2578+286394381+285930410+285367333+284786543+284411673+284361410+284454894
2568+284437505+284260795+283991444+283641131+283220974+282807302+282499348
2558+282376349+282412906+282413355+282182627+281765362+281366528+281080921
2548+280855726+280659992+280531730+280472844+280413114+280289002+280102088
2538+279902743+279742290+279633321+279562543+279546663+279612752+279696464
2528+279663859+279473442+279207829+278932155+278650069+278421946+278378563
2518+278540435+278735559+278778456+278633021+278341000+277953682+277610626
2508+277487663+277582566+277721301+277788145+277771420+277644470+277401921
2498+277163433+277086224+277186481+277298647+277204786+276828838+276321575
2488+275916436+275696899+275559835+275410789+275310299+275356771+275474848
2478+275444633+275178696+274857214+274704306+274709695+274689324+274578828
2468+274515757+274603331+274729204+274696330+274454949+274129193+273846747
2458+273624570+273441751+273318286+273241257+273134210+273006002+272976326
2448+273059103+273106115+273041031+272952128+272901955+272828627+272675880
2438+272497948+272393093+272393362+272451098+272498595+272481960+272381560
2428+272254035+272183688+272161754+272132886+272145784+272292100+272533013
2418+272750843+272906841+273030020+273133707+273199078+273165359+272978643
2408+272734011+272662659+272858896+273118204+273162395+272963679+272753682
2398+272765466+273045019+273457685+273798568+273943285+273935560+273862789
2388+273662635+273161910+272257789+270918996+269069868+266634381+263669283
2378+260338495+256759680+252950029+248962536+245029204+241430521+238199720
2368+235184126+232489708+230561251+229724781+229983551+231294177+233730741
2358+237387071+242323666+248682605+256700866+266018184+274917249+281099927
2348+283239136+281757278+278712367+276355957+275124481+273938183+272108904
2338+269846176+267468048+264972328+262375543+260072792+258594922+258025540
2328+257856536+257495426+256804697+256142459+255984413+256553724+257731884
2318+259138491+260289795+260920955+261240173+261695539+262476716+263423106
2308+264374401+265372976+266475311+267517826+268190447+268355014+268220105
2298+268139196+268289913+268599448+268893858+269047161+269050628+269004497
2288+269022156+269132687+269279739+269377337+269353840+269186094+268918989
2278+268651615+268484335+268420995+268315619+268015730+267583322+267246248
2268+267114106+267090250+267054627+266974994+266864480+266757254+266673093
2258+266558537+266390324+266322438+266525717+266902563+267160830+267148830
2248+266975820+266837031+266815870+266848169+266849857+266832486+266841324
2238+266846408+266808792+266808522+266965904+267231464+267376234+267261894
2228+267032765+266933892+267020119+267164692+267259128+267281331+267236601
2218+267119818+266913503+266641674+266423611+266376204+266485478+266669159
2208+266877755+267039322+267051017+266931880+266844504+266889414+266988646
2198+267023047+267006718+267055777+267206404+267352181+267388791+267333894
2188+267258787+267186877+267115022+267073418+267102447+267174213+267191853
2178+267115704+267057304+267158135+267380492+267528586+267499089+267389923
2168+267312678+267250649+267188566+267202757+267319756+267452347+267547502
2158+267628860+267681997+267683147+267713955+267865696+268071580+268181932
2148+268161920+268106825+268101885+268158040+268266919+268420725+268570149
2138+268653986+268688405+268742494+268833391+268929031+269020413+269115963
2128+269213758+269335894+269532096+269805398+270076221+270262722+270369841
2118+270448989+270495480+270472253+270427487+270480732+270679538+270956990
2108+271233328+271489528+271737897+271972738+272170359+272332716+272509086
2098+272737819+272965511+273086211+273102881+273179910+273447392+273812184
2088+274077493+274190791+274238611+274270011+274276101+274294424+274398184
2078+274594762+274821610+275046410+275297401+275557715+275728677+275798575
2068+275927771+276211402+276510123+276684678+276799054+276920759+276971094
2058+276931520+276939837+277042680+277088991+276989992+276894748+276987818
2048+277244001+277523393+277829731+278277103+278796205+279097477+279018562
2038+278741397+278579758+278664817+278875605+279010316+278992316+278908317
2028+278884677+279002178+279285828+279675572+280092765+280621836+281414420
2018+282281374+282683621+282364870+281713033+281284901+281259805+281486365
2008+281803895+282172208+282608335+283094868+283567641+283983882+284330656
1998+284615365+285041073+286030253+287646768+289122319+289536656+288910436
1988+288028895+287450333+287224778+287240856+287402585+287603798+287752557
1978+287811532+287820388+287866196+287987973+288229300+288796671+289828964
1968+290897078+291193966+290499340+289478094+288797335+288508135+288441992
1958+288641283+289111290+289559668+289683888+289511075+289312503+289334724
1948+289758743+290856497+292798804+294946294+295804949+294592640+292380174
1938+290764055+290237049+290318461+290476238+290549046+290637536+290834976
1928+291197146+292028567+293618459+295441558+296584024+297182436+297943493
1918+298320878+297136862+294928456+293549963+293848487+295057814+295890116
1908+295716854+294897990+294179004+293918007+293999671+294267907+294786111
1898+295690807+296789171+297525061+297852291+298642881+300263024+301462794
1888+300981273+299447302+298231275+297733208+297682766+297857069+298040947
1878+298078887+298098522+298415099+299618444+302657319+307783308+312935381
1868+314522309+311566067+306972096+303711044+302459501+302418867+302713187
1858+302929292+303043938+303202163+303525154+304177170+305445527+307595191
1848+310904350+315461567+319868786+320995264+317834163+313525134+311057223
1838+310594689+310820387+311201940+312814556+316794019+321985289+325149875
1828+325045577+323723185+322395368+320201261+317214697+315142170+314867215
1818+315546213+316126338+316817121+318571867+321333631+323471655+323553354
1808+322181238+321189992+321919541+324658563+328551692+331729644+332665417
1798+331932743+331890384+334583599+339667157+343314540+341515387+336000948
1788+331786553+331055711+332591586+334634832+336705526+338528715+339387711
1778+339735743+341710439+347097155+354979879+360901703+360804231+356159171
1768+350641641+346266901+344537305+346381259+350109049+352383633+352588781
1758+352507728+352515560+352631786+354902491+361131209+369289068+374222304
1748+373688239+370530981+368117608+367705912+368966077+370571077+371088328
1738+371480300+375049037+382704482+388724856+386675754+379729486+373243274
1728+368649985+366289641+366295138+367891802+370976198+377403022+388544211
1718+401076594+406691308+402088858+393267738+386086000+382770445+383890456
1708+389026793+395943024+401522385+405928778+412684125+422480934+429760755
1698+430445681+426586396+419442383+410997570+405861413+406062824+410020910
1688+416450070+426712035+440200096+447896750+442968795+433275960+427165120
1678+426815831+431046932+436427433+440155689+443572416+448260159+450833698
1668+447444168+441962603+440524559+443653685+446733877+446207212+444511675
1658+446453138+455106978+471186003+488906745+493481854+486254811+482804276
1648+486123316+488388128+482565177+473214051+467578463+467797407+473757566
1638+484664973+496343965+499810811+492633780+484121602+481004261+483221397
1628+487763309+492421160+497054687+500739723+501222663+499692681+500728297
1618+506050380+511109759+510245948+505788862+503220065+503993805+506301730
1608+508001687+508641524+509132261+510118010+511298954+512187627+512967654
1598+514241579+516160156+518154576+519585326+520444178+521155009+521884341
1588+522446610+522796008+523219596+524020389+525469965+528326255+533822695
1578+542007607+549049370+549418707+545451531+544551829+548781026+553615857
1568+554182545+552090976+551423151+554231227+562564772+579189359+600474419
1558+608469956+598126973+585710565+578643545+576435965+577282710+579451847
1548+582731438+589097580+600280553+615550449+632384028+645469770+645629720
1538+634781916+626759398+627586167+633597020+637631704+638273876+640607814
1528+647672786+657901698+668872446+680532576+692416463+701001322+704699794
1518+706122964+706293549+704682980+703387355+706073886+714816325+729451055
1508+745702604+751120218+739085004+724196408+717635430+719249519+725363341
1498+731496851+733585258+731677568+730785051+735151133+743925906+751033704
1488+750830928+745069414+739360569+736764360+737037626+738748792+741603394
1478+746771526+755078808+765381731+773732198+774691468+768085293+761039865
1468+759238017+762545811+766420258+766679225+765457898+768394056+777890976
1458+789680948+793137843+784925051+774168720+767252057+765103363+766265697
1448+767329517+765129518+760362411+756287632+754844631+756221309+760168545
1438+765312462+767828194+765260080+761113732+759572792+760614552+761581655
1428+761081900+760428518+760991578+762611272+765104728+768893882+772516188
1418+772066732+766717811+760272305+755867852+754032233+753713554+753710536
1408+753895420+754701782+755669459+756073934+756725088+759002116+762675079
1398+766260308+768692543+769195028+767182285+764149625+763132583+765265900
1388+768356978+769216441+767799452+767197447+769699310+775171822+782133035
1378+789120476+795289339+800073188+802909539+804110890+805141728+806933732
1368+809175838+811823208+815582614+820059712+822999894+822618342+819728028
1358+816569621+814686289+813965723+813118403+811398902+809453272+808058198
1348+807002138+805889887+805315547+806444181+809649653+813827185+816936012
1338+817646303+816643919+815731858+815964670+817168177+818727728+820213411
1328+821521253+822933859+824849310+827336299+830311044+833769878+837273550
1318+839988034+841933592+844145016+847066444+850003392+852450070+854804917
1308+857540670+860535678+863212150+864934525+865582662+865860455+866628590
1298+867983999+869287385+869845702+869431743+868410461+867361300+866405119
1288+865034261+862708946+859462660+855903803+852782258+850486045+848848962
1278+847506630+846371098+845639897+845397816+845396020+845362176+845391924
1268+845769524+846424056+846890613+846946086+847007953+847672185+848871812
1258+849729335+849668186+849391614+849956039+851295928+852616416+853786079
1248+855300792+857168459+858812512+860006534+861197035+862785257+864594793
1238+866287204+867885198+869435911+870634388+871426020+872460163+874343926
1228+876978291+879949442+883063658+886301824+889502195+892298450+894544652
1218+896544461+898371242+899230634+898516750+897526007+898629994+902490069
1208+907391330+911561965+914844179+917620171+919641968+920764997+921624819
1198+922967223+925131940+928085200+931153644+933243631+934091167+934697267
1188+936180652+938807328+942034141+944999688+947382918+949740136+952346478
1178+954410094+955458035+956617063+959163549+962357165+964104546+963846154
1168+963371333+964357908+966437333+968243348+969353946+970500041+972432522
1158+974979582+977056277+977873705+978169605+979420106+981913419+984357582
1148+985489378+985580275+985855840+986890990+988267669+989601450+991012979
1138+992704241+995139781+998811308+1002793394+1004827263+1004152971+1002850088
1128+1003130683+1005080769+1007647661+1010191488+1012347727+1013701412
1120+1014341213+1014826741+1015516122+1016547679+1018118870+1020450796
1111+1023352032+1025865105+1026985906+1026844710+1026944877+1029104852
1103+1034168290+1040849339+1045321048+1044298545+1039257310+1034711877
1094+1032899323+1032818198+1033469065+1035332924+1038943661+1043784707
1085+1048016921+1049543994+1048675477+1047864588+1048053352+1047564016
1077+1045076524+1042034092+1041270197+1043875460+1047754362+1049519275
1068+1048020299+1045540710+1045468783+1048834349+1053082803+1054868771
1060+1053952829+1053048097+1054419243+1058373233+1063495234+1066828465
1051+1066595510+1065355141+1067152534+1071555621+1073741823+1071215960
1043+1066599821+1062868942+1060240685+1058522477+1058790139+1061188890
1034+1063797530+1065542253+1067587115+1070145601+1071052345+1068950645
1025+1065651186+1063820308+1063944618+1064675173+1064946643+1064982714
1017+1065566755+1066713569+1067135288+1065336315+1061450228+1057364239
1008+1054947668+1054512296+1055306370+1057005680+1059531831+1061532215
1000+1060960174+1057766917+1054043942+1051704544+1051131856+1051310560
991+1050795500+1049101364+1047217745+1045804492+1043753378+1040044414
983+1035791721+1032627853+1030428501+1028579013+1027772077+1028424883
974+1028744137+1026663562+1022678171+1018749905+1015772071+1013506828
965+1011772955+1010605951+1009750655+1008247367+1004836317+999471732+993870239
955+989579750+986269656+982786103+979022817+975855141+973636316+971504724
945+968421191+964685856+961744022+960313452+959644837+959009922+958704464
935+959029466+959686010+960536922+961403571+961115287+958689662+955522130
925+954351389+955845767+957823804+958135656+956985753+955944352+955767300
915+955775923+955034734+953883969+953867658+955702415+957745409+957337127
905+953699300+948782375+945325049+944510783+945315852+945682171+944315193
895+941761162+939881064+939997685+941480351+942552435+942528507+942425538
885+943447251+945583585+947626795+948361374+947736662+946805775+946356247
875+946058478+944998754+942547692+938956356+935228926+932246493+930045201
865+928129822+926533984+926245772+928213749+931940461+935394481+936725532
855+935991887+934816691+934453677+934679878+934696836+934617508+935336494
845+936940379+938026762+937158389+934847876+933159776+933290481+934745123
835+936987588+940157348+943193313+943305120+939479895+934861313+933402935
825+935576994+938745892+940790610+941736156+941790336+940094116+936649940
815+933674621+933382672+935718190+939408902+943847054+948555168+951824807
805+951942075+949303830+945709979+942693415+941405190+942747522+946565849
795+951152383+954232827+954536345+952547026+950070097+948835548+949329770
785+950966422+952609325+952967237+951440739+949010444+947077532+945505263
776+943436472+941157145+939635534+939219347+939862597+941862047+945416162
766+949601743+952410070+952319604+949754795+946880504+945960898+947649861
756+951026493+954583122+956988628+957601483+956316851+953514704+950395027
746+948505659+948683574+950638904+953393771+956117237+958582957+960407870
736+960577521+958828415+956662476+955699756+955799061+956412562+958494862
726+962818046+967888742+971322714+971967617+969618159+964820082+959868379
716+957392527+957040579+955546920+951089366+945836301+942946634+943299731
706+945723703+948257255+949151568+948169591+946135651+942864144+938067504
696+933857133+932995155+935271105+937910787+938569414+936651664+932414348
686+926524930+920585430+916161074+913356196+911203478+909207980+907480359
676+905803037+903903035+901596690+897670436+891429861+887435488+891838647
666+900365016+905234660+905395401+903244695+900546882+898021163+895199830
656+890911424+885701328+881814451+880207260+879813276+879599147+880182613
646+882779757+886722251+889396495+888795856+885415559+881261811+877646044
636+874502798+871764674+870017150+869905199+871865344+874927967+876802676
626+876101582+872573839+866701523+860224472+855484023+854251127+856366911
616+857108388+849615085+835185862+824327711+825155774+837299418+854703314
606+870126442+878103188+877741683+872534749+866905736
##END=
