##TITLE=<SNM>
##JCAMP-DX=4.24
##DATA TYPE=INFRARED SPECTRUM
##DATE=3/5/2025
##SAMPLING PROCEDURE=Instrument type and / or accessory
##ORIGIN=Admin
##XUNITS=1/CM
##YUNITS=ABSORBANCE
##RESOLUTION=4
##FIRSTX=4497.3318
##LASTX=599.83466
##DELTAX=-1.4281778
##MAXY=1.7259951
##MINY=0.17798814
##XFACTOR=1
##YFACTOR=1.6074582e-09
##NPOINTS=2730
##FIRSTY=0.19900164
##XYDATA=(X++(Y..Y))
4497+123798954+123647232+123654490+123633800+123522559+123257752+122826252
4487+122440313+122432406+122996968+123980498+124895263+125330370+125275260
4477+124860593+124150362+123446184+123284441+123784085+124409310+124594479
4467+124245074+123553215+122741876+122119515+121993526+122337444+122815322
4457+123256742+123851367+124727133+125468280+125302143+123927863+122043816
4447+120749379+120465420+120665448+120556906+119899967+119295303+119676180
4437+121276036+123087944+123680650+122616406+120866737+119772097+119736175
4427+120082957+120042818+119524393+118906120+118459759+118142057+117754923
4417+117293712+117139737+117640234+118483101+118843677+118250600+117033846
4407+115838681+114962155+114329949+113961151+114123107+114849265+115535848
4397+115393711+114311066+113025176+112450611+112971447+114168512+115061344
4387+114908213+113886370+112730176+111929497+111634739+111846679+112218434
4377+112249072+111982967+111825460+111700064+111274385+110838880+111050051
4367+111949363+112856638+113081779+112474463+111459721+110726453+110806648
4357+111768783+113174572+114355571+114819035+114473328+113658309+112995252
4347+112883493+113033398+112862904+112304145+111722804+111291118+111055808
4337+111262260+111986526+112766478+113116170+113145371+113275364+113612005
4327+113892534+113817382+113277812+112479904+111936830+112099092+112875419
4317+113712566+114184215+114254575+114010412+113537493+113158609+113383416
4307+114331154+115420761+115870236+115422170+114519632+113848057+113751352
4297+114060739+114432596+114712059+114869483+114790687+114445611+114184781
4287+114484573+115287097+115870088+115635371+114797390+113992808+113566109
4277+113581896+114049438+114773992+115445354+116041750+116695166+117267561
4267+117574630+117783011+118031262+117918372+116993790+115698899+115177636
4257+115948382+117289188+118204630+118471041+118447449+118483129+118764316
4247+119202714+119403085+119185639+118920692+118930398+119009490+118947381
4237+118965392+119227196+119450817+119360721+119027279+118527579+117835220
4227+117268080+117437026+118425460+119463850+119767981+119462265+119341208
4217+119837228+120644628+121334549+121844399+122203872+122235826+121791746
4207+121053426+120510741+120689263+121681062+122888147+123525795+123406870
4197+123002910+122817352+122950331+123186864+123296130+123259226+123244079
4187+123317609+123289140+122976426+122492030+122122982+122083538+122423942
4177+122983230+123512687+123998927+124675091+125615720+126550118+127068377
4167+126827598+125812856+124610488+124018190+124198585+124612175+124798327
4157+124770350+124696857+124676315+124804695+125119588+125510968+125856471
4147+126114697+126204597+126045181+125781504+125656304+125656610+125649277
4137+125724540+125947243+126028977+125743395+125381049+125385944+125805616
4127+126310498+126534971+126384426+126185872+126414433+127130551+127884370
4117+128290944+128478819+128815302+129359702+129801205+129891690+129694582
4107+129369223+128988985+128705851+128828011+129469784+130228868+130471418
4097+130013350+129337566+128987789+128976573+129020003+129078914+129330177
4087+129778475+130180868+130286509+130046212+129678730+129533710+129794067
4077+130351205+130977098+131526170+131971640+132289092+132313658+131837531
4067+130968551+130242115+130191297+130796963+131417924+131378424+130690571
4057+130044386+130012645+130515219+131119754+131547787+131780771+131925531
4047+132126301+132505334+133051727+133542991+133702510+133490514+133090856
4037+132617093+132121759+131869772+132205356+133088436+133994265+134335883
4027+134001616+133522449+133567538+134196388+134855486+135147028+135243121
4017+135461745+135730224+135647971+134993971+134030381+133244367+132898855
4007+132966100+133361077+134000976+134691834+135181763+135344517+135252104
3997+135169629+135421282+136014229+136499468+136520121+136324200+136394170
3987+136802718+137228249+137356759+137137810+136862797+136893722+137152383
3977+137239623+137154311+137285389+137655429+137880385+137851388+137813057
3967+137927847+138250602+138808777+139364357+139519147+139269664+139020550
3957+138966488+138924198+138805681+138835373+139166572+139563254+139681512
3947+139519667+139314373+139118303+138832629+138583988+138691168+139253487
3937+140062917+140875017+141599858+142209593+142527712+142286970+141521758
3927+140720671+140404239+140575855+140780342+140776875+140809951+141119829
3917+141533994+141703311+141598069+141520646+141640665+141804633+141967720
3907+142582989+144059156+145793288+146464113+145720926+144523463+143683479
3897+143292804+143317054+143775669+144369182+144459797+143947721+143802108
3887+144797828+146272437+146902028+146696466+146595682+146564674+146115106
3878+145789506+146400011+147738462+148984389+149703297+149804433+149347477
3868+148859559+148764671+148697565+148134820+147305802+146800698+146845954
3858+147672033+149919659+153724296+156715943+155909674+152755496+150063558
3848+148972764+149440585+150793645+152260857+153603517+155053746+156573889
3838+157603287+157801814+157499797+157101186+156759586+156505717+156261656
3828+155880603+155556635+156059477+157889212+160132184+161022032+160578906
3818+160392264+160756705+160716399+159997621+159357322+159637907+161114750
3808+163069277+164430672+165370929+166735679+168130872+168462591+168166840
3798+168281770+168519249+168222423+167847266+168356542+169928013+171977076
3788+174033851+176025254+177883874+179656300+181885498+185008306+188477776
3778+191447129+194191053+197710581+202392124+207692775+212788038+217459866
3768+222331037+227981092+234347497+241309946+249182636+258146017+267515481
3758+276223436+284223237+292681087+302951800+315440364+328477009+339490899
3748+348653567+358191596+369000508+379388227+388201898+396815039+406455299
3738+417291205+429238622+442005658+454314940+464219876+470622453+473980164
3728+475525995+476267707+476940043+478379120+480907386+483937087+486955923
3718+490315970+494876965+501622199+510821984+520480301+527767386+533123971
3708+538640261+544429088+549831356+555174853+560766192+565801404+569641786
3698+572715686+575725697+579011472+582748327+587027440+591095270+593478221
3688+594291720+595242082+596566433+597103390+596432315+595446171+595323361
3678+596245987+597136799+597597593+599338131+602968639+606016657+605765217
3668+602992778+600281039+599303869+600703233+603676906+606706643+609515643
3658+612779244+616376752+619370818+621181512+622004949+622963987+625752853
3648+630231976+633865080+635352584+635979533+637660298+640894569+644564309
3638+647378240+648704520+648481149+647510319+647331964+648884136+651530243
3628+654225592+657381180+661184259+664631592+666922917+668377790+670249666
3618+673705898+678410320+682654429+685577450+688478149+692352719+695330099
3608+695333807+693763467+693161509+693544843+693484402+693149940+694392641
3598+697809865+701544569+703380328+703234455+702772660+703100003+704067867
3588+704833496+704470408+702869959+701014621+700034891+700320185+701485389
3578+702553888+702620632+702187240+702882121+705099212+707165387+707453721
3568+706139382+704382751+702450212+699928397+697555422+696680852+697493127
3558+699025498+700349330+701269731+702339565+704441634+707900536+711249014
3548+711815300+709000701+705847339+705815376+709411919+714604537+719231312
3538+722220484+722863675+720569606+716290196+712632322+711298701+711469195
3528+711399930+710667153+709780347+708887978+708354544+708798541+710298355
3518+712478440+714521774+715097257+713181256+709429421+706300161+706224443
3508+709297861+713222785+715441804+714916232+712519970+710166795+709503655
3498+711319985+715235565+719323123+721283026+720774955+719236800+717446352
3488+714937293+712004928+710696447+712638700+716680649+719738345+719909432
3478+717901696+715337684+713013580+711034469+709443363+708651704+709335164
3468+711531267+714006658+715225183+715099926+714927949+715163778+714350761
3458+711355063+707500071+705264811+705928915+709043121+712972792+715705814
3448+716081584+714634497+712911684+712172604+712500762+712772856+711999959
3438+710562217+709442547+709231339+710207361+712036001+713693109+714635387
3428+715234972+715424080+714567753+713226938+712824175+713101608+712531761
3418+711444055+711975635+714776811+717791419+718706110+717119974+713792261
3408+709595317+706005226+704962015+707038128+710243699+711839402+711508648
3398+711612250+713881920+716961716+718220213+717425736+716815621+717669871
3388+718918653+719147734+718106081+716241102+714537718+714224540+715218508
3378+715745193+714338302+711275044+707758519+705037807+704095529+704770312
3368+705705767+706318849+707732415+710760373+714174482+716117551+716672492
3358+717465634+719015284+720025419+719316596+717392364+715730361+715027027
3348+714626266+713718842+712759878+712999638+714546543+715973681+716203206
3338+715658129+714775253+712685569+709273685+706921919+708268074+712852133
3328+717176039+718691797+718014716+716709794+715467464+714787490+715410805
3318+717310046+718986658+718618750+716055776+713338253+712958553+715364307
3308+718489192+720031574+719673084+718590866+717704504+717311752+717891313
3298+719580607+720978525+720260062+717746775+715962631+716713725+719161454
3288+720909704+720436118+718320552+716525803+716660923+718457600+719753696
3278+718702180+716075206+714174334+713500292+712324855+709985177+708370415
3268+709197226+711697682+713868868+714703318+714595044+714510502+715050981
3258+715579297+714798614+712752610+710907506+710117330+709965302+710275588
3248+711656598+713704233+714577097+713626513+712380178+711997438+712100891
3238+712447738+713520390+715282508+717065318+718289553+718204788+716116587
3228+712627502+709389152+707531886+707311482+708574874+710721735+712781978
3218+713904762+713712168+712416887+710550870+708958134+709108456+711899843
3208+715548966+716363911+712985176+708078817+705136959+705340900+707290347
3198+708375754+706778345+703319072+700828850+701220712+703681567+705545878
3188+704736198+701705645+698935171+698172953+698719884+698892455+698322757
3178+697998529+698668046+699973413+700866671+700692617+699975044+699634501
3168+699422329+698395730+697041047+696720008+696878043+695690221+693344462
3158+691555868+690284838+688022880+685067822+683609537+684482031+685912580
3148+685929637+684482402+682445298+680288944+678768439+679139314+681428043
3138+683812810+684621675+683950451+682607412+680765126+678437091+676277475
3128+675112642+674799612+674176889+672650674+671176519+670972505+671759937
3118+672126733+671573869+671196913+671906255+672809080+672291517+670304099
3108+668236886+667039200+666655718+666521488+665865468+664162529+661620617
3098+658944401+656912339+656208486+656946972+658434847+659904626+660891400
3088+660709486+659013295+656980567+656205964+656508241+656441793+655762709
3078+655253377+654578150+652784810+650481322+649404814+650059054+651171753
3068+651290631+650170369+648642967+647480729+646728598+646340369+646674461
3058+647562676+647657156+645886732+642944726+640280894+638555188+637783033
3048+637976443+638907301+639814872+639913357+639037748+637705758+636676045
3038+636345588+636400095+636270315+635791389+635078117+634165354+633141425
3028+632036810+630493168+628392656+626510102+625517913+624985666+624257191
3018+623513440+623348433+624039828+625395475+626448845+625650363+622446572
3008+618269355+615426019+615195418+616811775+618157003+617683490+615568629
2998+612910100+610610803+609353566+609480788+610247863+610173814+608847238
2988+607478464+606989045+606464102+604531045+601705952+600015398+600404145
2978+601702763+602368202+602211576+601804251+601226989+600381638+599784018
2968+599965229+600522764+600566630+599636662+597791670+595350764+592892578
2958+591138877+590327824+589973821+589589560+589194880+588841841+588269547
2948+587428609+586660644+585957569+584840532+583227104+581652907+580539616
2938+579895943+579706093+579814552+579434111+577695612+575009755+572991970
2928+572478188+572463690+571605361+569957523+568488300+567667199+567142776
2918+566244845+564637128+562837744+561786969+561713105+561964842+561895613
2908+561364367+560613385+560041314+559805188+559516112+558692638+557423387
2898+556018906+554316746+552110408+549926949+548524321+547893219+547569287
2888+547576555+548161233+548892786+548863901+547634734+545537263+543333706
2878+541781201+541162335+541101598+540992916+540485698+539543679+538378216
2868+537299742+536316935+535069970+533399513+531691940+530504191+530073951
2858+530181632+530355426+530346749+530268844+530006651+528954615+526892408
2848+524633120+523123109+522288103+521331808+519919725+518616658+518130872
2838+518438414+518845479+518701089+517800303+516363117+514970687+514145952
2828+513670511+512857865+511682687+510798920+510313691+509554032+508181328
2818+506626190+505360722+504466165+503883044+503494074+502976437+502004309
2808+500621334+499228421+498260447+497915936+497963732+497721710+496575010
2798+494787565+493367139+492731105+492092475+490709092+489085171+488154870
2788+487849960+487288568+486002891+484307109+482695313+481433071+480611821
2778+480168678+479825539+479262033+478435704+477534992+476536055+475161942
2768+473469386+472039876+471295493+470998705+470649114+470028171+469199432
2758+468238502+467089280+465675677+464169336+462926672+462024366+461173972
2748+460220310+459312145+458483554+457491069+456165605+454651441+453255970
2738+452218025+451614992+451360215+451167436+450585464+449329526+447602448
2728+445877335+444448566+443399645+442750485+442368931+441984077+441419125
2718+440580597+439307972+437609335+435964649+434962597+434587755+434193037
2708+433269670+431924071+430490482+429140434+428050577+427407461+426992201
2698+426221381+424823685+423165205+421845934+421194697+421071405+421005032
2688+420639831+420075658+419625394+419297421+418709554+417546130+415982909
2678+414510905+413354229+412311353+411204402+410144468+409287325+408686369
2668+408390099+408312787+408067836+407303134+406137931+405002317+404142615
2658+403487707+402887159+402242707+401455572+400517335+399683442+399241559
2648+399013665+398457872+397415477+396343567+395627699+395115327+394533355
2638+393911115+393360142+392821702+392250670+391735813+391254440+390610470
2628+389775761+388994150+388380105+387688302+386673680+385508254+384663051
2618+384402638+384508501+384540576+384272932+383780138+383236804+382770485
2608+382353297+381744480+380769163+379671519+378892986+378543284+378379056
2598+378176117+377846846+377330618+376594245+375671878+374662337+373751465
2588+373135083+372823240+372645552+372484402+372346019+372203039+371954899
2578+371566856+371112848+370668443+370257559+369909229+369665205+369509580
2568+369381691+369270636+369186613+369034288+368687182+368222568+367879467
2558+367731703+367628509+367505069+367468879+367502066+367379294+366986653
2548+366505205+366203930+366159879+366197589+366069997+365711247+365275186
2538+364927338+364717242+364667555+364819249+365103505+365281156+365120599
2528+364643638+364148545+363925101+363955803+363994663+363924174+363848530
2518+363804702+363648409+363348543+363113492+363035105+362859568+362334552
2508+361602109+361034599+360769180+360582927+360231185+359758600+359386761
2498+359246524+359336740+359551953+359635828+359348791+358775978+358242359
2488+357923026+357734177+357524007+357213462+356858123+356630860+356609502
2478+356623963+356472787+356206145+356033463+356024082+356020448+355806830
2468+355305804+354642701+354051719+353702277+353610244+353698383+353853007
2458+353930467+353858829+353747959+353734907+353734610+353534823+353091049
2448+352543821+352042128+351724018+351722461+351995815+352276697+352332576
2438+352155927+351837261+351438131+351048234+350791566+350704873+350690745
2428+350606017+350389247+350134544+349991119+349949737+349837385+349552684
2418+349177768+348880497+348845345+349186704+349753176+350161835+350209780
2408+350105214+350135583+350260209+350207184+349903239+349634446+349710942
2398+350046183+350208371+349951703+349540781+349385082+349482343+349415636
2388+348804594+347571385+345796882+343414748+340050103+335237334+328875990
2378+321372469+313280414+304959185+296647560+288669896+281367405+274845653
2368+269008343+263971369+260148007+257734132+256570912+256766917+258943980
2358+263639150+270842656+280335578+292143111+305756017+318798223+327738893
2348+330222033+326685263+320380948+314978013+311434235+308475542+305207250
2338+301737947+298356135+295063648+291735879+288632872+286593487+286272874
2328+287221122+288233037+288663222+289035709+290352626+293125899+297057498
2318+301294952+304962448+307756097+310077179+312466618+315052729+317673696
2308+320258102+322798197+325110510+326927804+328230241+329278123+330262414
2298+331088928+331621249+332025348+332675398+333685274+334703603+335307675
2288+335514952+335741326+336274426+336935007+337289122+337122892+336661023
2278+336307131+336208794+336177388+336008822+335713256+335412166+335169700
2268+334947145+334650023+334274513+334011615+334046879+334291681+334516905
2258+334658440+334760596+334777764+334681837+334609568+334690848+334872614
2248+335049004+335225505+335450359+335692751+335886977+336040636+336220400
2238+336470357+336805190+337204765+337548089+337690551+337686806+337764599
2228+338011182+338268035+338377607+338365111+338356064+338456995+338728941
2218+339167820+339675075+340112694+340435773+340727408+341069026+341453732
2208+341869103+342344580+342868076+343386715+343916663+344521105+345175383
2198+345796252+346403883+347105178+347900990+348668584+349370547+350100802
2188+350878556+351600838+352227306+352790923+353254238+353597970+353980711
2178+354571359+355310698+356004170+356548431+356968288+357327001+357695947
2168+358193265+358966273+360065029+361401321+362941700+364846911+367298682
2158+370298421+373715646+377381491+381074628+384573169+387791422+390781446
2148+393588036+396222611+398833048+401728926+405055378+408548913+411821414
2138+414811031+417769834+420876364+424063692+427281945+430754715+434749609
2128+439160579+443616341+447934648+452094289+455841229+458719457+460417576
2118+460876145+460257205+458918132+457210855+455311429+453398432+451866655
2108+451190388+451686297+453487758+456565922+460592594+464811378+468124778
2098+469365662+467724535+463211670+456640638+448993840+440934081+432831569
2088+424837479+416930898+409201300+401995717+395605265+390027646+385154659
2078+380965020+377475415+374662337+372414877+370508146+368740688+367121921
2068+365804096+364838828+364100897+363430935+362765274+362133021+361627175
2058+361368282+361355193+361351337+361092110+360621749+360274680+360317915
2048+360727576+361356825+362284197+363875970+366428635+369933257+374385979
2038+380131905+387598939+396755934+406983986+417399145+427184276+435612277
2028+441870427+445196953+445436156+443244540+439526411+434828293+429386053
2018+423489544+417544313+411837766+406434682+401283854+396313346+391505472
2008+386965055+382797220+378927285+375228994+371761489+368674945+365988050
1998+363636395+361607597+359888899+358379407+356938884+355485568+354053499
1988+352763595+351701140+350835803+350095944+349448007+348848645+348236379
1978+347650106+347230990+347018003+346856816+346588504+346228309+345876864
1968+345540103+345144755+344703984+344346607+344152975+344063167+343984483
1958+343901794+343826744+343705344+343449232+343077875+342773374+342690240
1948+342759840+342825323+342864554+342868670+342669068+342164816+341546321
1938+341064947+340776872+340621915+340608788+340832752+341283423+341696792
1928+341802766+341695420+341658228+341726456+341801135+341996510+342407097
1918+342755205+342713045+342384923+342108491+342038781+342114239+342190438
1908+342137933+341943782+341742993+341690340+341793311+341916973+341980788
1898+342053168+342172825+342246652+342271829+342426935+342746899+342941977
1888+342743525+342248357+341762238+341504124+341492999+341573018+341587591
1878+341556443+341605908+341794349+342131704+342659316+343312592+343769456
1868+343713057+343272657+342836076+342548261+342335607+342192515+342179129
1858+342272274+342404094+342556641+342748085+342994223+343278108+343597256
1848+344085266+344867174+345660761+345892734+345528237+345157956+345141232
1838+345361933+345575440+345719459+346011946+346701228+347648920+348380287
1828+348713117+348886281+348988066+348881832+348639588+348558531+348789539
1818+349205133+349614422+350028607+350599269+351312875+351950355+352424794
1808+352938687+353687778+354626163+355598069+356540236+357473652+358362387
1798+359132392+359898392+360992995+362560221+364098635+364869048+365003797
1788+365328655+366315059+367873200+369761057+371774059+373612044+375004808
1778+376080352+377331322+379161816+381472460+383548944+384738064+385266974
1768+385744825+386556878+387989058+390108629+392395764+394128255+395334655
1758+396553662+397929851+399388803+401164753+403462308+405873401+407668188
1748+408743732+409631651+410731223+412109711+413689544+415286100+416765780
1738+418478916+421064138+424450474+427244345+428316627+428653425+429492917
1728+431036968+433094541+435479753+437983584+440639888+443889658+447997499
1718+452289478+455364305+456806089+457654444+458906860+460943519+463823898
1708+467457522+471432986+475110957+478491287+482386695+487176216+491914825
1698+495712416+498931744+501866445+504564465+507525938+511170018+515441084
1688+520380519+526518455+533914630+540683335+544821766+547377361+550296934
1678+554530772+560177917+566456498+572222670+577348728+582477383+587566361
1668+591948446+595801768+600070425+605197188+610696791+615841909+620682896
1658+625856603+631852523+638786197+645864780+651029736+654266380+657893107
1648+662758752+667635003+670779318+672626943+674862055+678207863+682509001
1638+687228329+691059070+692189344+691054397+690081046+690088388+690316356
1628+690257992+690304045+690637766+690476913+689323871+688123960+687900664
1618+688269611+687811969+685743198+682717539+679432246+676028964+672518891
1608+669009264+665863762+663714157+662960245+663282174+664012577+664967389
1598+666339277+667803939+668488437+667926378+666435463+664568630+662690673
1588+660956068+659446391+658334211+657737296+657497314+657494125+657929964
1578+658824929+659482803+659277602+658991418+659787601+661836942+664566479
1568+667537260+670943879+675018458+679782356+685629436+693459558+703373135
1558+712782423+720014592+727332564+736329225+746614121+757205224+767197336
1548+775782186+782857135+789118696+795100081+800682558+805117036+807247063
1538+807443217+807589831+808491322+809731724+810843088+812040106+813668514
1528+815545655+817340923+819332864+822223848+825981541+829362130+831414882
1518+832995012+835495172+839016739+842315159+844520533+846425335+849670805
1508+854663338+858946085+859653721+858324920+857526215+857821892+858771957
1498+859641855+859913800+859992855+860820037+862629841+864598421+865617974
1488+865809233+866593773+868655499+871000738+872217557+872226457+872382045
1478+873682665+875672381+877302272+878032749+877988624+877810417+878205245
1468+879236442+880258220+880471727+879844184+879354134+879903957+881558099
1458+883449997+884067529+883070743+881852663+881389607+881596439+882021599
1448+882525295+883173899+883596389+883318586+882727678+882852119+884088590
1438+885587292+886022612+885344788+884902423+885318239+885921754+885927242
1428+885526703+885444385+885781443+885914190+885311046+884213031+883586230
1418+884132790+885016333+884781542+883383550+882257503+882568456+883909790
1408+885056751+885240074+884321601+882680809+881125819+880239235+879915007
1398+879720856+879341527+878411930+876554515+874089062+871868560+870082488
1388+867956169+865047386+862563912+862416630+865297009+870191800+875243735
1378+879151158+881967017+884501365+887187964+889828287+892140006+893998904
1368+895474097+896983997+898862843+900683474+901785271+902506107+903796419
1358+905683053+907318877+908350147+909332546+910704879+912096346+913082453
1348+913940708+915060303+916287950+917432463+918808356+920679341+922622781
1338+924079731+925115451+926003370+926675558+927119406+927781582+928947379
1328+929989329+930145881+930086478+931590446+935024652+938136633+938608069
1318+936988709+935400718+934527854+933782470+933358645+934269777+936568592
1308+938881053+940013849+940246044+940506198+941071817+941674219+941974939
1298+941530275+940197321+938558456+937158017+935911682+934787711+934060942
1288+933561399+932631357+930928196+928698720+926500095+924745244+923111719
1278+920884765+918198611+915869983+913845338+911037933+907014894+902883508
1268+900057266+898796767+898321845+897861014+896985406+895185910+891975371
1258+887455385+882293915+877263115+873032800+870072773+868457417+867879635
1248+867879116+867998366+867852122+867220352+866269619+865663583+866027931
1238+867130322+868054431+868404763+868787355+869815511+871127404+871872565
1228+872106762+873051859+875541043+878780728+881258714+882394773+882687706
1218+882979451+884124558+886528829+889614928+892419293+894820598+897426436
1208+900326542+902923406+905045350+907213124+909640978+911931933+913845486
1198+915428137+916470680+916905481+917507513+919069473+921218930+923148206
1188+925126130+928055084+931793273+935226961+937995433+940739876+943444199
1178+945195342+946098909+947614074+950362597+953105186+954369319+954317630
1168+954438659+955671794+957587943+959551332+961645095+963895483+965844782
1158+967547943+969756877+972661432+975540031+977772473+979299134+980272188
1148+980971889+981790765+982847695+983738507+984083870+984242054+984926181
1138+986176743+987404315+988396874+989450319+990690499+991934683+992842625
1128+993050867+992873995+993605362+996145495+999623827+1002346615+1004054894
1118+1006110390+1009184401+1012122699+1013599894+1013542049+1012459979
1110+1010858936+1009890405+1011012819+1014452587+1019098200+1023545582
1101+1026635983+1027399387+1025205286+1020860170+1017365078+1018011902
1093+1023206893+1029998699+1034810504+1036334569+1035928765+1035694641
1084+1036493642+1037861897+1038922090+1039165483+1039146350+1040288341
1075+1042923251+1045002923+1044740841+1043495544+1043342848+1043872500
1067+1044262063+1046045540+1050610540+1055534624+1056709023+1053777771
1058+1050183452+1048174529+1046750432+1044802765+1043949404+1046566144
1050+1052446374+1059098759+1064729737+1069320323+1072759127+1073741823
1041+1071214669+1065867946+1059996171+1056376712+1056944927+1061062890
1033+1065273405+1066415693+1064704152+1062651103+1061960969+1062501225
1024+1062891085+1061322821+1057017455+1051537542+1047820117+1047556701
1015+1049863154+1052555538+1054486741+1055991079+1057119203+1056999805
1007+1055262456+1052871015+1051059357+1050079925+1049414560+1048602729
998+1047190053+1044558926+1040631110+1036159329+1032057458+1029126057
990+1028218856+1029456440+1031171319+1031015731+1028279519+1024074566
981+1020063839+1017757237+1017705324+1018710936+1018317294+1014837182
973+1009048391+1003283480+999112122+996364341+993897034+990859287+987208162
963+983397667+979846806+976532739+973260053+970142954+967360838+964589919
953+961211925+957326380+954012906+952138212+951114803+949575164+947335084
943+945695255+945606560+946345343+946458363+945421159+943708728+941847606
933+940317089+939996866+941349843+943124124+943405042+942202462+941214204
923+941060248+940758564+939924337+939728851+941175641+943468598+944673551
913+943637090+940988090+938384847+936876060+936176581+935382623+934169141
903+933123409+932853170+932944387+932191513+930278998+928748852+929162147
893+930738865+931332517+930586466+930250891+931389991+932880535+932733995
883+930236133+926901005+925451026+927295759+930823630+932648636+930885331
873+926836263+923138936+921232428+921142175+922339712+923921770+924702676
863+923881501+921782399+919797207+919360329+920516189+921601077+921225901
853+920060920+919699909+920597394+921717657+921831493+921063936+920980580
843+922758124+925627379+927578012+927130901+924300358+920803930+919435157
833+921919373+926838636+930691551+931728606+931322802+930772311+929325670
823+926596874+924097826+923173939+923665176+925232995+928144225+932091175
813+935801109+938462196+940472603+942142466+942490871+940389840+936661737
803+933411521+931624930+931107737+931741213+933161750+934462593+935199448
793+935310762+934113224+931588814+929619566+929957662+932202415+934710139
783+936586020+938292296+940662898+943324134+944665913+944242459+943403856
773+942130823+938369200+932415032+928262733+928739508+932226591+935149390
763+935834926+934986163+934096909+934538459+936682057+939069864+939474556
753+937322207+934441457+933253709+934249531+935307202+934202662+931729941
743+930877989+932981912+936582682+940385613+944612888+948205872+948587797
733+946111442+944186838+944084201+943930244+942719506+941256772+939499177
723+937102916+935491120+936199052+938059433+938215688+935843158+933472778
713+934146152+938119206+942874575+945696442+945774162+944017605+941252990
703+937292320+932158883+927283819+924566073+923708115+921883183+917688019
693+912917892+909617395+907487739+905074198+901944864+898796767+896215327
683+893921629+891386391+888478276+885414721+883166557+883425970+885902917
673+885836173+877281655+860818628+848414013+853006823+867893281+878064564
663+879333740+875743426+871580893+868225889+866170393+865596616+865058881
653+862733591+858722344+854920377+853229823+854210887+856746051+858769436
643+858839739+857292982+855601315+854600450+853742714+851540455+847457496
633+843554226+842479424+843953653+844849655+843796878+842558553+840836110
623+835017655+825454263+818804918+819654645+825006336+829652319+833211485
613+837339979+840138782+838307695+832622802+826725070+822045048+817825930
603+814836536+815029204+817046730
##END=
