##TITLE=<SNM>
##JCAMP-DX=4.24
##DATA TYPE=INFRARED SPECTRUM
##DATE=2/5/2025
##SAMPLING PROCEDURE=Instrument type and / or accessory
##ORIGIN=Admin
##XUNITS=1/CM
##YUNITS=ABSORBANCE
##RESOLUTION=4
##FIRSTX=4497.3318
##LASTX=599.83466
##DELTAX=-1.4281778
##MAXY=1.8356526
##MINY=0.35978726
##XFACTOR=1
##YFACTOR=1.7095847e-09
##NPOINTS=2730
##FIRSTY=0.37861347
##XYDATA=(X++(Y..Y))
4497+221465174+222485009+223545742+224071384+223976673+223394881+222573253
4487+221825033+221564853+222344347+224300394+226374565+226868288+225243021
4477+222795499+221219009+221031157+221614483+222293217+222848948+223183791
4467+223249041+223365315+223790529+223981449+223222456+221939721+221407664
4457+222161166+223370894+223739835+222751256+221121405+220119002+220412164
4447+221582303+222650653+222898578+222337025+221547490+220991759+220670688
4437+220653343+221328276+222643645+223704360+223629243+222470767+221071478
4427+220326135+220565430+221327196+221759922+221452814+220696157+219954404
4417+219542596+219708188+220440649+221193645+221355610+220979609+220591980
4407+220524551+220865705+221559919+222132664+221970855+221113682+220178795
4397+219490578+218865972+218246543+217969262+218275934+218934778+219589315
4387+220260536+221071984+221656966+221510254+220787677+220015575+219226022
4377+218153785+216990706+216204326+215899868+215920438+216221184+216740445
4367+217261189+217692224+218117943+218364212+217970900+216963372+216158845
4357+216150617+216496565+216532720+216341328+216270622+216301791+216409611
4347+216699095+216773567+215899589+214202501+212823120+212569495+213137759
4337+213826831+214386292+214887755+215174502+214847381+213824338+212676025
4327+212207457+212651218+213358943+213409619+212499015+211206553+210453016
4317+210674618+211444297+211891929+211584908+210971894+210934536+211926375
4307+213559992+215110664+216279879+217192173+217806059+217828372+217227945
4297+216416201+215857333+215641588+215466496+215091401+214655537+214341630
4287+214052477+213738343+213630279+213806696+213889692+213497775+212831261
4277+212543852+213019096+213919624+214524165+214377541+213531908+212503583
4267+212104483+212773141+213901564+214353153+213804622+213100907+213161555
4257+213999378+215038703+215961492+216736471+217118870+216884281+216459573
4247+216549193+217173364+217731971+217882448+217770653+217553898+217225452
4237+216742799+216027700+215159231+214630190+214849438+215367671+215324857
4227+214722251+214393509+214613577+214683167+214187195+213810897+214301971
4217+215248764+215702846+215564397+215453770+215597606+215743324+215790235
4207+215807301+215842637+216045150+216457063+216678490+216286154+215414007
4197+214570309+214162040+214302825+214762746+215156825+215355556+215490536
4187+215557616+215410346+215129038+214952360+214847172+214607737+214391800
4177+214575713+215067031+215401822+215502407+215700893+216080364+216338435
4167+216278380+216161931+216485268+217328984+218093503+218200748+217763977
4157+217102971+216185273+215171782+214755529+215228089+215862998+215876927
4147+215437436+215120827+214950704+214622153+214230219+214157124+214586539
4137+215526481+216809914+217834491+217987304+217539376+217403682+217867003
4127+218220935+217784965+216775258+215952810+215738704+215889496+215950666
4117+215870581+216022750+216566051+217017726+216683424+215461737+214018292
4107+213193683+213373046+214289733+215304426+215886305+215836571+215261368
4097+214569298+214239650+214299652+214329950+214122224+213903429+213925028
4087+214291877+215061592+216116990+217072412+217531201+217382937+216841798
4077+216207691+215594329+215029620+214726574+214885000+215295274+215496288
4067+215261699+214717683+214139116+213700759+213286092+212731844+212340972
4057+212693021+213794127+214929837+215540026+215725316+215760286+215715101
4047+215704258+215882488+216070253+215971882+215755108+215778259+215864149
4037+215510548+214772910+214389691+214976939+216341503+217603842+217966978
4027+217435618+216772835+216639912+216859561+216791331+216298253+215858187
4017+215809498+216025225+216254026+216234764+215642251+214523712+213637043
4007+213794459+214935851+216221410+216988335+217286919+217444701+217528690
3997+217500397+217497904+217572847+217464364+216989329+216406526+216191235
3987+216633305+217608357+218513905+218599533+217670695+216455232+216035597
3977+216785456+218009792+218753828+218728726+218252261+217701900+217387173
3967+217586095+218374480+219545856+220693786+221353937+221321669+220845082
3957+220329795+220031996+220091650+220587971+221515693+222739611+223883845
3947+224520113+224691614+224813485+224934832+224630932+223711281+222573009
3937+221914043+222402153+224219664+226552411+227893405+227537486+226486777
3927+226163719+226686658+226937686+226377110+226056613+227093463+228878428
3917+229493813+227919048+225130216+222695263+221354756+221232589+222680306
3907+226419994+232592246+239544133+244345250+245490495+243682380+239903259
3897+235269215+231938075+231803182+234307778+236192771+235174992+233483012
3887+234063165+236160486+237264207+237582053+238462551+238194649+235059676
3878+231863795+232159032+235867899+240713504+244930442+246902876+245571033
3868+243167180+242804218+243954728+243458146+240331942+237044122+236286697
3858+239503044+247203464+257397446+262333578+256132457+245504999+237738841
3848+234686656+235810703+239635828+244470869+249334046+253779175+256643054
3838+256479172+253941001+251261749+249213640+247134257+245131281+244334512
3828+244986906+246324710+248737750+253550147+259364563+261691731+259811968
3818+257271705+254682370+250450894+245807157+243576338+244935654+249133346
3808+253690478+256236738+257892860+261086858+264557267+264796772+262415545
3798+260404498+258903125+257045536+255738570+256138262+257997855+260748389
3788+264559114+269566127+275087625+280592981+286613484+293507041+300270952
3778+306098600+312103989+319983441+330487319+343347269+356906541+368349333
3768+376202776+381028368+383523307+384795147+386584766+388971832+389847432
3758+388577858+388193262+392175262+401527480+414046695+424719424+430771672
3748+435613582+442892031+451368580+456432719+458353780+462510279+472298170
3738+487678335+505308094+519535797+526771711+529105991+531690916+538090140
3728+548731038+561168738+571524859+577326845+578461526+576386258+573934796
3718+573702700+576283406+580998651+586646535+590249273+588094617+580659868
3708+572237883+566867489+566585048+570362251+574262597+575044130+573856664
3698+573835745+576324791+580855321+586667524+593027385+597858975+597971031
3688+593614372+589140636+587071121+586922387+588063099+590923841+596109171
3678+602787977+607354662+606499773+603342609+602458921+603131955+601085450
3668+594439556+585564953+577643001+572662538+570980477+572039954+575151724
3658+578656282+580161648+579974597+581448514+586423887+592609981+594530903
3648+589391664+580857553+573595525+569392691+567660005+566980243+566396045
3638+565803340+565568873+566175001+568495022+573886264+582442480+589774552
3628+589598902+583597243+578265794+576943121+579929795+585305906+589143914
3618+589155349+587782366+588069863+589942043+591691359+592734868+593592616
3608+594242290+594193898+593678593+593859891+596000810+600323580+605800172
3598+610887113+614001811+614039396+611568235+609257872+609944782+613523254
3588+615629518+612267348+606386880+604015015+606633655+610824635+612900426
3578+612474655+611339870+610798207+611322019+613682448+618628464+624668335
3568+627271843+623467794+616642904+611981037+611043029+611908308+612094348
3558+611297125+610911797+611241202+610556872+607804979+604871578+604213048
3548+605797174+607716979+608233678+606514974+603152734+600427478+600186631
3538+601657724+602710856+602388354+601047866+599582769+599350150+600977787
3528+602921370+602909098+600550970+597173320+594294588+593120056+593919929
3518+595022359+593858287+590260360+587030468+586291400+587126835+587405755
3508+586706433+586276827+586843104+587678190+587606647+586251166+584156582
3498+582193056+581008448+580601748+580138428+578678143+576523556+575222778
3488+575672816+576792435+576729504+574917326+572523845+571137404+571041072
3478+570910782+569583751+567640307+566328058+565722140+565202407+564950229
3468+565516715+566251669+565555904+562858260+559580394+557893451+558598735
3458+560307468+560841809+559408579+557091592+555417933+554983934+555455552
3448+556114152+556067049+554658783+551896151+548402993+545313747+543849591
3438+544228400+545366811+546191717+546425347+545889089+544475383+542845340
3428+541957957+542035392+542528522+542771880+542367864+541367553+540143967
3418+538962776+537967415+537464279+537667576+538222348+538415430+537815927
3408+536643208+535320954+533850139+532115955+530467085+529368385+528760270
3398+528200164+527404650+526555618+526054991+525895728+525593797+524814286
3388+523639196+522349610+521312447+520654510+520013343+519291219+519140986
3378+519824514+520521604+520609429+520466587+520455465+520351394+520097995
3368+519912408+519574532+518765385+517975519+518059823+518920604+519548313
3358+519508602+519357776+519275181+518557381+517117073+516256013+516898400
3348+517821311+516874971+513867936+511013016+510342249+511760487+513853955
3338+515633499+516924933+517677249+517628682+516713860+515438220+514407158
3328+513501644+512161504+510635952+509999178+510559214+511242777+511072287
3318+510374360+509881787+509526827+508809898+507823533+507245436+507415996
3308+507837409+507729920+507058072+506722915+507423841+508607751+509122742
3298+508712520+508057163+507560860+506948317+505911921+504636978+503921688
3288+504723094+506895113+508721271+508716948+507505494+506859167+507504902
3278+508760285+509597812+509437189+508457797+507435625+506892324+506483881
3268+505656674+504726895+504677491+505739304+506837028+506979940+506471294
3258+505830058+504588097+502481450+500656896+500169204+500374943+499998122
3248+498929371+498134379+498334121+499256369+499918002+499577092+498404583
3238+497153104+496389910+496062283+495581356+494458703+492921436+491562120
3228+490508779+489480960+488542150+488235826+488924236+490202490+491106818
3218+491029418+490173553+488927408+487336624+485505933+483925712+483022326
3208+482699859+482501931+482030800+481177236+480090669+479013027+478239721
3198+478078436+478454002+478638856+477830337+476002366+473915208+472382857
3188+471671995+471330423+470548297+469009565+467343821+466442979+466466548
3178+466806238+466876770+466547749+465904141+465095169+464360494+463680208
3168+462525236+460557805+458354721+456776523+455886211+455042722+453788977
3158+452187245+450531054+449131015+448235857+447958471+448304680+449083425
3148+449671980+449311058+447912902+446285544+445322817+445123250+445067710
3138+444616662+443746781+442656134+441456256+440305363+439504863+439224862
3128+439319904+439511766+439528571+438997856+437600537+435583981+433825287
3118+433046926+433000067+432721043+431698244+430374351+429349425+428625314
3108+427845035+426858496+425900197+425470730+425950019+426981255+427457581
3098+426606457+424896992+423457939+422913348+423106535+423542940+423751572
3088+423546183+423181390+422971991+422698406+421764861+420056651+418313262
3078+417449761+417655569+418246775+418347046+417702776+416827735+416344541
3068+416234542+415876409+414938332+413926271+413514376+413609871+413486798
3058+412671097+411334582+409957102+408887548+408203463+407831105+407652910
3048+407428275+406853211+405927442+404978940+404159822+403334393+402580577
3038+402224536+402178758+401802984+400723808+399371116+398377220+397801738
3028+397318858+396870913+396639549+396531398+396183306+395464704+394626166
3018+393907180+393255658+392536916+391799487+391126384+390442019+389761350
3008+389360159+389346038+389343179+388923509+388072874+387052515+386122666
2998+385479442+385181137+385072986+384904971+384525501+383913446+383073897
2988+382010445+380854532+379895919+379330583+379020877+378626833+377989536
2978+377320164+376942680+376860469+376707377+376155324+375196224+374039787
2968+372943562+372095506+371504893+371044257+370586375+370044050+369439003
2958+368976659+368804670+368701644+368258405+367358993+366321725+365575614
2948+365254438+365117872+364885776+364542042+364217205+363950662+363709536
2938+363470257+363196811+362856599+362458754+361989855+361347259+360414516
2928+359202923+357903365+356786187+356037810+355666114+355522714+355408636
2918+355178911+354749060+354081082+353295330+352724102+352611314+352734492
2908+352573137+351980083+351433854+351390447+351617278+351486395+350761378
2898+349765006+348917682+348410955+348191793+348038213+347742767+347291963
2888+346764177+346130680+345348519+344573296+344060607+343840957+343644528
2878+343226566+342666251+342203209+341860242+341451381+340954380+340589693
2868+340437158+340251258+339821826+339303558+338970493+338800701+338549394
2858+338159917+337845330+337754716+337742757+337513973+336916911+336096921
2848+335384594+334962031+334648839+334165192+333568164+333178722+333067572
2838+332905659+332402592+331645185+330937496+330493665+330296677+330127024
2828+329775481+329306965+328987079+328891409+328798285+328531707+328126716
2818+327596036+326896784+326202726+325793272+325594228+325235572+324579726
2808+323816079+323131400+322605636+322231186+321819396+321188758+320536364
2798+320250716+320367095+320552890+320507984+320088872+319268360+318275510
2788+317569877+317419330+317603871+317653239+317294723+316582710+315691735
2778+314780713+314030558+313584565+313377154+313120652+312514001+311526206
2768+310558877+310167553+310412061+310661450+310285606+309327586+308256254
2758+307339898+306578970+306035947+305832196+305812393+305541388+304771883
2748+303747166+302951651+302663353+302733397+302687200+302144248+301248567
2738+300523828+300247558+300181628+299940816+299407661+298759520+298236197
2728+297898181+297583141+297154302+296734423+296528824+296458048+296194364
2718+295590572+294854119+294205770+293563801+292715152+291701540+290872259
2708+290523121+290569579+290654405+290555476+290373707+290277166+290207279
2698+289954403+289424578+288710752+287982527+287426326+287213022+287358147
2688+287630687+287718739+287486207+287021317+286502578+286085924+285844990
2678+285734398+285634597+285448017+285123180+284644501+284080386+283581694
2668+283245247+283054048+283009943+283165563+283393197+283298608+282598380
2658+281499052+280503604+279905844+279633827+279487900+279334808+279123073
2648+278892023+278757531+278781222+278858186+278787009+278453369+277940156
2638+277432295+276999185+276556626+276076379+275684967+275493279+275489148
2628+275599042+275693892+275620746+275387325+275150748+274923620+274556963
2618+274079905+273743685+273660322+273644877+273454305+273043108+272583883
2608+272294992+272220381+272194668+272061571+271844415+271643976+271483876
2598+271359617+271335455+271439806+271529723+271422740+271133831+270846858
2588+270698647+270688326+270722529+270683498+270530772+270348009+270224936
2578+270156095+270118528+270127994+270156949+270132317+270055457+269996884
2568+269983792+270015519+270135943+270362199+270610229+270795990+270927256
2558+271016633+271004360+270840843+270571721+270301029+270112165+270003108
2548+269874124+269640982+269341771+269032972+268668424+268244605+267931360
2538+267849253+267845035+267679374+267319480+266915569+266616166+266486921
2528+266501216+266559179+266562526+266487183+266379433+266283589+266175839
2518+266001810+265785246+265631195+265607470+265686090+265773375+265752595
2508+265589933+265418153+265366413+265338085+265153998+264836186+264522803
2498+264229693+263936426+263759608+263809726+263989769+264086450+263980600
2488+263728369+263514472+263487539+263586521+263613750+263480235+263257413
2478+263029187+262826115+262651146+262493225+262356624+262242545+262067122
2468+261757260+261443876+261321796+261345382+261315799+261164764+260910877
2458+260528966+260086878+259784895+259694699+259678940+259638392+259598123
2448+259530939+259344376+259076909+258892160+258834911+258762009+258561291
2438+258300728+258111655+258031797+258002893+257964803+257935465+257988111
2428+258111585+258139390+257910885+257483231+257112041+257026831+257228176
2418+257500995+257659996+257743812+257888571+258095547+258251951+258308189
2408+258299856+258231329+258039293+257704449+257365352+257252616+257480546
2398+257966076+258596139+259434084+260762474+263006856+266683142+272407048
2388+280865206+292654696+308118991+327354387+350288120+376600829+405539394
2378+435941975+466622534+496706309+525411628+551655931+574267827+592624904
2368+606942210+617961776+626191238+631323573+632644677+629809107+622622318
2358+610492929+593155967+571319992+546091898+520278282+499331503+488119656
2348+488477824+499361731+516590054+533376638+544616586+549997962+551982825
2338+552872580+553506600+553893078+554271398+554776870+554829098+553661086
2328+550954064+546678746+540886905+533798365+525711571+516698659+506678567
2318+496030312+485742318+476498285+467869132+458734122+448379396+436938521
2308+424951660+412913966+401209024+390101841+379637709+369677480+360110598
2298+350978238+342400964+334459557+327127485+320293286+313863764+307826055
2288+302212897+297077459+292507357+288595453+285370076+282736968+280476270
2278+278364358+276343200+274515038+272963894+271655220+270499934+269444414
2268+268492111+267653556+266889019+266133896+265368069+264616485+263908081
2258+263263479+262681618+262136504+261623169+261174108+260794376+260430403
2248+260030728+259591673+259131490+258659541+258187312+257744195+257355991
2238+257018062+256723767+256507430+256402503+256361642+256282341+256117535
2228+255917479+255770105+255732416+255800821+255915684+256007780+256044161
2218+256010325+255879598+255666695+255490435+255497408+255698353+255916625
2208+255943419+255772441+255632214+255718400+255960956+256149140+256189252
2198+256121631+256003683+255903690+255909269+256047229+256246361+256397082
2188+256436427+256413277+256448386+256566700+256646785+256609549+256543776
2178+256573342+256715452+256907697+257061417+257080349+256917111+256606499
2168+256221206+255863160+255682698+255763568+255975651+256088056+256042104
2158+255964338+255915614+255797352+255518083+255120117+254741780+254525913
2148+254504977+254564683+254649632+254943718+255636799+256620619+257681212
2138+258859021+260342735+262149055+264163118+266370908+268843829+271584147
2128+274541622+277743727+281296295+285243987+289494360+293897912+298343546
2118+302741939+306946481+310704264+313709033+315744591+316743019+316682494
2108+315518491+313256242+310036774+306162682+302021105+297889256+293831459
2098+289841179+285998570+282443893+279280610+276512836+274033692+271732620
2088+269635003+267859294+266449093+265321629+264358745+263513461+262838109
2078+262398322+262161362+262002814+261813270+261572667+261352390+261273979
2068+261427977+261762716+262053873+262083718+261878973+261657075+261553944
2058+261550388+261605004+261681951+261720617+261727868+261808372+262004662
2048+262219465+262364172+262494462+262717964+263003352+263181024+263165892
2038+263079671+263104233+263295555+263553277+263735133+263838473+264030544
2028+264406005+264829928+265141011+265361480+265630254+266083185+266750326
2018+267395224+267619877+267327725+266876172+266643308+266693549+266909938
2008+267200120+267512702+267804103+268033271+268168425+268228183+268277186
1998+268373065+268646894+269347977+270485953+271494788+271702322+271114499
1988+270287676+269636921+269275963+269209249+269333438+269472863+269582374
1978+269751208+270010011+270285218+270501659+270704975+271116608+271884771
1968+272685445+272918483+272495187+271997158+271889669+272070688+272298374
1958+272594709+273041539+273528358+273900873+274174250+274483589+274923376
1948+275569756+276643632+278330574+280155512+280951044+280129747+278551078
1938+277440872+277149802+277329967+277652747+278019178+278397393+278721202
1928+279021337+279622723+280816134+282235993+283243347+283964669+284855643
1918+285394098+284660783+283085426+282065660+282250183+283154284+283925045
1908+284097469+283845518+283635107+283673128+283834221+284032272+284427867
1898+285227845+286299019+287147179+287623662+288293976+289428535+290193141
1888+289795820+288802813+288235961+288274765+288517338+288709967+288832832
1878+288936398+289078055+289353645+290180991+292333851+296024885+299760773
1868+301014204+299103289+296007871+293780801+292942402+292998744+293343175
1858+293635588+293825463+294019068+294309145+294816186+295764653+297394173
1848+299969824+303550353+306988947+307887313+305560180+302414556+300703731
1838+300573999+301029545+301575530+302900260+305807721+309490091+311714268
1828+311720753+311005393+310376778+309154795+307319851+306020363+305901996
1818+306493515+307147862+307916704+309300147+311293273+312992837+313479168
1808+312923595+312398319+312959332+315034286+318049166+320546022+321386826
1798+321088521+321452512+323921859+328083239+331055235+330069602+326550923
1788+324103750+324167169+325734071+327528746+329314357+331003670+332094421
1778+332800925+334537096+338573172+344345698+348853914+349326544+346635874
1768+343210284+340571667+339950164+341927392+345025425+346835301+347289000
1758+347949586+348978766+350029527+352282328+356961976+362755804+366391525
1748+366581957+365184150+364343242+364962165+366903866+369166882+370609107
1738+371921007+375448437+381587289+386034353+384605865+380004384+375966496
1728+373281508+372078457+372480764+374026991+376717243+381833540+390158323
1718+399126887+403004954+399825058+393901671+389329547+387564751+388817311
1708+392702525+397758959+402043099+405803183+411311432+418598353+423629754
1698+424137284+421925484+417672270+412476411+409483391+410149243+413442763
1688+418603548+426582714+436671141+442388197+439242887+432903770+429358455
1678+430293882+434763678+439855116+443176076+445870616+449511776+451989560
1668+450666225+448130216+448491835+451878899+454963300+455581212+455763730
1658+458832302+466791385+480108101+494671519+499801344+496138219+495145230
1648+499581590+504031652+503047169+499383940+498291516+501426296+508640663
1638+519433712+531316850+538440986+538524523+537471356+540521554+548215524
1628+558319327+568828261+579798250+591254710+601401745+609666071+618717858
1618+630836927+643910808+653066563+658036427+662262272+667388610+673005987
1608+678244381+682577332+685907077+688294353+689889286+691336044+693668929
1598+697384491+701950270+706305116+709773554+712632971+715661344+719142264
1588+722686847+725875669+728581331+730885697+733246336+736641488+742073313
1578+749471454+756435874+759909333+761595543+766023326+774512601+784219292
1568+791563601+796911472+802842215+810964641+822827800+840779921+863385749
1558+878202252+878791680+875387811+873957092+874039582+874052831+873284825
1548+872748253+874395484+878719300+884369310+889682873+891083609+883103990
1538+869620027+860225308+856820184+855239057+851285996+846053528+843359790
1528+843984222+845705576+847069006+848846423+850845721+851114390+849857159
1518+848862252+847447221+844462639+841781243+842445560+847763238+856946047
1508+865838083+865356318+853179513+840933048+835466218+835651212+838545284
1498+840937301+839951947+836117356+833724782+835642426+840117137+842035897
1488+838577639+832714464+828376632+826600192+826399300+826633174+827253492
1478+829156771+832973441+838086391+842123129+841953825+837648696+833148952
1468+831209552+831440916+831781756+830941928+830416862+832947850+839519412
1458+847267527+849609129+844413549+836943447+830970587+827339539+825878138
1448+825295893+823898504+821543514+819476717+818620712+819348972+821977653
1438+825955050+828547541+827160193+823565055+821121508+820631027+820779692
1428+820563459+820350364+820623775+821443172+823253223+826333405+828720959
1418+827047231+821636045+816238388+812930747+811325633+810450312+810060034
1408+810494939+811485523+811710751+810599674+809855376+811344390+814454695
1398+816855568+817361459+816421290+814549040+812345782+810871551+810567877
1388+810489849+809455405+808101598+808374730+811064912+815437679+820669658
1378+826398044+832076784+836756501+839818135+841706074+843425057+845240477
1368+846626360+847663384+849267452+851434032+852725780+852348471+851200088
1358+850206088+849446937+848906600+848765397+849033020+849386203+849364656
1348+848880102+848561367+849211111+850990410+853394281+855707155+857299648
1338+857957132+858065283+858155862+858473621+859261221+861047703+864054181
1328+867557624+870559080+872955002+875406429+878219336+881066690+883746343
1318+886643483+890341333+894798613+898965606+901697277+903184827+904863994
1308+907986293+912741319+918134444+922357500+924250669+924595275+925020837
1298+926115458+927431053+928390119+928509009+927691843+926593038+925795467
1288+924869244+923104448+920687956+918393979+916571935+914987600+913610294
1278+913129506+914111443+915798421+916713975+916536861+916173498+916093866
1268+916156763+916756231+918569141+921326961+923908992+925537605+926397515
1258+927186928+928392908+929959950+931372470+932043551+931888262+931524551
1248+931518206+931637304+931360546+930895866+931030444+931986721+932939372
1238+932630887+930538639+927657606+925623234+924914359+924684320+924225218
1228+923566688+922911017+922595559+923177316+924520664+925392288+924851951
1218+923415862+922306667+922142105+922585029+923133874+924251994+927060717
1208+931290467+934463599+934469805+932398128+931344020+933177360+937471471
1198+942524314+946494948+948389999+948878318+949711522+951870571+954679503
1188+957116496+959214880+961446588+963687639+965514495+966605071+966687213
1178+965928342+965565886+967126373+970489658+973737331+975514051+976652393
1168+978450310+980447656+981229817+980794423+980680205+981960517+984240757
1158+986320941+987213694+986684723+985399111+984576297+984977803+986240264
1148+987670007+989516805+992611491+996776881+1000633227+1003134092+1004269296
1138+1004354227+1004115611+1005157726+1008539490+1012610116+1013982123
1130+1011561308+1008022721+1006704197+1008561734+1012524767+1017321282
1121+1021822561+1025204186+1027733361+1030176351+1032511956+1033659014
1113+1032360921+1028626393+1024415609+1022439113+1023266738+1024877989
1104+1025855394+1027157043+1030211076+1034404009+1036863455+1035095870
1095+1030624087+1028591110+1032811795+1041879899+1050050578+1052525782
1087+1049106782+1042472882+1035700220+1031609581+1032095320+1037324370
1078+1045441427+1052800379+1055624931+1053056706+1047983712+1044154490
1070+1043384741+1045124853+1047473637+1048970251+1050306138+1053499561
1061+1059079354+1064994407+1068448063+1068747623+1067786186+1067438094
1053+1067848385+1068088466+1067466474+1066127450+1064898808+1065092448
1044+1067715201+1071734994+1073741823+1071302808+1066191253+1062052639
1035+1060635866+1061961642+1065616469+1069978078+1072298413+1071824597
1027+1070584868+1069526367+1067374501+1064207993+1062160024+1062043784
1018+1062289861+1061764306+1061382046+1061514812+1060832923+1059567254
1010+1060221879+1063408957+1065901525+1064304220+1059357855+1055054470
1001+1054520617+1057660139+1061960735+1064885977+1064711374+1060090299
993+1051856235+1044557390+1042784645+1046379713+1051157262+1053628422
984+1053249998+1050860770+1047422943+1044116906+1041908906+1040990005
975+1040725031+1040313275+1039907238+1039826212+1039099416+1036848323
967+1034038275+1032174254+1031332474+1030090932+1027028879+1022127211
958+1016963288+1013442901+1012177023+1012352046+1012743998+1012650560
950+1012117544+1011521631+1010802018+1008994269+1005067844+999528704+994556539
940+991937830+991267516+990787913+989605083+988346248+987908274+988511299
930+989780245+990914333+991004146+989714629+987453147+984969714+983201153
920+982959538+984256376+986113495+987265015+987244236+986524134+985424911
910+983196272+978914084+973585320+970017377+969787408+971623956+973478424
900+974731751+975536086+975727564+975425982+974950075+973657560+970612313
890+966786509+964489115+964092631+963589738+961995083+960958478+962111742
880+964973111+968085020+970291276+970315961+967246936+962546648+959454263
870+959336280+960389830+960557461+959922360+959353224+958672032+957466749
860+956350094+956287058+957424075+959008061+960186358+960511090+959935330
850+958995091+958564160+958775790+958608787+957081352+955010581+954188604
840+954411880+953636691+951022306+947831811+945982223+947099716+951840308
830+958699994+964282784+966177696+965330268+964813081+966550054+969480108
820+970850441+969225035+965977292+964234950+966291077+971019327+974489578
810+974333732+972354795+971455279+971986412+972281997+971046801+968375097
800+965191505+962419669+960792520+961033019+963288295+966752341+970299714
790+973344264+976109336+978355199+978172785+973814592+967365546+964048282
780+966424610+971404167+974168821+973553802+971663214+969919964+968102662
770+966049254+964477819+964229023+965255866+966541059+966815447+965314788
760+962570356+960667355+961753469+965534298+969314011+971577794+973912354
750+977384976+979677976+978345367+974652049+971940739+971592926+971868917
740+970793472+969164649+968879593+969547537+969871223+970698988+973327877
730+977179551+980710747+982382244+980844628+976942191+974114361+974420755
720+975611115+973716831+967884965+961628931+959237054+961172967+964447626
710+967293027+970397615+973320765+974262607+973432890+972631972+972558407
700+973098396+973733496+973004191+969999247+965800666+961900599+958798383
690+957187830+957948026+959700619+959102266+954617932+947913744+941160954
680+935165641+930392276+927530837+926316629+925760881+925439495+925131359
670+925244530+927330781+930604185+932036160+930111194+925843232+921637469
660+918917721+916826101+912853654+906329997+901481324+903139084+909616301
650+913219039+909728636+903464235+899613955+898415297+897673928+896399752
640+896068256+898686965+904114467+910053787+914286256+915402354+911672707
630+903424140+894874200+889360791+885236681+880051700+875696854+875633121
620+878915590+879708419+873291170+862775194+857100011+862049026+874693928
610+886090734+890559100+889480308+887087733+886630514+887446912+884744736
600+875825924
##END=
