##TITLE=<SNM>
##JCAMP-DX=4.24
##DATA TYPE=INFRARED SPECTRUM
##DATE=2/5/2025
##SAMPLING PROCEDURE=Instrument type and / or accessory
##ORIGIN=Admin
##XUNITS=1/CM
##YUNITS=ABSORBANCE
##RESOLUTION=4
##FIRSTX=4497.3318
##LASTX=599.83466
##DELTAX=-1.4281778
##MAXY=1.8111148
##MINY=0.27456146
##XFACTOR=1
##YFACTOR=1.6867321e-09
##NPOINTS=2730
##FIRSTY=0.29341349
##XYDATA=(X++(Y..Y))
4497+173953820+174443083+174707725+174863333+175080322+174858668+173717148
4487+172220399+171519324+172171157+173909313+176083514+177855364+178514052
4477+178087106+177286945+176683701+176317659+176071234+175958720+175992131
4467+175910025+175271073+174119446+173349975+173822029+175237096+176410985
4457+176522227+175741289+174745288+173951929+173363509+172953137+172813766
4447+172891102+172991973+173060492+173102419+173017186+172783871+172547711
4437+172383145+172253952+172215788+172398588+172726801+172829438+172462213
4427+171990848+172065021+172719027+173261102+173200481+172791786+172507550
4417+172347419+171910685+171099021+170430103+170380790+170684002+170731089
4407+170471165+170333773+170424838+170468497+170498693+170887245+171548283
4397+171789425+171251272+170448319+170105971+170405985+170938590+171013046
4387+170180515+168740447+167465564+166834068+166769595+166853645+166565009
4377+165757622+164995183+164940799+165537223+166232096+166723904+167040014
4367+167171151+166977078+166369046+165521639+164835069+164588026+164717732
4357+164992056+165259577+165518370+165905862+166615047+167643770+168577684
4347+168779849+168002886+166710140+165580369+164898465+164590747+164538412
4337+164576859+164487491+164238398+164008935+163921175+163970029+164174102
4327+164577831+165141321+165729687+166130254+166154160+165874588+165608109
4317+165536074+165540226+165445151+165177259+164693897+164028671+163453096
4307+163388129+164108145+165547788+167233433+168372886+168282511+166951176
4297+165094940+163554550+162777163+162843651+163603845+164618416+165329262
4287+165518971+165385908+165147452+164901027+164764748+164785774+164864770
4277+164991508+165286363+165706382+165995937+165985088+165794107+165719722
4267+165908035+166145873+166081965+165635531+165029407+164543095+164347061
4257+164410208+164581153+164835317+165251078+165734599+166119670+166497285
4247+167013617+167478339+167635554+167622109+167752556+168022958+168136126
4237+167874241+167215358+166216318+165071105+164262622+164293312+165129783
4227+166256497+167391409+168670798+169923348+170411462+169720176+168415980
4217+167445952+167299072+167880107+168717248+169228757+169145343+168708414
4207+168431740+168768488+169747209+170711247+170811905+169996779+169104511
4197+168877821+169250878+169631602+169571405+169099705+168571111+168220564
4187+167897192+167365206+166820640+166793183+167469239+168475594+169381661
4177+170001019+170247144+170209934+170275361+170708155+171297087+171646309
4167+171567347+171183319+170863692+170849981+170861219+170510690+170071729
4157+170221171+171072236+171994258+172313372+171818631+170757928+169695139
4147+169217802+169434014+169816434+169797176+169429632+169234852+169508787
4137+170005754+170259795+170078549+169695351+169502003+169682029+170043583
4127+170169543+169812406+169135042+168504164+168195227+168367850+168999364
4117+169724151+170150938+170367874+170685221+170975270+170789943+170040120
4107+169144936+168609046+168690887+169296127+169981813+170253876+170071517
4097+169844899+169762103+169467213+168680197+167737573+167218273+167408954
4087+168246272+169339645+170094504+170294125+170364305+170638735+170779254
4077+170437223+170020861+170152245+170711459+171022216+170777204+170333049
4067+170158518+170307270+170486342+170471377+170311440+170147669+170006373
4057+169848150+169687612+169583067+169582112+169665297+169721554+169712490
4047+169852867+170351795+170929561+170932900+170078814+168843032+168008134
4037+167976012+168528494+169157658+169588579+169935486+170365135+170786851
4027+170976595+170913677+170924402+171459498+172631903+173954792+174640372
4017+174253357+173033635+171578991+170345788+169468591+168943284+168866319
4007+169389294+170465299+171810733+173101342+174045944+174357284+173936452
3997+173137545+172600717+172617856+172815268+172750866+172631143+172982537
3987+173783529+174485188+174787163+174836918+174779088+174678147+174786492
3977+175335775+176087348+176490971+176276032+175640295+174942983+174455840
3967+174408788+175023588+176192300+177178654+177191870+176433990+175960593
3957+176344551+177095717+177551445+177893917+178876596+180540367+181745688
3947+181645613+181073006+181278935+181959232+181802528+180543494+179237213
3937+178945221+180069708+182333013+184743479+185938394+185311050+183816192
3927+182965392+183112166+183297298+182965763+183020784+184387049+186375871
3917+187147427+185680343+182902439+180618444+179799201+180283446+181916491
3907+185257744+190521136+196246512+200095332+201128650+199718972+196083377
3897+191221664+187674624+187500959+190123238+192410413+192206286+191599597
3887+193314307+196226882+197423157+197382537+198301467+198968124+197100898
3878+194476517+194270553+196758409+200440790+204267737+206758844+206188534
3868+203993555+203277108+204146389+203949277+201413769+198368343+197365593
3858+200107736+207387584+217462598+222719118+216994166+206601734+198821757
3848+195615669+196579849+200337817+205064471+209671472+214083941+217429258
3838+217530605+214137725+209939099+206849431+204758432+203450579+203382130
3828+204447021+205958665+208450390+213122960+218343753+219904498+217803462
3818+215847893+214216350+210474725+205498078+202517196+203236470+207247807
3808+212176201+215517242+218246204+222619025+226841732+227125897+224969418
3798+224115208+224002517+222492181+220381216+219860697+221431725+224442061
3788+228643036+233833492+239107645+244065016+249860200+257350853+265223008
3778+271858797+278124834+286220692+297489826+311850184+327198538+339802700
3768+347498080+351051851+352280425+353434260+356205097+359784948+361872891
3758+362431291+364523192+371174636+383262554+398410935+410890179+417817678
3748+423527381+432154607+441966977+447910684+451023586+457305932+469572975
3738+486455713+503623976+516633882+524598214+529550991+533675531+538914435
3728+546864951+557079848+566384243+571865067+573367010+572180241+570335666
3718+569883666+571259879+573618082+575755073+575734047+572445553+567595254
3708+563067974+559488371+557645670+558097104+559486463+559320978+557201797
3698+555611546+557325372+563060377+571493989+580768171+588263577+589976201
3688+585300010+579164315+575260350+573936401+574900969+578652418+585974176
3678+595819268+602690050+600779148+594092826+589830152+588077455+584887941
3668+578990950+572223423+566384137+562980726+562927296+565325890+567827421
3658+568336844+566947980+566780022+570991280+579419097+587686482+588721231
3648+581017900+571495120+565278361+562221680+560615951+559962811+561022684
3638+564045512+567432455+569036206+569349224+571569187+577241044+582804309
3628+583542153+581074581+579195659+579111132+580879766+583895315+586110649
3618+586181818+586015874+587755426+590891050+594014095+596961936+599659519
3608+601028912+600909331+600938025+602656904+606320539+611283882+616650566
3598+621087382+622350622+619337618+615294813+615410649+620923205+627807487
3588+630888268+629214196+625834532+623313424+622227083+622178034+622611765
3578+622990794+622892838+622279735+621452559+621059961+622561939+627178552
3568+633148657+636016777+634019864+629845745+626115817+623091505+620291091
3558+617784754+615739640+614171368+613330339+613637562+615281526+618361883
3548+622416774+625530418+625731629+623491806+620889564+618689531+616348714
3538+613839621+611601565+609650095+608004081+607007992+606664866+606571364
3528+606687624+607151462+607280584+606015013+603476872+600794908+598307512
3518+595688944+593648000+593543048+595522151+598181428+599887869+599952749
3508+598772905+597198767+595856513+594954563+594240324+593241125+592004177
3498+591035474+590207520+588665751+586011033+582695400+579741833+578518772
3488+579625184+581978864+584074122+585490690+586090047+585021233+582076784
3478+578843805+577005839+576365314+575548314+574269279+573577161+573671335
3468+573266935+571969277+571029692+571079482+571370344+571212527+570517901
3458+569432514+568488971+568229454+568287160+567894314+567047420+566015816
3448+564418250+562009303+559530352+557801578+556878319+556504097+556507772
3438+556636046+556610215+556304017+555572251+554327811+552902549+551745746
3428+550980091+550666684+550853336+551119285+550872030+550154257+549406060
3418+548597718+547329813+545533863+543714802+542682422+542936745+544173905
3408+545440502+545713730+544531378+542425201+540557940+539736382+539887414
3398+540334396+540409276+540026113+539533298+538931786+537784241+536067976
3388+534388710+533182787+532391125+531832229+531303900+530508457+529435120
3378+528638828+528689891+529315680+529445474+528447406+526949137+526030366
3368+526041215+526561840+527117696+527520330+527760059+527821758+527650654
3358+527368768+527419159+528116719+528997820+529136307+528334644+527466299
3348+527273428+527306963+526619016+525162940+523823725+523414165+524141161
3338+525518823+526556787+526708031+526447594+526217831+525541651+524028611
3328+522176828+520413529+518603904+516891279+515772640+515303713+515341065
3318+516269907+518333856+520637003+521883175+521733415+520750118+519472213
3308+518062783+516621761+515494817+514991472+514896697+514726583+514393246
3298+514110194+513970894+514191399+515102043+516295385+516690633+516112762
3288+515740483+516331465+517165638+517228857+516467125+515562665+515119287
3278+515201553+515470611+515601430+515502662+515326647+515531427+516654907
3268+518492273+519693955+519063219+517184226+515651185+514980129+514382539
3258+513260260+511780933+510095906+508244406+506809780+506621043+507795798
3248+509573267+510870572+510887569+509586836+507691482+506111938+505375189
3238+505380313+505512404+505144437+504149266+502940835+502253947+502826342
3228+504606849+506124235+505570782+502935251+500175157+498970188+499060793
3218+499044715+498162942+496803620+495684168+495065305+494616803+493845248
3208+492712014+491713310+491184168+490764714+489844035+488410893+487149703
3198+486634590+486621410+486399420+485711437+484805635+483824882+482844412
3188+482206608+481987128+481524668+480305706+478760474+477484902+476403084
3178+475229496+474115521+473391529+472959389+472212640+470680942+468733183
3168+467260746+466656053+466610998+466706656+466550536+465728872+464293080
3158+462868667+461917067+461383862+461075614+460798781+460286142+459469249
3148+458613166+457934300+457283068+456248673+454563329+452581964+451159635
3138+450689436+450508863+449695114+448280101+447102589+446572246+446291314
3128+445913629+445610399+445406856+444812658+443654052+442658917+442564037
3118+443042222+443035401+441965705+440266225+438789195+437947318+437412381
3108+436574886+435275036+433929920+432946234+432300833+431839186+431669778
3098+431989864+432686717+433284448+433316817+432776898+432104287+431661969
3088+431362520+430841330+429851424+428512563+427310492+426759123+426929025
3078+427342508+427381591+426806122+425914808+425195375+424793589+424390178
3068+423596360+422389625+421144054+420280762+419934527+419961948+420129624
3058+420142911+419678896+418646374+417300551+415984129+414897647+414087821
3048+413435034+412743729+412094900+411868529+412109176+412214694+411661028
3038+410668190+409735496+408972668+408251150+407509949+406657259+405643077
3028+404652748+403812213+402960477+402068668+401421924+401098128+400757476
3018+400117835+399246946+398316513+397383254+396541907+396085277+396168921
3008+396357764+396021670+395214954+394504355+393996734+393321932+392443233
2998+391695742+391127694+390461691+389641900+388939217+388484425+388060801
2988+387478088+386839683+386284816+385792779+385365303+385035500+384636470
2978+383921984+382885540+381704530+380552391+379626199+379070908+378734532
2968+378268432+377583736+376967664+376638037+376417815+376013450+375420206
2958+374823570+374264746+373629910+372880723+372114291+371399240+370665601
2948+369862878+369187263+368918346+368988632+368998879+368689642+368110887
2938+367383008+366612619+365987960+365651125+365457688+365055549+364281166
2928+363387449+362779753+362576351+362534370+362340298+361831369+360999316
2918+359987925+359083925+358526585+358311097+358283040+358301415+358161656
2908+357586858+356569001+355501354+354719409+354159312+353608191+352958337
2898+352163635+351286915+350556139+350109263+349806987+349467925+349107308
2888+348847613+348733509+348670785+348521626+348261791+347955663+347552075
2878+346912399+346105435+345405119+344882268+344266727+343395731+342565374
2868+342173695+342173448+342153023+341856754+341370725+340853527+340306858
2858+339657287+338984923+338545680+338451683+338444969+338187147+337673589
2848+337159784+336818814+336636049+336475477+336156628+335619924+335018800
2838+334510402+334031298+333417983+332671729+331989188+331566659+331421493
2828+331374459+331191341+330773442+330210730+329644307+329131244+328683732
2818+328327567+328001827+327514666+326753712+325840983+324968045+324229388
2808+323697066+323432672+323297542+322994030+322414921+321749413+321191012
2798+320750956+320377758+320043043+319683627+319247564+318821784+318514208
2788+318201260+317623883+316783419+316017942+315586296+315375085+315119136
2778+314698728+314086826+313251062+312303597+311519674+311017141+310625815
2768+310195088+309778390+309423639+309050299+308600314+308076155+307402519
2758+306452757+305248566+304013278+303015457+302393696+302083364+301874803
2748+301596168+301275269+301072963+301018296+300872848+300360421+299513879
2738+298661012+298028615+297506046+296877536+296154127+295541819+295160494
2728+294929759+294692663+294356410+293937663+293518579+293128614+292692374
2718+292158869+291609726+291134686+290698906+290262702+289906943+289674052
2708+289408368+288931049+288285966+287676573+287240934+286963872+286730486
2698+286419623+285991688+285478254+284882643+284192946+283504168+282965980
2688+282599921+282337364+282189407+282171720+282136683+281919465+281581304
2678+281298587+281093030+280835951+280434271+279911543+279366818+278877908
2668+278425484+277976470+277615093+277433088+277329302+277124857+276835922
2658+276614993+276468590+276237625+275841334+275390430+275038982+274795384
2648+274522915+274135406+273724733+273403039+273091417+272635212+272089691
2638+271680979+271480458+271314584+271035401+270718266+270524777+270483644
2628+270474863+270369893+270138009+269832271+269503951+269162398+268835704
2618+268617779+268581611+268669954+268738014+268674372+268438830+268051250
2608+267598067+267186863+266859233+266586411+266344297+266138599+265970057
2598+265829838+265734180+265710275+265710257+265583272+265227301+264756307
2588+264408517+264293317+264327771+264394541+264445021+264457230+264399948
2578+264267645+264095923+263910331+263684402+263399212+263138546+263029442
2568+263051475+263018982+262833372+262648328+262679249+262946417+263317441
2558+263699756+264042634+264224251+264119970+263789760+263447182+263195510
2548+262922423+262517792+262055527+261653847+261297841+260931870+260602543
2538+260375430+260206906+260016650+259822701+259703455+259647039+259513252
2528+259176116+258683548+258254659+258113362+258281639+258528205+258601848
2518+258510218+258452159+258499494+258508575+258359010+258141650+258051451
2508+258132692+258199055+258037475+257617986+257076494+256625854+256482614
2498+256680751+256963980+257040927+256880531+256625784+256369711+256144719
2488+256001284+255995507+256110583+256197424+256079062+255786044+255546793
2478+255462902+255371679+255096365+254657228+254203284+253876414+253725364
2468+253658082+253513658+253229210+252896456+252655173+252574197+252610506
2458+252632345+252512251+252247362+251977102+251835152+251787199+251671752
2448+251414196+251133140+251003028+251059073+251156869+251096089+250790739
2438+250348810+249986655+249857992+249955487+250142069+250264689+250271368
2428+250232833+250238805+250284955+250285556+250196400+250086395+250047294
2418+250070634+250094664+250139507+250276757+250485654+250657446+250739747
2408+250784519+250837561+250836554+250689639+250459645+250356937+250485548
2398+250725241+250964528+251353044+252240065+253962107+256802347+261140607
2388+267559443+276758639+289365981+305773043+326028165+349847978+376756347
2378+406121474+436953313+467826002+497334422+524642350+549199230+570009184
2368+586090436+597808902+606426127+611919813+612722113+608202536+599559232
2358+587503364+571161182+549350014+522315244+494168726+472173309+461755363
2348+464262725+477769792+497154096+515395166+528253792+535777786+539311910
2338+540045160+539027303+537165731+535213201+533485275+531632467+528889900
2328+524669560+519077813+512563514+504989306+495760674+485043031+473920247
2318+463173204+452761972+442516755+432539431+422733916+412542624+401534262
2308+389933080+378320201+367161479+356783287+347359346+338689503+330343103
2298+322192190+314533773+307648573+301526836+296020358+290987082+286275447
2288+281794229+277631948+273980363+270941210+268482101+266523193+264963526
2278+263650690+262431339+261249923+260133351+259105459+258207536+257534130
2268+257096389+256715205+256204651+255571476+254896250+254170509+253405455
2258+252740318+252292700+252021327+251820204+251619894+251340111+250890991
2248+250299991+249726201+249289007+248981502+248770856+248645814+248541145
2238+248367268+248147293+248001332+247988575+248062660+248150190+248187948
2228+248130048+247982373+247793690+247605642+247476201+247523500+247817242
2218+248226660+248508723+248570935+248542311+248583621+248741967+248993587
2208+249321624+249718179+250160356+250609723+251019354+251336489+251527505
2198+251622439+251721595+251935616+252310192+252803501+253324444+253784554
2188+254122927+254336294+254519501+254788824+255099051+255260861+255234764
2178+255254076+255520361+255893470+256023123+255750937+255280632+254934238
2168+254823473+254821352+254788259+254708927+254613834+254477591+254263128
2158+254020096+253857879+253837136+253958308+254221642+254625106+255142251
2148+255744788+256450917+257415732+258947483+261266073+264277539+267761519
2138+271689443+276182216+281252437+286708630+292288468+297924652+303862635
2128+310378277+317463805+324937655+332683178+340612491+348545020+356223402
2118+363395966+369876023+375500952+380057492+383365916+385391948+386167567
2108+385702209+384020611+381238784+377661089+373705073+369571910+365166968
2098+360421833+355428524+350295243+345118039+339977302+334837555+329586601
2088+324162671+318585872+312978717+307521924+302289911+297238613+292366034
2078+287762089+283571627+279940114+276871506+274209561+271864645+269914713
2068+268439679+267379735+266537487+265708684+264870535+264135907+263531585
2058+263010748+262571805+262183801+261799119+261505147+261421115+261517886
2048+261721536+262019182+262418989+262980676+263766314+264690350+265674160
2038+266903158+268643999+270908222+273447052+275951834+278257331+280439430
2028+282648298+284891884+287059441+289007095+290622136+291947781+293059494
2018+293718006+293519339+292481569+291089861+289755964+288526348+287217965
2008+285646990+283787503+281787073+279838236+278059053+276449278+274903057
1998+273368956+272072888+271372643+271216558+270976335+270107990+268775542
1988+267504582+266561781+265937865+265563907+265335911+265164984+265062028
1978+265038759+265015560+264909318+264721500+264589215+264788782+265452913
1968+266225776+266516479+266202701+265747997+265577477+265706917+265993168
1958+266389670+266843243+267210645+267426839+267612838+267941175+268475970
1948+269208566+270224727+271622496+273031909+273536844+272678076+271197264
1938+270173223+269962224+270283493+270787298+271287692+271715292+272058223
1928+272469444+273381271+275050484+276948436+278331681+279366871+280572087
1918+281454566+281133262+280048423+279574178+280368261+281945473+283364904
1908+284061650+284202205+284306026+284640582+285127867+285679006+286406390
1898+287474885+288729909+289701280+290336610+291253950+292600692+293357794
1888+292711386+291333423+290286325+289756671+289431267+289150335+288879085
1878+288615115+288425636+288429188+289016194+290934535+294385917+297790158
1868+298492064+295862046+292106693+289418899+288263809+287995051+287938087
1858+287845556+287763043+287747318+287824725+288189442+289144133+290843630
1848+293421349+296902449+300126099+300663898+297930094+294500746+292668575
1838+292512967+292973342+293542167+294933133+297953205+301721227+303903061
1828+303739131+302811137+301990603+300629444+298703134+297301372+297034787
1818+297474878+298020240+298721439+300087510+302125415+303889845+304437291
1808+303996740+303652554+304373966+306545305+309635239+312177832+312948292
1798+312449717+312569582+314824387+318862316+321903696+321180729+317892270
1788+315457209+315388018+316907984+318836449+320732934+322275091+323054668
1778+323657842+325742639+330480106+336957655+341768835+342042170+338977467
1768+335312100+332624341+332058767+334090947+337192542+338998351+339466889
1758+340044231+340808331+341618545+343977667+349159466+355546833+359463908
1748+359558718+357973166+357083831+357799766+359865623+362172657+363542015
1738+364751330+368352771+374907002+379939465+378779976+374033851+369723896
1728+366849167+365589143+365995381+367538210+370313606+375805878+384885811
1718+394809846+399399992+396392112+390238112+385356893+383572887+385333641
1708+390080719+395801872+400202044+403900698+409821436+418202678+424455941
1698+425575852+423315781+418663442+413107810+410052790+410861450+414275674
1688+419594369+428118269+439145890+445388728+441908670+435159589+431569986
1678+432581941+437024942+442230982+446245977+450127219+454893097+457972111
1668+456827994+454582164+455666243+460217835+464636100+466289181+467069465
1658+470616734+479302479+493755597+509654896+515646556+512302370+511645166
1648+516430162+520788918+519049190+514330628+512201482+514392964+520798565
1638+530904942+542053982+548162927+547065808+544973837+547068600+553582581
1628+562145917+570968240+580232386+589762658+597860424+604607384+612916539
1618+624219685+634884851+639899292+641040547+643071738+647239355+652027354
1608+655824352+658309770+660120880+661898560+663824375+665903554+668337662
1598+671393353+675106461+679239447+683463745+687592631+691597979+695444803
1588+699023629+702069143+704228962+705654258+707367484+710699089+716521272
1578+724548363+732085608+735557079+736658049+740407342+748312166+757647093
1568+765253246+771661039+779055097+788654064+802009251+821612717+845662612
1558+860725017+860902057+857872798+857630242+859323679+861072878+861311052
1548+859970635+859463049+862445663+869284360+877580298+881243509+873463425
1538+859421139+849869524+846597709+844984842+840492051+834334164+830919728
1528+831729306+834851998+838305800+841836637+844298944+843369359+840283207
1518+838347215+837383212+835602492+833592645+833335742+836085059+842356025
1508+850408065+852807401+844424815+833613847+828147513+828626475+832504537
1498+835615002+834276493+829617829+826627441+828052526+832256681+834839064
1488+832803067+827760710+823206997+820981451+820703063+821100962+821895487
1478+824008873+828134650+833845024+839032477+839859159+835084376+829166924
1468+826459165+827062232+828171966+827891034+827958104+831105178+837537354
1458+843489506+842876545+835905828+828860974+824655263+823026141+823039216
1448+823170317+821952239+819664569+817807309+817173781+817974454+820846180
1438+825622659+829084588+827733853+823543762+820470120+819048074+817515634
1428+815476457+814577616+815714136+817819606+819791148+821818734+823374779
1418+822130339+817855297+813579053+811260923+810223701+808984491+807298263
1408+806190013+806310725+806944890+807134651+807315861+808523974+810649092
1398+812771807+814369550+814801372+813086168+809918245+807693829+807631494
1388+808518886+808357677+807098112+806678234+808394710+811928870+816649657
1378+822454595+828833198+834052596+836532289+836960648+837510214+839116863
1368+840998859+842551017+844376686+846848887+848786293+848871809+847769849
1358+847060982+846916735+846324763+845145132+844427289+844528637+844536623
1348+843884649+843194652+843348934+844893106+848063785+852230342+855608875
1338+856739882+856044938+855154719+855393035+857054950+859444745+861771497
1328+864138605+867022628+869988845+872050426+873311051+875077212+878006678
1318+881070638+883078648+884506984+886754793+890223507+894122560+897800118
1308+901313782+904737406+907681855+909817150+911582604+913713164+916049528
1298+917558786+917795264+917538715+917620273+917936401+917869472+917094453
1288+915641523+913493012+910648991+907476050+904533580+902163645+900587599
1278+900059094+900307091+900281436+899357152+898436190+898917556+900840826
1268+902855480+903955531+904561355+905647696+907292649+908704447+909490562
1258+910179358+911399980+913007689+914496875+915886128+917469807+918906906
1248+919208687+917837456+915484554+913403750+912175494+911522884+911149297
1238+911079612+911050706+910377600+908932444+907577468+907160700+907647860
1228+908402525+908797102+908452775+907309187+905661548+904216462+904061261
1218+905880640+908913998+911343441+912054146+911454753+910683339+910617187
1208+911436661+912877435+914800423+917077421+919076313+920285133+921415717
1198+923765156+927557066+931812814+935468745+937840094+938663101+938521186
1188+938550445+939277829+940466719+942009689+944056782+946384807+948627951
1178+951044672+954078243+957142415+958876348+958921156+958491242+958869776
1168+960266378+962258345+964382614+966076687+967128609+968556026+971619704
1158+975723360+978879692+980017626+979707788+979424524+980750381+984189553
1148+988255540+990551337+990049476+988150658+987385887+989191555+993001911
1138+997321832+1001074517+1003564175+1004433898+1004457079+1005044315
1130+1006526717+1008113082+1009421058+1010786070+1012315258+1013842821
1121+1015632517+1017860961+1019304633+1018140126+1014833327+1012514561
1113+1013445347+1016535881+1019328238+1021330594+1023787600+1027026268
1104+1029760037+1030913801+1030771462+1030099275+1029317613+1028765431
1095+1029262275+1031452272+1034749741+1037766703+1039163376+1038129476
1087+1035175627+1032486667+1032366944+1035302700+1040072889+1045327341
1078+1050074702+1052706840+1052540684+1052023204+1052773557+1052165190
1070+1048169171+1044267786+1045091853+1050192588+1054913446+1056512178
1061+1056869086+1058421385+1060310873+1059827317+1056458042+1053044878
1053+1053112513+1058281873+1066448618+1072595338+1073741823+1070698288
1044+1065375422+1059683918+1055815538+1055636731+1059704413+1066550319
1035+1072204860+1072833088+1069650535+1067834973+1069587281+1071671549
1027+1070243284+1065422774+1060087682+1056927180+1057127119+1060013403
1018+1063068105+1063450597+1061257490+1059155766+1058306539+1057095810
1010+1054420419+1052136072+1052869746+1056793534+1061398839+1064197487
1001+1064651713+1063179135+1060369533+1057639157+1056625965+1056254357
993+1053131030+1046911939+1041588932+1040140384+1041510342+1042975782
984+1042911609+1041007915+1037782534+1034405626+1031942189+1030711177
975+1030256385+1029831842+1029484688+1030181470+1032183260+1033911045
967+1033609546+1031475806+1028672565+1025746208+1023019366+1020554868
958+1017452885+1012742628+1006800299+1000771818+995555530+991746587+989101587
948+986643167+984245457+982778957+982364167+982099490+981553104+981237895
938+981465750+981407090+979890694+977275518+975381648+974911802+974581115
928+973541844+972826828+973465374+974440968+973716410+971259546+969601800
918+970656620+972924430+972981818+969561727+964683335+961516685+961816911
908+964372579+966161921+965683877+963864569+961586158+959082648+957512185
898+958274765+960759476+962622814+962340116+960199167+957234363+954625265
888+953638151+954634947+956239617+956560762+955281904+953766214+953124770
878+953122085+953059608+952813519+952529336+951761950+949992185+947842614
868+946729204+947645926+950512209+953746072+954818631+952652946+948931499
858+946025214+944838161+945010113+945791280+946501844+946920309+947039113
848+946602909+945563567+944518924+944117986+944539137+945678130+947218344
838+948719828+949929002+950980005+952374205+954334439+956076429+956011903
828+953673135+951273446+951778417+955420426+959200957+960644559+960696787
818+961384594+962504364+962395524+960677917+958677399+958170308+960294436
808+964353708+967346287+966310903+961699661+957039654+955249535+956151485
798+957396632+957539324+957550138+958632026+959960569+960063471+959525071
788+960234645+962569667+965093673+966281502+965577936+963796792+962819926
778+963572965+964761007+964724327+963643710+962781903+962894629+964123945
768+965687481+965864451+963940827+961558312+961137585+963294012+966397974
758+968199826+967598596+965527969+963725198+962742113+962130918+961983067
748+962750594+964062811+965040101+965730310+967144865+969101635+969558406
738+967678388+965485705+964895289+965567264+966442570+966659117+964549689
728+959373333+954028417+952813519+957153511+964518663+970352012+971074095
718+966963937+962078124+960276132+961567005+962604722+961204302+959524223
708+960717495+963809584+965409518+964870906+963181357+959531856+953635607
698+948496072+946671251+946486083+945467166+944899507+946655491+948317124
688+946464457+942799550+941322731+941268736+938004624+930443350+922995155
678+919759808+920852015+924287371+928538455+932325629+932788478+925593510
668+910354348+897010328+894392749+900058670+908544016+915264261+917473199
658+915949099+912717357+907772531+899880781+890674341+885009057+885778422
648+890956404+896052474+898108401+896583877+892929005+890681621+893027879
638+899032756+903774321+903175919+897753190+890584160+884987642+883782215
628+886641006+889987454+890162374+885960833+878566987+870642586+866245630
618+867758705+871907734+872683742+869837954+868475912+871349686+875778870
608+875419560+868157098+860830181+861675733+870670290+878811380+879165743
##END=
