##TITLE=<SNM>
##JCAMP-DX=4.24
##DATA TYPE=INFRARED SPECTRUM
##DATE=3/5/2025
##SAMPLING PROCEDURE=Instrument type and / or accessory
##ORIGIN=Admin
##XUNITS=1/CM
##YUNITS=ABSORBANCE
##RESOLUTION=4
##FIRSTX=4497.3318
##LASTX=599.83466
##DELTAX=-1.4281778
##MAXY=1.7487434
##MINY=0.18765844
##XFACTOR=1
##YFACTOR=1.6286442e-09
##NPOINTS=2730
##FIRSTY=0.20829424
##XYDATA=(X++(Y..Y))
4497+127894257+128967604+129527045+129563579+129427683+129121708+128364986
4487+127209605+126297462+126347821+127416492+128835980+129888503+130289019
4477+130046120+129371853+128807150+128883886+129511052+130037135+129977893
4467+129443255+128861416+128520133+128439819+128512594+128643156+128870016
4457+129367617+130100294+130548094+130161485+129025071+127731800+126810663
4447+126512474+126738712+126911435+126393907+125290797+124406340+124304306
4437+124793352+125354577+125709630+125843541+125787620+125662520+125690425
4427+125841912+125670745+124807670+123504234+122464155+122138526+122250140
4417+122234934+122192353+122848202+124337701+125666390+125704479+124276519
4407+122199818+120654306+120378369+121158202+122175060+122745069+122562666
4397+121724579+120881368+120803149+121499677+122210450+122320234+121872196
4387+121231489+120649082+120163531+119682399+119112921+118438599+117657311
4377+116823743+116180658+115976113+116134883+116401854+116723310+117136059
4367+117479840+117612689+117665710+117735456+117567555+116875447+115901801
4357+115372406+115770480+116835885+117941346+118753019+119291490+119568736
4347+119469437+118947289+118215536+117680221+117610539+117901280+118180228
4337+118026573+117235239+116159202+115498504+115467377+115592953+115551131
4327+115643888+116198124+116973153+117414805+117287967+116838547+116360444
4317+115898562+115485759+115304499+115405335+115604454+115832760+116271054
4307+117041701+118023014+118973182+119647842+119843731+119486849+118692038
4297+117661090+116571082+115647932+115223719+115557527+116595127+117922772
4287+118954288+119306257+119076085+118616272+118118863+117673377+117500581
4277+117737213+118173046+118508418+118702038+118914268+119246896+119611199
4267+119845552+119966681+120094096+120063601+119559577+118801429+118546004
4257+119168879+120272803+121337613+122152571+122527560+122303692+121771625
4247+121431880+121308481+121094860+120830634+120822775+121095565+121401586
4237+121532569+121368611+120948854+120584469+120590864+120994061+121673754
4227+122514275+123243027+123433344+122911250+122079202+121682610+122130859
4217+123066681+123797070+124046923+123995860+123791553+123488524+123274739
4207+123358557+123796210+124591103+125653224+126598497+126953778+126597500
4197+125794500+124931050+124401354+124499902+125134515+125787720+125989987
4187+125757994+125405833+125029462+124469983+123797400+123435266+123649948
4177+124296382+125219889+126458941+127832279+128789858+128945206+128434494
4167+127645566+126931234+126521038+126349486+126072469+125526660+125050167
4157+125113069+125730079+126463589+126968006+127294750+127597678+127805197
4147+127747271+127385686+126801971+126144850+125606891+125301575+125249231
4137+125567000+126400183+127498416+128178493+128014471+127376409+126955974
4127+126907931+126874526+126728995+126722325+126915579+127106235+127364130
4117+127988734+128885561+129559782+129733310+129504574+129023187+128460561
4107+128127778+128210031+128565770+129053828+129715679+130403039+130699279
4097+130424476+129784785+128965408+128083074+127460272+127380453+127736320
4087+128321727+129134608+130036074+130504479+130126141+129132934+128220315
4077+127939089+128313777+128920530+129299957+129301064+129011978+128542759
4067+128077209+127927534+128181961+128443964+128317482+127999292+127959044
4057+128198055+128263116+127914413+127438076+127272279+127491490+127762002
4047+127839031+127902830+128152143+128326641+128069322+127560056+127298565
4037+127403061+127611558+127891100+128510535+129413474+129972769+129646217
4027+128661537+127839800+127815673+128513801+129367232+129976731+130413616
4017+130796830+130835331+130170515+129039335+128148108+127954579+128435501
4007+129372814+130451229+131268428+131663427+131867176+132067695+132127550
3997+131943885+131711004+131574193+131349620+130836685+130185978+129801876
3987+129964928+130558424+131114325+131187831+130759748+130273584+130301197
3977+131118012+132446920+133602182+134033047+133755682+133163320+132523876
3967+131902749+131506460+131703374+132547262+133596994+134370359+134686105
3957+134539678+134070678+133689815+133904863+134929004+136376206+137342806
3947+137306785+136945584+137214348+137816509+137584726+136278042+134858975
3937+134250739+134855699+136717287+139270179+141215155+141518623+140592884
3927+139783050+139828129+140296241+140574411+140977160+142196696+143923010
3917+144657013+143254123+140440436+138087807+137323601+137968664+139632139
3907+142701442+147558791+153020267+156578314+156897593+154754266+151267529
3897+147346588+144512819+144333837+146687692+148982103+148804339+147693498
3887+148650976+151473035+153461553+154067034+154666615+154293208+151453647
3878+148485198+148660912+151941714+156241030+160280154+162879671+162460353
3868+160215998+159134005+159454382+158737176+155973025+153157563+152628808
3858+155579380+162376782+171342616+175812239+170486449+160936003+153609252
3848+150395314+151079893+154574736+159388030+164459246+169369835+173075408
3838+173546420+170499131+166359765+163064544+160736472+159176513+158750827
3828+159429916+160677514+163128663+168069153+173792650+175556677+173041372
3818+170637104+169169353+166140161+161763111+158937988+159540459+163357326
3808+167952790+170639062+172543478+176417858+180857819+181710966+179415997
3798+177457526+176158362+174330215+172769524+173098830+175528406+179226586
3788+183534831+188101072+192599425+197294984+203283265+210962965+218814582
3778+225333604+231448898+239050973+248702667+259417781+269185947+276279863
3768+280943985+284422432+287509504+291527109+298207233+307473883+317072034
3758+325679083+335281040+348969132+367833969+389044646+406006256+415864837
3748+424339219+436811059+451601510+461614094+465800359+470977984+482045460
3738+499405289+519513387+536395873+546154249+549952506+551369057+552991909
3728+555542110+558305859+560294579+561284217+560701728+556817980+549675571
3718+542532504+538825778+539858163+544447881+548300522+546728797+541038073
3708+536176873+534513104+535766905+538891215+542513766+545474813+547948781
3698+550814052+554229900+558024972+563171268+571314405+581461778+587983855
3688+586750805+581155894+576225488+574206758+575308093+578553285+582978716
3678+588151326+592282219+593098202+592674986+594003373+594668683+589861867
3668+580486925+571242197+564538925+560799664+559849112+561133911+563865088
3658+567018163+569745534+572833246+578264492+586178710+592884471+592819144
3648+585645335+576982401+570916588+568619642+569743595+572110771+573209837
3638+573519490+575680365+580206294+585336304+590897033+598138219+604453116
3628+604116601+598498852+593971936+593937424+598712656+606585006+613827107
3618+617457856+618560984+619440646+620598378+622147486+624831562+628096150
3608+629823782+629440531+628852918+630006990+633113843+636584842+638667545
3598+639555844+640899126+643434103+646562182+650215439+655091791+660292544
3588+662442733+659709470+655104600+652302679+651812050+652312634+653156284
3578+654588719+656210509+656660881+655492535+654429884+655685479+659002109
3568+660951596+658721771+654163673+650897913+649443008+647751315+644771383
3558+641801553+640516241+640805363+641077284+640531100+640471885+642590306
3548+646445875+649287907+648429324+643904603+638684746+636325145+638107234
3538+641881116+643958256+642896776+640491208+638650856+637370961+636288401
3528+636038365+636888384+637472117+636278227+633660759+631068250+629327663
3518+628450270+627954810+627216122+626358930+626403580+627709679+628891785
3508+628348601+626409069+624645060+623517777+622005194+619729183+617830128
3498+617261619+617748002+618739215+619868839+620382598+619824117+619199541
3488+619887943+621438295+621768919+619967653+617723116+617277136+618645817
3478+619703052+618873528+616475280+613227307+609267508+605235795+602542131
3468+601846884+602375501+603065368+603569721+603984446+604363781+604699748
3458+605063822+605368791+605009731+603426331+601109550+599338623+598821534
3448+598990140+598740690+597767118+596730122+596175118+596013136+595987298
3438+595950554+595635777+594796702+593662063+592789683+592411995+592231788
3428+591966381+591661193+591399776+591197537+591104688+590872146+589820621
3418+587786045+585853649+585321628+586387207+588188912+589357367+588590170
3408+585935042+583444532+583230582+584881907+585900787+584867817+582885941
3398+581600556+581175328+580567513+578912162+576261244+573515537+571649347
3388+571012547+571593609+572993142+573860654+572870137+570645142+569023937
3378+568497516+568114191+567525993+567344578+567779579+568370375+568793811
3368+569281914+570377064+572284354+574481424+576169823+576932555+576742943
3358+575727576+574253603+572791561+571409961+569776935+567846845+566379460
3348+566294480+567489103+568990340+570237078+571347416+572298371+572888399
3338+573278933+573614424+573415662+572127167+569947041+567473549+564856190
3328+562049036+559702062+558940281+560066648+562096577+563708779+564174375
3318+563584676+562764082+562442498+562157988+560964353+559177507+557982299
3308+557682234+557726115+558058422+559163344+560863454+562132772+562369742
3298+562154657+562339366+562916256+563241719+563072784+562796727+562731620
3288+562792080+562897298+563313121+564281313+565365191+565605858+564692708
3278+563653553+563883606+565564941+567305602+567423190+565619033+563319233
3268+562219106+562481072+562568285+561230712+559233282+558299162+558731161
3258+558885457+557109224+553808770+550937570+549732956+550060615+551688994
3248+554418085+556851137+557329103+556426165+556130894+556738050+556820358
3238+555717962+554187080+553028690+552407700+552187894+552070598+551406972
3228+549484751+546587493+544316422+543905576+544675556+545186277+545220312
3218+545367179+545624534+545630939+545268109+544241214+542132747+539397690
3208+537444324+537284173+538483443+539696072+540076724+539730913+538814140
3198+537182944+535302517+534191484+533880732+533221315+531670121+529922873
3188+528575675+527570519+526906746+526720537+526813678+526812581+526514090
3178+525865505+524855225+523434685+521607655+519637673+517888486+516474424
3168+515473879+515171143+515476843+515593846+514919387+513686410+512306896
3158+510869704+509482651+508311744+507147827+505560145+503550968+501635846
3148+500259333+499437495+499002861+499004435+499600465+500461463+500656016
3138+499554974+497631838+495897619+494753282+493856308+492953809+492323743
3128+492275507+492471927+492043038+490550986+488582689+487177044+486943075
3118+487755617+488826722+489116722+488327566+487235234+486391328+485197767
3108+483109794+480919897+479747307+479501370+479365812+479187545+479384001
3098+479901493+480200789+480001770+479376316+478448417+477486520+476847670
3088+476515436+476097161+475364878+474374983+473172675+471874444+470837485
3078+470273038+469878771+469242008+468408641+467706112+467209920+466688549
3068+465974089+465216553+464721459+464503117+464155695+463334808+462184652
3058+461091918+460202886+459424856+458797059+458537544+458596942+458387713
3048+457324367+455639811+454236399+453640771+453526074+453387369+453260704
3038+453396774+453443949+452582329+450683896+448787513+447976068+448105734
3028+448044213+447059039+445603585+444618338+444376610+444327972+443945087
3018+443325561+442883241+442738717+442510127+441628379+439956705+438089088
3008+436829285+436416390+436414230+436204342+435452369+434269312+433071762
2998+432238395+431864586+431808958+431821291+431569279+430752638+429407087
2988+427991085+426977182+426428912+426072157+425636498+425054997+424467750
2978+424049402+423777957+423429327+422804677+421915865+421031592+420488006
2968+420219306+419678574+418605676+417485274+416756613+416118349+415118610
2958+413847718+412670406+411860865+411631251+411892888+411984785+411237496
2948+409793753+408432501+407684408+407441802+407347928+407271805+407261668
2938+407150484+406548085+405398259+404229840+403548757+403223257+402764651
2928+401990280+401092099+400229272+399373325+398500396+397688769+397025801
2918+396545346+396223104+395957295+395664623+395424871+395294144+395003997
2908+394204777+392972715+391713424+390697655+390040360+389879330+390167427
2898+390462844+390246844+389429032+388418643+387649542+387047217+386145596
2888+384818197+383580828+382956362+382820877+382640011+382163326+381585924
2878+381136394+380860411+380784397+380923139+381062247+380825789+380018334
2868+378778550+377501766+376662690+376486253+376693432+376708803+376149078
2858+375074533+373872371+372973861+372570481+372519610+372528064+372371243
2848+371919591+371120334+370128755+369356068+369145521+369384907+369571299
2838+369277968+368521677+367690104+367102161+366670089+366122038+365452300
2828+364848145+364301046+363676689+363047538+362611403+362359904+362031476
2818+361349221+360301283+359235631+358553559+358270183+358058831+357702223
2808+357247350+356755148+356186822+355545850+354885261+354187599+353427391
2798+352672783+351973804+351285511+350610795+350034638+349549864+349015867
2788+348306457+347423794+346531578+345874649+345539341+345306177+344855952
2778+344119936+343329206+342684830+342088653+341343487+340492554+339721953
2768+339078748+338537944+338139175+337823739+337356496+336580662+335594646
2758+334629491+333856218+333288112+332803522+332257228+331571058+330764005
2748+329907911+328994140+327933428+326801352+325879785+325303590+324908299
2738+324523620+324150872+323788994+323322813+322653733+321821758+320974923
2728+320249227+319660553+319120444+318591864+318169380+317901118+317607751
2718+317065007+316304214+315515753+314770477+314064544+313442383+312859455
2708+312190742+311537802+311183024+311110670+310930829+310409165+309757763
2698+309252421+308824484+308217475+307388098+306568400+305996927+305707366
2688+305532356+305278734+304907029+304463520+303891900+303124940+302294758
2678+301586172+300972867+300338592+299726605+299256764+298906396+298523913
2668+298017492+297470704+297056016+296851636+296778532+296669928+296351254
2658+295758499+295047589+294454431+294019980+293621065+293222863+292883054
2648+292566355+292166471+291694488+291279745+290976716+290702178+290399259
2638+290119945+289856734+289446291+288804770+288148061+287767865+287647075
2628+287492522+287104623+286525007+285877960+285303467+284993338+285007428
2618+285080422+284898020+284513121+284220889+284108863+283996270+283741440
2608+283387650+283042882+282752936+282487713+282230138+282049620+282008942
2598+281998438+281791588+281305314+280721398+280327515+280266781+280416154
2588+280500201+280357909+280070617+279796080+279553546+279228797+278739687
2578+278162632+277683495+277390128+277168986+276916224+276747454+276800795
2568+276962740+277038698+277072259+277255210+277651289+278200493+278821684
2558+279342213+279540445+279427925+279278259+279242887+279146507+278764573
2548+278095219+277266775+276389016+275582988+274984469+274617998+274364358
2538+274109125+273874424+273783314+273918982+274222249+274519385+274647404
2528+274557795+274330743+274108082+273976733+273881725+273690740+273367784
2518+273033500+272847236+272897357+273182636+273576299+273811769+273658095
2508+273164227+272623716+272261673+272060989+271920619+271840159+271847295
2498+271856170+271737484+271477841+271177045+270929809+270756537+270600832
2488+270382216+270080157+269734638+269366684+268956552+268479794+267927608
2478+267346857+266853190+266493966+266137467+265644149+265105467+264753287
2468+264665819+264704210+264727596+264738538+264782730+264788641+264585761
2458+264094748+263460071+262925378+262571460+262268248+261917733+261622957
2448+261538526+261656773+261829167+261911365+261825983+261577649+261271015
2438+261042463+260923721+260822309+260646860+260394775+260132516+259952217
2428+259924384+260035861+260194018+260305202+260314095+260208858+260049402
2418+259932033+259877228+259834153+259798415+259818306+259901346+260015458
2408+260137090+260227560+260229884+260154035+260115790+260243370+260552694
2398+260921361+261180710+261237821+261118879+260921892+260747705+260653502
2388+260612275+260456899+259888665+258652797+256738828+254326747+251543692
2378+248395246+244931383+241325576+237740208+234226609+230819033+227674832
2368+225089607+223344811+222467198+222196741+222357240+223211815+225323832
2358+229100734+234464347+241029372+248660653+257257509+265721150+272123663
2348+275160211+275107803+273630464+272292452+271064397+269035402+265969374
2338+262398719+258807331+255200499+251477286+248035107+245603226+244400698
2328+243881816+243385460+242691622+242010502+241741088+242177918+243242527
2318+244514956+245597901+246424295+247197367+248121276+249254121+250526349
2308+251794771+252919839+253835477+254538794+255069095+255513116+255939278
2298+256338248+256709697+257132254+257652710+258186213+258600920+258860727
2288+259045161+259231571+259393937+259485468+259570905+259733838+259875874
2278+259770473+259341127+258775052+258327901+258099421+258030435+258014204
2268+257945382+257777453+257607292+257579459+257669636+257701147+257575708
2258+257351986+257122025+256912100+256682468+256376639+255985629+255590539
2248+255343669+255365463+255622672+255948794+256197750+256325311+256356309
2238+256350307+256373675+256469085+256662486+256966393+257368620+257872497
2228+258511658+259261472+260003618+260631800+261154177+261696006+262410192
2218+263354596+264472436+265702595+267044066+268508340+270073148+271681654
2208+273274496+274836322+276392054+277985481+279687512+281544626+283499639
2198+285452456+287388603+289357871+291326553+293127160+294635462+295975304
2188+297386841+298900302+300336872+301556582+302526403+303298523+304023304
2178+304780255+305430139+305812200+305929459+305838331+305570472+305187880
2168+304729768+304107168+303180606+301972771+300694395+299456496+298133837
2158+296659150+295194675+293903928+292826309+291916984+291040524+290164613
2148+289497528+289213182+289592481+291585958+296201624+303181813+311294464
2138+319780008+328516393+337240372+345614915+353660519+361617226+369703453
2128+378038911+386625684+395447305+404348563+412764718+420026362+425890742
2118+430424027+433671086+435724290+436914997+437962972+440009699+444290313
2108+451643671+462273878+475795413+491211941+506568742+519129002+526977087
2098+530175215+529685354+526312107+520928767+514173489+505962171+496040533
2088+484341893+470788773+455471462+438639847+420582282+402150249+384673563
2078+368951810+355160952+343438194+333716415+325608339+318920072+313612160
2068+309380989+305880254+302919371+300257693+297789104+295696173+294037474
2058+292683432+291632382+290869832+290309228+290123971+290607884+291871072
2048+294104850+297687930+302921841+310185590+320094968+333119580+349443585
2038+369123343+391705922+415870107+439844607+461787823+479901859+493031323
2028+501111658+504886418+505504078+504002693+500927900+496606809+491276646
2018+484843464+477215184+468683417+459515142+449694440+439245173+428285294
2008+416843021+404990963+393024574+381333875+370193240+359724064+349994563
1998+341123462+333315597+326743527+321236085+316194787+311154038+306289636
1988+302015664+298428631+295442844+293027267+291078329+289388430+287822780
1978+286376988+285129043+284139678+283323385+282589857+282099722+282020159
1968+282058751+281667302+280732176+279676240+278876324+278351092+278029911
1958+277972123+278173264+278415888+278473823+278321631+278109822+278040908
1948+278269296+278903077+279959561+281012807+281133579+279894802+278125888
1938+276925886+276495296+276363709+276210236+276106939+276198378+276419484
1928+276686427+277271570+278460812+279843327+280759551+281384200+282200220
1918+282699119+282022080+280627122+279867537+280334779+281439353+282186459
1908+282118277+281605068+281262092+281270876+281424220+281599194+281922992
1898+282532636+283273466+283778020+284066556+284708096+285855233+286625980
1888+286220368+285104906+284231228+283901263+283887996+283924246+283844774
1878+283668428+283563850+283679755+284343034+286239197+289599361+292974274
1868+293856608+291659794+288509426+286452544+285810236+285894557+286081498
1858+286134619+286093447+286104628+286275008+286719981+287620230+289141011
1848+291529250+294925389+298257006+299083803+296645902+293382960+291628192
1838+291530036+291993803+292443607+293655888+296615379+300541289+303001130
1828+303048378+302184562+301305833+299832263+297830789+296427560+296178000
1818+296598069+297112998+297807385+299140749+301072834+302707507+303147265
1808+302581044+302096673+302757079+304974625+308137253+310746633+311653597
1798+311406270+311839074+314382981+318602477+321680747+320943486+317712421
1788+315372693+315295654+316618552+318259227+320037436+321829736+323110619
1778+324053669+326016258+330269753+336282390+341012315+341592937+338904030
1768+335489867+332958623+332538408+334783824+338231182+340442086+341168660
1758+341834885+342755427+343907340+346565834+351758682+358003496+362090545
1748+362816753+361886146+361259557+361890172+363819640+366037351+367193070
1738+367942372+370852512+376531963+380794974+379377728+374726672+370512226
1728+367662436+366399705+366780211+368272337+370975590+376353257+385227030
1718+394792938+398972360+395860274+390071285+385722819+384201196+385822474
1708+390336948+396163962+401052647+405184821+411104573+419086350+424973787
1698+426084710+423998421+419506785+414105732+411257113+412383663+416283808
1688+422159021+431082017+442355758+449096763+446408296+440229907+436953863
1678+438374037+443453580+449202165+453317796+457017093+461728755+465111444
1668+464447891+462439775+463327599+467345844+471240243+472699247+473427980
1658+476658204+484643897+498122942+512957603+518310933+514949690+514320539
1648+518862753+522955841+521454237+517410410+515939768+518595590+525278624
1638+535384532+546055362+551301131+549358818+546385693+547247716+552180501
1628+559165576+566684319+574844071+583393844+590760450+597047131+605070337
1618+616365780+627373492+632298080+631708198+629983860+628778185+627565776
1608+625974655+624557591+624329075+626081813+629983933+635665508+642582255
1598+650177084+657772060+664521702+669719821+673312618+675953509+678443690
1588+681228702+684282708+687232849+689754577+692188618+695822477+702217121
1578+711520844+720431434+724320453+725235689+729512790+739044662+749958465
1568+757721571+763824604+772485086+784916375+800735295+821501566+847942166
1558+870221752+878634394+879890354+880376884+880949126+881269356+881148437
1548+881174568+882913837+887152437+892938388+898339698+899071066+889904072
1538+875842867+866354326+862306400+858942924+852904669+846658318+844102334
1528+845434491+848367285+851879274+856984947+862835822+865455926+863350240
1518+859265716+854970536+850913314+848542075+849593381+854821437+863754278
1508+872979536+874077613+863921237+852855847+847786699+848060669+851039430
1498+853714869+853322907+850068859+847613518+848658822+852217437+854470099
1488+852646289+848110588+843845199+841462029+840983844+841769011+843647059
1478+847066383+852118111+857792512+861647422+860549051+854634935+848697982
1468+846769356+848892389+851705654+851904087+850885207+852662099+858517732
1458+864682104+864158830+856511812+848522825+843805234+842191422+842208037
1448+841786505+839552361+836113860+832923857+830734290+830086291+831777983
1438+835254985+837072793+834490459+830287871+828187455+827943056+827053219
1428+824752541+822665666+822046653+822848289+824936774+828224492+830951900
1418+829879660+824717919+818889808+815060882+813341888+812321910+811038794
1408+810027453+810057829+810655104+810970210+811431927+812902789+814900877
1398+816086057+815936665+814594920+812086074+809213886+807673855+808140402
1388+809090040+808277278+806049356+805403186+808154236+813256981+818821370
1378+824299534+829859458+834702872+837646499+839069784+840491531+842528340
1368+844808963+847204868+849896630+852514757+854185442+854451214+853652433
1358+852501874+851677987+851459937+851433367+850952913+850066590+849566592
1348+850030211+851270288+853024929+855654693+859421037+863392474+866089725
1338+867314284+868281927+869854970+871801968+873687189+875462690+877280132
1328+879533892+882985349+887976178+893477033+897877395+900997570+904242469
1318+908425221+912823314+916819783+920834625+924969141+928303119+930350688
1308+931913556+933805511+935893118+937783536+939396616+940570817+940933354
1298+940356062+939129965+937769555+936654936+935683047+934447947+932732613
1288+930533749+927902081+925231034+923206962+921931531+920789976+919594621
1278+918868084+918652011+918165408+917038711+915854921+915179547+915078098
1268+915796072+917813338+920754256+923127618+923832270+923423620+923443749
1258+924899166+927470009+929773908+930452210+929258319+926901720+923954067
1248+920630556+917399491+914660738+912034999+908795150+904855773+900762100
1238+896814012+892837745+888903198+885774460+884252069+884131955+884076546
1228+882793577+880519176+878999054+879605770+881778869+883839613+885033723
1218+886012711+887490673+889213840+890528576+891546065+893140115+895690609
1208+898484185+900704349+902351904+903867708+905595413+907744284+910157976
1198+912200494+913408877+914144930+915236274+917031098+918964848+920222565
1188+921000266+922704841+926330429+931149396+935751119+939582972+942653007
1178+944701893+945606662+945888464+946096998+946380849+947050880+948672452
1168+951321540+954507297+957763249+960602206+962506019+963652186+964817896
1158+966285830+967753252+969249000+971224252+973754032+976416368+978667347
1148+979923893+980105125+980177149+981057836+982424175+983667399+985265474
1138+988038483+991680833+994757456+995995337+995454496+994408826+994170355
1128+995174450+997145895+999862397+1003441140+1008157048+1013638799+1018180574
1118+1019791386+1018216001+1015568889+1014672757+1016481782+1019008414
1110+1019565505+1018092301+1016896068+1017544799+1019820591+1022989074
1101+1026086338+1027586112+1026784988+1025016001+1024169057+1025436655
1093+1029749402+1036748275+1043115837+1044999521+1042539642+1039261073
1084+1037639502+1037696155+1038666141+1040153545+1042516293+1046667644
1075+1052402944+1057632610+1060484230+1060953413+1059972594+1058820645
1067+1059234345+1061767712+1064126654+1063616262+1060926770+1058876786
1058+1059034595+1060789162+1062167798+1061737336+1060391272+1060447340
1050+1062566859+1064601033+1064268360+1062277664+1061365210+1062272248
1041+1062819603+1061875456+1061806359+1065149267+1070555773+1073741823
1033+1072498306+1069309914+1067845420+1068734305+1069786709+1069312842
1024+1067248219+1064075490+1060590437+1057926197+1056773296+1056977877
1015+1057977361+1059065337+1059898228+1060786820+1061862646+1062598187
1007+1062566640+1062035900+1061579234+1061319244+1060484157+1057985046
998+1054113594+1050669091+1048665513+1047316375+1045504130+1043540663
990+1043131574+1045035972+1046953326+1045661939+1041218977+1036564042
981+1033992394+1033802598+1035060462+1036107449+1034948033+1030633969
973+1024523908+1019265403+1015820754+1012576367+1008156023+1003386463+999207810
963+994981287+990362803+986423133+983838896+981987637+980127596+977967452
953+975344422+972532693+970289107+968818099+967489016+966076711+965044509
943+964277421+962980179+960926462+958426692+955575950+952986004+952234140
933+954001224+956689765+958243411+958329781+957645917+956405035+954592570
923+952744825+951746000+952275496+954340558+956953561+958333734+957147529
913+953853223+950339623+948327555+948247406+949217318+950040327+950331938
903+950278286+949495754+947505204+945180884+943902672+943638217+943313083
893+942390528+940978589+939209163+937346486+935973999+935721328+936709759
883+938129823+938796267+938335136+937366395+936615410+936277906+936063590
873+935523042+934471004+933280846+932448615+931953155+931676623+932077880
863+933580728+935499473+936416684+935899632+934934404+934343351+933910473
853+933253471+932414432+931611479+931375277+932403965+934566524+936364277
843+936424004+935236701+934260348+933930456+933742783+933563381+933503580
833+933435655+933928992+936098358+939344281+941269394+940758490+939081656
823+937610209+936775781+936837924+937961620+940071331+942982899+945961074
813+947440207+946620125+945142969+945487792+947574228+948809181+947792643
803+946011286+945452000+946176854+946638936+945869433+944962103+945788552
793+948471896+951202963+952606998+952696077+951466760+948688628+945207015
783+942961452+943472796+946545320+950299220+952752657+953667965+954112628
773+954113872+952223893+947637542+941646863+937013007+936405705+940568914
763+947017869+951344963+951193302+948525841+946817094+947563321+950285605
753+953674919+956208212+957164730+957113127+957030709+957556106+958899974
743+960525863+961185500+960148029+958034950+956085537+955355047+956076095
733+957001285+956883806+956511607+957049667+957240560+955152149+951641477
723+949062949+948288615+949078759+951203769+953827019+955219928+954518350
713+953608311+955052969+958218744+959597599+957092193+952315973+948180578
703+945657606+943302836+939577116+935196590+932106572+930687752+929630884
693+928577968+928350842+928139235+925719321+920726808+915398987+911992472
683+911082361+912131763+914182699+915892983+915881564+913607310+909872074
673+905710476+900701055+894149187+889034218+889781690+892404940+890624462
663+885490389+881942314+882025830+882965952+881481476+877687172+874488313
653+874495193+877329613+880274484+881998528+883371894+883752657+879803691
643+870382782+860010333+854758782+856072127+860118809+862607526+862728298
633+861941740+861436546+861561417+861917732+861776904+860834074+858348065
623+853421282+847377683+842480763+839904577+839604696+839797858+839154837
613+839421195+841445780+842137623+839985385+838915927+842301727+847917133
603+851545210+852092565+851272411
##END=
