##TITLE=<SNM>
##JCAMP-DX=4.24
##DATA TYPE=INFRARED SPECTRUM
##DATE=2/5/2025
##SAMPLING PROCEDURE=Instrument type and / or accessory
##ORIGIN=Admin
##XUNITS=1/CM
##YUNITS=ABSORBANCE
##RESOLUTION=4
##FIRSTX=4497.3318
##LASTX=599.83466
##DELTAX=-1.4281778
##MAXY=1.7749544
##MINY=0.21079114
##XFACTOR=1
##YFACTOR=1.6530551e-09
##NPOINTS=2730
##FIRSTY=0.23013617
##XYDATA=(X++(Y..Y))
4497+139218690+139659670+140053884+140368123+140666065+140825780+140485490
4487+139492545+138376392+137969784+138449219+139078274+138932296+137796871
4477+136446103+135963684+136722112+138207428+139693997+140673366+140803722
4467+140015961+138743266+137780285+137812087+138858586+140116949+140741001
4457+140716626+140440563+139780886+138390473+136739897+135987887+136696313
4447+138191842+139375161+139699748+139200364+138161852+137089977+136544647
4437+136660671+137018512+137081964+136661437+136047616+135706713+135713464
4427+135720153+135611395+135697239+136006826+135972617+135240582+134317850
4417+134006721+134561309+135684952+136946289+137840401+137842276+136901776
4407+135713491+135189940+135679102+136675661+137273094+137011859+136219717
4397+135442052+134851407+134378038+134059112+133974143+133961424+133651656
4387+132973374+132459197+132618219+133167650+133428993+133233951+132820960
4377+132254094+131547219+130862203+130191087+129444278+128992237+129414008
4367+130600860+131673816+131891917+131263971+130229308+129181979+128437478
4357+128231204+128554466+129269508+130336993+131575172+132412918+132341695
4347+131467731+130349595+129551972+129390562+129647407+129624267+129001909
4337+128346668+128250215+128524863+128771323+129068093+129528697+129837537
4327+129716177+129249253+128550509+127792017+127516098+128168374+129435543
4317+130645427+131517246+131947725+131563309+130213830+128595111+127720128
4307+127864898+128494241+129090691+129542949+129832813+129926724+129948557
4297+130005978+130014226+130013298+130324337+131069244+131835298+132079154
4287+131675474+130961306+130358726+130065779+130108074+130481618+131035719
4277+131367203+131122194+130423341+129858333+129958419+130612443+131097531
4267+130929314+130505209+130513033+130898467+130953112+130428867+129960212
4257+130171238+130944963+131828646+132611142+133244687+133732947+134308241
4247+135150854+135840458+135755047+135000811+134297640+134013472+133929225
4237+133802465+133576864+133210730+132789545+132612206+132792970+133023854
4227+133023151+132925039+132931818+132935450+132831551+132859334+133272252
4217+133937590+134548923+134959164+135119583+134960345+134477611+133819899
4207+133343727+133552778+134590524+135803301+136324995+136039945+135505387
4197+135205580+135310741+135769587+136273064+136511655+136607982+136923844
4187+137501499+138015477+138159968+137904971+137488230+137202152+137135103
4177+137222271+137519834+138167783+139062319+139830960+140201314+140220063
4167+140129280+140197897+140523990+140809509+140599548+139955935+139519759
4157+139666684+140022235+140091032+139930298+139866720+139935554+139954763
4147+139884956+139807090+139695511+139439261+139000940+138452662+137933321
4137+137592219+137510243+137682569+138059359+138538380+138975421+139264050
4127+139316369+139013777+138350458+137569106+137016375+136883973+137138033
4117+137602576+138104367+138627387+139245165+139823388+140006866+139647014
4107+139056522+138733972+138987734+139810318+140855843+141558320+141560384
4097+141065038+140606850+140464459+140420785+140179769+139964580+140427681
4087+141764775+143238651+143958426+143834975+143408481+143085777+142891348
4077+142723844+142540853+142341060+142158285+142055243+142004402+141867592
4067+141663039+141650212+141881023+141984562+141732620+141450824+141512806
4057+141764585+141749036+141242278+140381906+139508068+138994829+139036213
4047+139489958+140032430+140460151+140708387+140756839+140763239+141008996
4037+141438610+141589104+141223438+140715427+140610726+141029973+141637078
4027+142116270+142508284+142921131+143164085+143070823+142892231+142911251
4017+142990496+142829140+142363514+141784840+141417264+141507380+141934911
4007+142313197+142498756+142758089+143311730+143922621+144118854+143775337
3997+143270607+142970935+142789612+142496277+142228696+142327845+142795408
3987+143266803+143496443+143572379+143668850+143891423+144361051+145136174
3977+145999177+146557731+146609329+146281893+145847971+145527792+145444319
3967+145648286+146112622+146711110+147253348+147599444+147743366+147726528
3957+147573104+147446597+147658118+148356457+149407193+150556031+151471949
3947+151957622+152357317+153059316+153477237+152610962+150804015+149593672
3937+149913716+151624994+154263682+157095476+158718485+158078162+156108084
3927+155003595+155722379+156992749+157243346+156918705+157550608+159227974
3917+160225859+159112916+156473380+154046528+152967604+153385995+155331933
3907+159240198+165104533+171392631+175724515+176975359+175400414+171327638
3897+165948309+161973140+161626017+164368244+166821706+166537719+165669046
3887+167180115+169997540+171115405+170977883+171660501+171654569+168817476
3878+165858076+166700373+171219088+176699521+181405788+184003677+182923330
3868+179874670+178573850+179286450+178760392+175326641+171350751+170063579
3858+173307344+181713140+193333007+199789187+193766199+182052258+172954380
3848+168926441+169801569+174182905+179949939+185656416+191050258+195268615
3838+196079940+193009502+188617583+184810116+181587769+179151650+178376995
3828+179027613+180084505+182534272+188610894+196532495+199741844+196812137
3818+193160383+190418283+185876456+179905859+176298420+177559667+183286210
3808+189972236+193820087+196122974+200304283+204661623+204520170+201094658
3798+198565710+196707030+193768814+190985932+190639981+192987345+196980849
3788+201867077+206973596+211368923+215315066+220708313+228391575+236271313
3778+242166910+247415964+255089905+266950852+282707768+299602237+313324171
3768+321792940+326110509+328222491+330708748+335794769+342572309+347646467
3758+350364896+354782380+365167737+382682264+404081890+421597931+430989623
3748+437757607+447546541+459340403+467674823+472243062+478725978+490591197
3738+507991531+528148768+544615363+551736708+551672959+551226534+554399141
3728+561143832+568984268+574836758+577557603+577787504+575586605+570934136
3718+565766193+563386125+565768392+571196273+573930098+569435308+560633802
3708+553144168+549570208+549691829+551056236+550656288+548622623+547942150
3698+550099420+554763427+562315765+573755329+587964811+599625406+601860379
3688+594759370+585852180+580220252+578407184+579627579+583418026+590182405
3678+599685405+607169414+606158874+600186998+596036518+591868731+583249855
3668+572582638+565187798+562126933+561166404+560124637+559032932+559382651
3658+561117979+562360620+563603370+568513035+578941156+590977215+595665921
3648+589094413+577755305+568277365+562400500+559228290+557491808+556772898
3638+557691277+560959760+566221200+572223328+578574851+585706364+591064690
3628+589435839+582724465+578245035+580057634+588182381+599376358+607807700
3618+609666668+607558833+605961063+606118129+607319196+609658520+613382297
3608+616911654+617907123+616356156+614956918+616537813+621612296+628397768
3598+634857066+639501674+640991993+639565351+638075754+639079948+641976717
3588+643833305+643120309+641499463+640721131+640302578+638722982+635925515
3578+634069864+635051631+637853136+639807728+640628320+642783102+647286870
3568+651614319+653122522+652260609+650235056+646958316+642355823+637528693
3558+634124527+632832379+632745697+632401638+631835539+632826682+636086474
3548+639363791+639707705+636978387+633396386+630545122+628814518+628282673
3538+628387600+627852798+626001330+623268622+620572548+618973553+618929058
3528+619499845+619421817+618863723+618868266+619622944+620241975+619609315
3518+617271362+614195244+612183610+612144884+613419797+614587980+614539880
3508+613343932+612194427+612101183+612799828+613267996+613028071+612200845
3498+610942447+609797124+609628520+610471971+611302731+611273164+610510769
3488+609672438+609249486+609002782+607844983+605103766+601991339+600462872
3478+600740188+601326299+601054824+599834754+597797122+595201576+593019210
3468+592326658+593002588+594048032+595288113+597267044+599282609+599435348
3458+597200266+594277500+592576102+592561067+593078020+592203018+589050063
3448+584750631+581269338+579684297+579688371+580227860+580581221+580800521
3438+581014269+581135457+581335395+581536342+580707890+578366584+576122308
3428+575878236+577124015+577542423+576157391+574427761+573816734+573742456
3418+572821554+571021864+569352845+568384780+568202402+568626291+569018666
3408+568957189+568876817+569179914+569320502+568462158+566433685+563619668
3398+560619559+558316762+557560353+558255645+559189348+559171283+558191752
3388+557142449+556756889+557225273+558114481+558334322+556994542+554631926
3378+553025611+553379297+554766672+554777201+552320872+549254598+548207423
3368+549627430+551841202+553115214+552972535+552232460+552076079+552775915
3358+553551975+553686577+553064120+552057834+551599835+552467805+553918389
3348+554085551+552391220+550434428+549939398+550792477+551416412+550719641
3338+549290295+548283468+547874146+547591313+547314573+547115826+546873016
3328+546626312+546674016+546935972+546730518+545567671+544030802+543410329
3318+544297193+545885624+546837283+546539847+545535760+544963604+545333227
3308+545899903+545829519+545528729+545908665+546952306+547796695+547626937
3298+546142676+543895804+542173565+541904181+542836009+543980394+544507876
3288+544311472+544176041+545187087+547394476+549442493+550229515+550432806
3278+551306401+552476531+552377951+550632202+548436820+546875107+546151871
3268+546015899+545965166+545534318+544966416+544963856+545579678+546093170
3258+545975695+545370979+544676660+544161005+543901176+543637742+542897523
3248+541599317+540288743+539590495+539602249+539881441+539725709+538655566
3238+536983014+535509389+534549292+533784626+533054863+532670889+532798820
3228+532929925+532333249+530958386+529529292+528713424+528534436+528595481
3218+528515795+528156412+527593486+526947087+526296218+525720599+525300316
3208+525027507+524909491+525058732+525260292+524767101+523193021+521241422
3198+519897099+519294546+518834816+518004706+516719733+515141218+513454171
3188+511830692+510529566+509859262+509830993+509970246+509745898+508976544
3178+507611884+505683650+503881039+503279244+503829694+504111121+503289808
3168+502133560+501354759+500321034+498175843+495297644+493005123+492256682
3158+492887540+493902805+494391200+494082514+493138463+491778960+490158114
3148+488373928+486647254+485382401+484767733+484506606+484212307+483832985
3138+483422797+482794680+481764848+480612133+479956901+480069616+480453193
3128+480294216+479317786+478032453+477114759+476682829+476224577+475274685
3118+474077584+473190936+472599488+471855050+470907537+470081069+469336522
3108+468341702+467276030+466761421+466791745+466417651+464916587+462835650
3098+461392927+461107606+461380054+461330295+460781612+460261810+460212917
3088+460504368+460750278+460789617+460653464+460364393+459973352+459523863
3078+458895673+458022077+457141307+456361821+455346448+453994697+452869999
3068+452368154+452103458+451599233+450941044+450412408+449998579+449415786
3058+448433730+447193432+446159274+445585134+445218504+444678005+443857198
3048+442863460+441848628+441012965+440476541+440098156+439664567+439168780
3038+438625037+437774626+436468704+435219140+434696706+434767126+434723965
3028+434326109+433825959+433143179+431850598+430000391+428330363+427476744
3018+427317947+427313548+427249006+427204728+426996966+426320892+425376408
3008+424706825+424473426+424391540+424229715+423968480+423600696+423049633
2998+422232215+421106327+419728254+418333415+417284257+416780356+416605659
2988+416287057+415506057+414259088+412753553+411355036+410507582+410464999
2978+411034199+411599937+411508857+410615718+409440864+408641799+408360805
2968+408165339+407554096+406448328+405200097+404194028+403557076+403196864
2958+402899428+402420407+401679214+400783011+399780979+398628697+397447065
2948+396509936+395943441+395684117+395653865+395762830+395824848+395597147
2938+394888694+393713876+392436872+391612459+391488277+391695210+391574418
2928+390832901+389754752+388754307+387928344+387109736+386153569+385083822
2918+384097656+383461209+383282546+383358158+383324624+382951215+382228700
2908+381254829+380202174+379363626+378968258+378910530+378866144+378622180
2898+378107247+377323686+376507494+376054759+375991262+375836432+375271775
2888+374577313+374125082+373805651+373262052+372423252+371512770+370678765
2878+369889363+369178062+368738920+368626710+368513779+368010816+367171403
2868+366358889+365672178+364881947+363912403+363043531+362632298+362790698
2858+363218806+363323768+362748944+361762814+360907860+360411099+360126895
2848+359860649+359564222+359315571+359184323+359080766+358773198+358093843
2838+357098482+356030033+355095465+354239105+353303419+352505724+352363045
2828+352856814+353103193+352335894+350896344+349726070+349198299+348965983
2818+348673594+348289729+347849217+347281892+346529701+345642909+344745732
2808+344007496+343586780+343457046+343340833+342947593+342259944+341523150
2798+340998625+340770563+340698665+340473271+339793447+338636839+337389185
2788+336565060+336293225+336182312+335762209+334933181+333916041+332930704
2778+332057217+331303476+330657835+330074464+329489579+328886990+328306072
2768+327778266+327311288+326886714+326405998+325762052+325040005+324461466
2758+324044861+323540059+322787291+321926929+321163525+320505119+319843865
2748+319175940+318621379+318225074+317825055+317236925+316547690+316040761
2738+315794057+315575406+315199329+314734983+314276515+313763024+313088933
2728+312208054+311178259+310208463+309495466+308970040+308419481+307838815
2718+307423111+307260817+307196924+306975713+306471127+305804897+305236454
2708+304917636+304751953+304499336+304028176+303418952+302775582+302073115
2698+301317769+300670866+300238215+299903675+299522334+299133384+298858123
2688+298671130+298370322+297788412+296990681+296194356+295535608+295014004
2678+294616274+294360394+294212433+294051455+293752306+293274764+292686201
2668+292130126+291716207+291397154+291052807+290698707+290421228+290149536
2658+289771837+289394353+289172276+289007909+288686783+288152595+287476125
2648+286765021+286206440+285972050+285997002+285995902+285752245+285302178
2638+284798440+284305592+283832719+283449718+283212516+283059849+282899016
2628+282684421+282368667+281922513+281412970+280948282+280580263+280321300
2618+280159691+280012884+279774996+279456088+279178122+278993329+278821769
2608+278620226+278441437+278237334+277843553+277287766+276823493+276525534
2598+276179636+275702671+275324989+275222100+275284136+275357098+275440066
2588+275541134+275547192+275343505+274958143+274514801+274105442+273775861
2578+273570930+273459296+273251336+272787658+272203782+271808306+271724167
2568+271816726+271885198+271785789+271509175+271239359+271192142+271368822
2558+271598489+271767381+271872777+271920715+271885000+271732586+271435456
2548+270990059+270464578+269999367+269709737+269587035+269520779+269390793
2538+269116505+268690200+268221167+267895228+267831082+267961032+268056133
2528+267915762+267572281+267258655+267155801+267235290+267351791+267408779
2518+267414170+267414314+267406399+267348185+267251461+267192724+267192760
2508+267143506+266927649+266598032+266347217+266257164+266182472+265958322
2498+265626721+265361430+265247669+265219490+265162736+265014505+264798107
2488+264614882+264560436+264583873+264490791+264180825+263812608+263615970
2478+263599275+263543513+263247573+262717188+262134106+261671870+261367042
2468+261174316+261065892+261016782+260954331+260775613+260403790+259856153
2458+259298293+258968946+258963916+259113409+259149863+259000622+258839735
2448+258830973+258905918+258864866+258639923+258357739+258140260+257950562
2438+257706527+257463032+257376567+257528368+257834188+258079341+258051505
2428+257721815+257260372+256831291+256490442+256298401+256345744+256615723
2418+256951398+257197218+257319795+257387222+257455749+257503164+257494402
2408+257452269+257421855+257417275+257424397+257422720+257438477+257567111
2398+257846519+258137267+258278215+258372018+258832721+260176702+262822097
2388+267058231+273162058+281520204+292601484+306788539+324216746+344677656
2378+367591975+392161070+417636284+443397540+468828475+493204231+515423078
2368+533796309+546971705+555259827+559795903+560528262+556619907+548171078
2358+535954696+520071544+499760848+475114230+449862932+430516695+421764552
2348+424767401+438117458+457621626+476417592+489077802+495047695+496691365
2338+496356177+495272368+493764164+491673492+488596618+484388158+479479142
2328+474304095+468747383+462360379+454723739+445657176+435425026+424642571
2318+413880631+403481825+393628889+384370501+375598671+367083135+358573260
2308+349943855+341272805+332770790+324695658+317325590+310830883+305086096
2298+299777060+294738490+290028564+285719433+281815170+278300074+275088183
2288+272032456+269136625+266643842+264788804+263547605+262691498+261992600
2278+261322908+260643481+259967948+259304603+258634533+257998374+257535742
2268+257322661+257240955+257123625+256942852+256739165+256479552+256114869
2258+255680307+255232332+254779669+254349469+254001571+253716809+253416055
2248+253122441+252933122+252834037+252726280+252600494+252522033+252502544
2238+252492899+252445213+252374974+252410887+252688924+253142885+253536991
2228+253732638+253785534+253812000+253911211+254165289+254578343+255039263
2218+255414980+255659953+255842006+256116924+256644676+257445869+258355395
2208+259176924+259858370+260485604+261152916+261884644+262677958+263571169
2198+264596403+265688217+266745362+267744995+268699936+269602774+270484680
2188+271365235+272133128+272685507+273128777+273636644+274214047+274742051
2178+275135418+275392687+275567889+275676349+275624715+275317471+274801041
2168+274222376+273702502+273288691+272942866+272536320+271917506+271067420
2158+270176517+269462889+268901027+268262976+267460936+266742297+266490148
2148+266814519+267407030+268001056+268918587+270786011+273746402+277380830
2138+281340386+285619608+290273916+295280972+300674904+306540754+312835811
2128+319354928+325963864+332793434+340039105+347603595+355156618+362534439
2118+369850818+377219336+384572891+391827071+399200133+407399987+417467211
2108+430324258+446421554+465733464+487783671+511437488+534963735+556746649
2098+575927562+592385179+606437524+618381132+627952965+634557646+637987558
2088+638238588+634787403+626614952+612883553+593675092+570193087+544113842
2078+517018612+490327871+464975432+441228299+419359713+400051877+383758177
2068+370229203+358861358+349112231+340659687+333446431+327443186+322432380
2058+318237983+314868323+312226732+310089510+308467402+307633469+307841411
2048+309228895+311884873+316010942+322116266+330892784+342893651+358542611
2038+378229300+401994102+429234643+458836034+489277920+518661020+545196317
2028+567892490+586812601+602802591+616694013+628627020+638304357+645424945
2018+649582780+650483202+648458659+644186883+637994264+629666839+618686826
2008+604723903+588096168+569574381+549781431+529111965+508071867+487271261
1998+467216463+448424535+431409257+416169474+402085363+388699717+376187738
1988+364845277+354722525+345831885+338130054+331327995+325151855+319653338
1978+314994776+311120675+307770090+304661702+301725595+299238365+297479167
1968+296151647+294499431+292174675+289601015+287330057+285513762+284097902
1958+283062139+282308975+281634433+280920896+280205989+279608502+279283464
1948+279398450+280118298+281416395+282604788+282465625+280618538+278226481
1938+276621013+276045071+276006453+276061928+276042385+275970901+275938522
1928+276108820+276881816+278505528+280332640+281406570+281919737+282647624
1918+283134560+282262569+280442705+279336053+279800687+281255904+282510931
1908+282849329+282501376+282124812+282005571+282017848+282140515+282642162
1898+283735634+285126958+286142168+286701687+287654572+289325790+290487609
1888+289956828+288399209+287161237+286560865+286229301+286016959+285983769
1878+286109536+286309312+286625678+287596015+290216405+294736742+299178023
1868+300238431+297168570+292745768+289641075+288343320+288055529+288018787
1858+287936612+287845207+287886619+288126994+288649789+289691591+291556293
1848+294593017+298838904+302770462+303368616+299956030+295747751+293570001
1838+293457484+293959744+294389131+295804956+299473368+304392390+307450082
1828+307389650+306092382+304731328+302625620+299903207+298060320+297859373
1818+298595878+299326417+300089334+301622291+303986890+305961422+306327800
1808+305428640+304730247+305481319+308091541+311820475+314829417+315606379
1798+314803348+314823432+317575070+322551405+326160773+324905656+320407332
1788+317052420+316753757+318483496+320648879+322680490+324302201+325049740
1778+325495228+327575371+332867568+340494653+346300449+346521841+342580313
1768+337984130+334686621+334015776+336537693+340322696+342292468+342399558
1758+342696706+343440459+344312108+346988097+353115056+360884423+365704485
1748+365651049+363276606+361580652+361787513+363716396+366100538+367433359
1738+368529428+372496772+380121405+385965458+384203881+378036719+372501784
1728+368932584+367608345+368516231+370779653+374260117+380703081+391314950
1718+402978357+408372235+404879837+397884764+392479311+390573108+392649754
1708+398327871+405592617+411695597+416920835+424461419+434664038+442179634
1698+443492839+440753605+435060668+428160173+424319534+425418307+430000824
1688+436934167+447515568+461111464+469215190+465457987+457299274+452747152
1678+453926333+459529235+465971118+470569032+474987345+481064364+485677782
1668+485065854+482729272+484518830+491080026+497919548+501157418+502753781
1658+507346142+518040619+535579557+554283072+559916659+554183951+552227700
1648+556633104+559455631+554082630+545483405+540615062+541114383+546629305
1638+556476904+566954460+570045325+563912309+557315380+556396569+560804569
1628+567297112+573619285+579838982+585372979+588353040+590056637+594805018
1618+604088682+613073142+615628016+613887748+613304053+615149175+617714145
1608+619475975+620502886+621686213+623416601+625237277+626724927+628337552
1598+630929781+634673174+638775553+642165224+644423274+646079673+648025539
1588+650671998+653615136+656102006+657829653+659319756+661824798+666876926
1578+674858561+682536739+684731545+683224424+684828323+691667448+699747232
1568+704620155+707676729+712590324+721020873+734716864+757368614+788761582
1558+812712331+817783785+817193816+819392876+823264922+826739904+829301340
1548+831566097+835294995+842001141+851505836+862054605+868197248+861552760
1538+846481040+835943737+832955383+832070610+827424920+820474090+816699399
1528+817763737+821337805+825377300+830291473+835437421+837257952+834744256
1518+830940143+827100910+822704376+819011967+818686947+823636312+834081812
1508+846351378+849601652+838015011+823700566+816183780+815700036+819477106
1498+823501674+823689460+820060441+817326867+819002088+824070441+828075321
1488+827544342+823525327+818992641+815873111+814791609+815519966+817879553
1478+822305222+829046199+836911947+842398492+840932548+832936922+825212302
1468+822814206+825294297+828416279+828830649+828791274+832920336+842393300
1458+852165179+852720172+843479561+833838282+828618632+827875492+830426543
1448+833681865+834356569+831695254+828129696+826463634+828114263+832943629
1438+838814761+841434105+838627984+834290440+832561927+832960143+832381063
1428+829703812+826888316+825490160+825359777+826572743+829609053+832538922
1418+831128506+825056030+818716370+815035500+813617801+812690985+811536287
1408+811216099+812590025+814348105+814439979+813198166+812770888+814234164
1398+816970405+819595446+820253491+817702728+813637488+811421841+812100728
1388+813360064+812404618+809858254+809018625+811678281+816717788+821985754
1378+826675146+831479560+836530750+840392194+842098280+842723152+843574103
1368+844821685+846561231+849236103+852271332+853802395+852705100+850061959
1358+847914821+847313025+847490211+846862309+845201656+843986815+844382074
1348+845954892+847444706+848189000+848800748+850538996+853793237+857223076
1338+858908392+858462292+857312498+857104664+858406619+860545608+862350779
1328+863263605+863862876+865228437+867909150+871655644+875846652+879809418
1318+883035677+885516633+887712304+890031796+892567126+895263344+898025763
1308+900680371+902896451+904248670+904757366+905270100+906606310+908368429
1298+909333754+908852750+907239692+905308321+904003769+903743508+903751945
1288+902622632+899700191+895710815+892205256+890344989+889894706+889642522
1278+888942434+888142900+887606801+887298944+887186950+887285242+887668603
1268+888682028+890381119+892121963+893616826+895614975+898569363+901451131
1258+902776957+902386385+901497862+901146159+901033877+900281722+898959214
1248+897869131+897113082+896042614+894432874+892728663+891274762+890068142
1238+889102600+888408282+887942350+887958503+889223536+892158453+895732954
1228+897873313+897270364+894535709+891679901+890605467+891733483+893842039
1218+895457982+896379822+897488294+899342647+901562188+903605337+905675456
1208+908209777+910808712+912542201+913194333+913606323+914852030+917207218
1198+919742909+921261713+921778846+922357133+923719593+925941513+928874195
1188+932043268+934836840+937348084+940249396+943792094+947563756+950930928
1178+953386860+954891097+955847840+956502712+956805161+957002322+957831855
1168+959877240+962966914+966342740+969321142+971736041+973743060+975368089
1158+976331178+976354327+975927914+976418437+978694732+981895463+984286060
1148+985151939+985331576+986086615+987822917+989709938+990724156+991269198
1138+993127806+997180137+1001567874+1003398789+1002314475+1000853507+1001426890
1128+1004451157+1008831537+1012876441+1015484030+1017085694+1018376904
1120+1018667093+1017240091+1015495641+1015605038+1017550833+1019295716
1111+1019873569+1020518850+1022662743+1026324430+1030250561+1032372603
1103+1030848535+1026592985+1023655111+1024950216+1028639234+1031013461
1094+1031878403+1033785039+1037363866+1040349696+1041257618+1041570379
1085+1042789475+1044129723+1044600992+1045004184+1046465369+1048544863
1077+1049883020+1049649513+1048092561+1046731255+1047603336+1051493193
1068+1057002527+1061945689+1064974932+1065525238+1064079991+1062483736
1060+1062240061+1063215915+1064965557+1067513580+1070128308+1070975221
1051+1068860679+1064814621+1061420191+1060537942+1061237092+1060562172
1043+1057605549+1055133246+1056020832+1060173691+1065146276+1068074198
1034+1067386586+1064191913+1061971290+1063506969+1067930041+1071406827
1025+1071007529+1067572642+1064265109+1063338149+1064906928+1067736702
1017+1070619625+1072847891+1073741823+1072573640+1069377380+1065349062
1008+1062062010+1060642003+1061155314+1062358545+1062604960+1061340720
1000+1059008681+1055958813+1052581834+1049902131+1048929666+1049261826
991+1048748226+1045610379+1040993318+1037601195+1036592457+1037008991
983+1037383481+1037056442+1035892513+1033949964+1031739654+1029667660
974+1027549512+1025469224+1023889123+1022602816+1021271798+1020369068
965+1019619582+1017158890+1012393346+1007721190+1005257397+1004078180
957+1002631346+1001341290+1000984900+1000058949+995866499+988462789+981630731
947+978905234+979854334+981160328+980485913+977908179+974251107+969989788
937+965945100+963669598+964152910+966505790+968845979+970360745+971371069
927+971734526+970785211+968723673+966712038+965740006+966231178+968142646
917+970398533+971057804+969468472+967128067+965127970+962456992+958135025
907+953497195+951106671+952336800+956450069+961184099+964188751+964297283
897+961723083+957806976+954593552+953529358+954135481+954514659+953392557
887+951342053+949866373+949629765+949921036+949936108+949824474+949776013
877+949017297+947077993+945303903+945678394+948545379+951781302+952285960
867+949152367+945165732+943835651+945568059+947972934+948921601+948073317
857+946374011+945202654+945395849+946364492+946664632+945643418+943941227
847+942617349+942327520+942944027+943586640+943245250+941480247+938694967
837+936156248+935210105+935922957+937310585+938991647+941335873+944073701
827+946383313+948301776+950396415+952161129+952312786+950667061+948817179
817+948842635+951623083+956245552+960572928+962480862+961194483+957701616
807+953693130+950539851+949170684+949688034+951022802+952075674+953297438
797+955721207+958770498+960577688+960360046+959485081+959502893+960069353
787+959711448+958278028+957780870+959956349+963398520+964719730+963124629
777+961395106+961857577+964099401+966237092+966540478+964511103+961673540
767+960159712+960175866+960487040+961074918+962937131+965296790+965641137
757+963364049+961124749+961434913+963648036+965281719+965425443+965421837
747+966593770+968571800+970004283+970832734+972780403+976395793+979159078
737+978552017+975140207+970920570+967369434+965913225+967474289+970392259
727+971165471+968589540+965248329+964130050+965592676+967259604+966676630
717+964119665+961958248+961522965+962019329+963082009+965105038+966883526
707+966473483+964235914+961885052+959896278+958777637+960092501+963127369
697+962872877+955771327+945809426+939631951+938636699+938345068+934468768
687+928463430+925393803+927734497+932842873+935490270+933065491+928181102
677+924922319+923986056+923387866+922272903+920895443+918220139+913289813
667+909523127+910496745+913841345+915557526+913767932+909937857+906865346
657+904756933+901255340+895943384+892579097+894368836+898815129+900030692
647+896233429+891608075+890438089+893026208+896310375+896276914+892643712
637+888915752+887276444+888298235+892440061+898585228+901377286+895470890
627+882683542+868907792+857989220+851155431+848510054+849659848+853716507
617+858267006+859847467+857478289+854162391+853958667+859022117+868360876
607+877613386+882415204+883460504+884055016+883584829+880102491
##END=
