##TITLE=<SNM>
##JCAMP-DX=4.24
##DATA TYPE=INFRARED SPECTRUM
##DATE=2/5/2025
##SAMPLING PROCEDURE=Instrument type and / or accessory
##ORIGIN=Admin
##XUNITS=1/CM
##YUNITS=ABSORBANCE
##RESOLUTION=4
##FIRSTX=4497.3318
##LASTX=599.83466
##DELTAX=-1.4281778
##MAXY=1.7605224
##MINY=0.28795546
##XFACTOR=1
##YFACTOR=1.6396142e-09
##NPOINTS=2730
##FIRSTY=0.30319387
##XYDATA=(X++(Y..Y))
4497+184917807+185185346+185393139+185047842+184333817+183550050+182693758
4487+181941309+181758236+182354405+183552813+184992676+186057433+186125158
4477+185290206+184353666+183976814+184302590+185148666+185994579+186164456
4467+185557054+184881654+184885217+185633613+186584131+187040159+186665907
4457+185847023+185331394+185338264+185352624+185006417+184705579+184997566
4447+185717661+186248376+186403494+186472964+186474691+186102983+185567287
4437+185663368+186621811+187568602+187635219+187016821+186416890+186036185
4427+185528390+184669572+183854250+183798031+184691747+185809270+186282802
4417+186137100+186007866+186070193+185940213+185486984+185016742+184692293
4407+184410958+184214180+184340524+184919443+185808888+186528766+186447553
4397+185462700+184267855+183637951+183826659+184611535+185334247+185191762
4387+184155361+183125285+182719642+182601986+182221971+181496823+180661380
4377+180027786+179856382+180111725+180435356+180434520+179980055+179421093
4367+179460154+180453587+181873965+182753868+182583737+181562294+180134191
4357+178669426+177598562+177381862+177982993+178660719+178722792+178307079
4347+178075693+178360172+178894122+179245218+179302856+179277136+179294967
4337+179180874+178720501+177962962+177189846+176723003+176664239+176711043
4327+176456082+175943326+175623911+175742385+176095989+176341935+176266920
4317+175903792+175626292+175915534+176781804+177696532+178296027+178729717
4307+179148429+179422620+179609383+180097020+180972215+181739714+181930040
4297+181541937+180732995+179599313+178456980+177822731+177843562+178133348
4287+178312059+178382674+178555259+178988876+179606893+180039873+180029495
4277+179813595+179793310+180079134+180567062+181006296+180939352+180129483
4267+179035680+178449055+178706924+179395174+179776406+179562797+179193106
4257+179222116+179763701+180659817+181591722+181978734+181563239+181005823
4247+181076348+181599956+182002527+182360166+183061158+183850579+184053737
4237+183549723+182882266+182530152+182511940+182593188+182602767+182595260
4227+182745816+182999686+183001267+182583300+182113367+182117202+182707173
4217+183506863+184038232+184089962+183813317+183572843+183628354+183846834
4207+183879752+183719436+183692098+183780527+183542052+182891427+182374017
4197+182436926+182827028+182935014+182543076+182018631+181815128+182042952
4187+182583591+183285746+183924411+184242499+184183498+184030980+184219197
4177+184845956+185466844+185649318+185601205+185905023+186751699+187666410
4167+187971265+187572310+187147600+187230448+187472631+187390255+187318368
4157+187833851+188672475+188981892+188396575+187359355+186544979+186278295
4147+186446008+186736795+186914687+186981013+187047684+187002789+186603216
4137+186037711+185898480+186329152+186713856+186570499+186226437+186209533
4127+186475036+186629245+186546415+186420998+186433776+186608887+186836329
4117+186915524+186760442+186563810+186554085+186693317+186834984+186981649
4107+187180645+187409850+187748822+188356350+189046146+189202827+188463428
4097+187263620+186377483+186079953+186095767+186195919+186392315+186590002
4087+186537236+186263099+186183741+186543579+187050156+187281288+187226795
4077+187224523+187503204+187970392+188351370+188425166+188185801+187804787
4067+187475212+187351467+187531232+187944473+188293642+188287716+188047497
4057+188082105+188628088+189215186+189227710+188696504+188126928+187815311
4047+187775250+187967920+188164008+188001765+187517908+187121990+186909580
4037+186633171+186410037+186748228+187783339+189092714+190238937+190984225
4027+191179204+190971992+190891816+191273739+191836554+192101330+191922201
4017+191494910+191147686+191129546+191338556+191378490+191090993+190796517
4007+190912519+191593408+192699316+193791683+194346791+194275157+193948327
3997+193623896+193274436+192951896+192819353+192861123+192960111+193191770
3987+193795064+194839572+195963765+196551573+196309063+195568464+194956246
3977+194927709+195556341+196526944+197343647+197619983+197179823+196167578
3967+195248905+195283622+196485410+198130577+199276418+199627623+199576075
3957+199585799+199783595+200125403+200816889+202287507+204365381+205752987
3947+205398292+204263647+204137158+204978544+205098890+203888868+202607375
3937+202580747+204261430+207467805+211214221+213582245+213181528+210955043
3927+209245551+209248586+210129834+210679979+211238614+212883689+215284522
3917+216414895+214562300+210325594+206052407+203668897+203630054+205759203
3907+210396445+217766222+226188831+232279205+234086869+232303271+228026467
3897+222374036+217726888+216664821+219325704+222182874+221720321+219920037
3887+220949586+224725302+227699710+229013029+230431826+230544920+226978669
3878+222767646+222730366+227225378+233175503+238182017+240777374+239757131
3868+237097611+236350051+237320091+236388513+232240635+227882874+226486742
3858+229511627+237887595+250770608+259833772+255014694+241711606+229906073
3848+223636007+223249976+227336345+233777924+240929674+247775624+252650304
3838+253323886+250055711+245902253+242684480+239818567+236768582+234550367
3828+234067238+235047147+238047984+244807796+253795165+258412394+256407407
3818+252949743+250129816+245451496+239148112+234858676+235122270+239990171
3808+246727062+251678084+255305498+260583950+265934580+266397806+262666423
3798+259112496+256263178+252848482+249893159+249300153+251259317+254844980
3788+259544367+265057549+270501679+275527696+281388066+288830384+296050205
3778+301271019+306013902+313088094+323913281+338268475+353821749+366807350
3768+375919264+382882870+388814636+394352302+401086776+409272019+416244277
3758+420036715+423111657+429912257+442965655+460269756+474388802+480585980
3748+484263871+491611617+501906889+509408553+512812452+517191407+526577603
3738+541424142+558104064+569698005+571948428+568212918+565238456+566635859
3728+571730165+577457702+580874288+581309795+579679588+577209375+575254683
3718+574653589+575659545+578678830+583601696+587926958+588034853+583721043
3708+578014627+573903593+573102449+575165437+577221772+576786919+574824883
3698+573978225+575895511+581006503+588931751+598462704+606958255+610480919
3688+607634236+601926040+597248991+595065276+595542952+598964519+606442517
3678+618483925+630625340+633992413+628651962+622898542+618463059+611507523
3668+602032481+594821857+592629453+593633664+593845710+591751023+589980712
3658+590976817+593571210+596180072+600933098+610383348+622103578+628268948
3648+624350111+615009465+605959133+599487672+596373506+596310979+597378444
3638+597579984+596906911+596966457+599594259+606173215+615974270+623306421
3628+621890987+615274332+611265340+613091998+619932659+628554173+634324533
3618+635106555+633880883+634168143+636473059+639446213+642174930+644417101
3608+645556472+645228787+644290957+643975995+645060474+647802569+652092714
3598+657321489+661989849+664282696+664080138+663751290+665892691+670658113
3588+675102684+675635472+671592163+665146076+659161816+655831095+655576116
3578+657158192+659621752+663090395+667753229+673664057+681092107+689141136
3568+693494753+689432322+679457901+671093547+668017587+668305284+668260570
3558+666625273+665269457+666090959+668210403+669184295+669059896+670657240
3548+674943532+678569219+677597217+672923186+669101484+668955927+671412725
3538+673174384+671772473+667547254+663142670+661376649+662754059+664696755
3528+664519789+662538413+660309111+657840608+655112181+654079033+656572475
3518+661160495+663892266+662697930+659712052+657879578+657073926+655630064
3508+654035628+654249819+656191061+657677456+657714391+657131582+656358793
3498+655275696+654149849+652908690+651258852+650171466+650928114+652740958
3488+653305736+651941050+650280161+649419616+648627124+647334999+646499537
3478+647043667+648305111+649074410+649065539+648669003+648048096+646814353
3468+644673607+642558162+642100625+643213604+643609559+642013814+640080061
3458+639889572+641614587+644199929+646351290+646801557+645216282+642536641
3448+639841441+637647692+636236474+635257201+633410041+630367525+628279709
3438+629176461+631759330+632965663+632111371+631050159+630834296+630777149
3428+630138284+628744080+626744746+625022930+624819427+626148050+627583043
3418+628142295+628395456+629026251+629171226+627499649+624722437+623058058
3408+623097901+623024468+621169819+617928236+614941413+613730136+614912985
3398+617552056+619438987+618846799+616025818+612739521+610503966+609638805
3388+609839582+610816746+611991598+612364505+611605603+610613316+610292393
3378+610360518+609803920+608442651+607434477+607652740+608173858+607510346
3368+605917946+604912026+605044750+605677363+606136608+606039001+605324813
3358+604520542+604272289+604465540+604339287+603288472+601388308+599523407
3348+598852770+599682923+601034559+601603408+601033068+600129009+599794200
3338+600037109+600201788+599840368+599122290+598692926+599274536+600946185
3328+602702864+603397857+603161600+602961405+602940466+602466861+601632527
3318+601196947+601106319+600409035+598633017+596431888+594852175+594476687
3308+595207379+596371979+597253026+597859828+598719282+599787220+600203060
3298+599515410+598515306+598227719+598705286+599061908+598439729+597103725
3288+596472095+597490774+599406933+600777471+601121551+600947893+600786669
3278+600892892+601289210+601652266+601715884+601587667+601067385+599376942
3268+596432761+593631192+592508217+593243162+595017799+597116267+599081975
3258+600361049+600420632+599191506+597290470+595759470+595219739+595284920
3248+595224465+594875987+594335347+593374687+592158102+591653343+592218921
3238+592757306+592317073+591618990+591901706+593020101+593584770+592604661
3228+590414874+588118756+586609131+586111570+586204960+586206232+585867388
3218+585575220+585667774+586079797+586769411+587686848+588176484+587320484
3208+585152291+582819129+581353782+580777262+580547912+580427293+580431001
3198+580173441+579018402+576952688+574698921+572924902+571759538+570973444
3188+570290120+569570043+568945646+568800889+569358869+570142818+570222504
3178+569334076+568276754+567640761+566824240+565090681+562906929+561239315
3168+560167161+559094643+557834181+556627993+555482588+554231722+552957155
3158+551918482+551358175+551456982+551964359+552038810+551076659+549391741
3148+547775675+546840680+546756341+547113726+547161784+546482568+545243772
3138+543845132+542630547+541707912+540819558+539664228+538312156+537028392
3128+535910833+534894335+533942871+533202219+532928300+533025471+532925355
3118+532347745+531789220+531785730+532087967+531923798+530811292+528979545
3108+527130711+525824154+525182999+525243453+525997848+526836908+526852285
3098+526053395+525289803+524785771+523939295+522689121+521795204+521616457
3088+521671059+521511870+521249293+521099411+520896525+520228687+519066632
3078+518075254+517861717+518047553+517797118+517158907+516901929+517124081
3068+517083984+516326754+515069309+513636753+512358587+511736408+511883128
3058+512050315+511405052+510096531+508957487+508375260+508057863+507675977
3048+507237779+506898607+506642938+506226698+505448274+504508698+503900406
3038+503717442+503374453+502354138+500878721+499493932+498400402+497449630
3028+496474174+495500681+494780931+494522862+494487164+494121490+493238734
3018+492232851+491548799+491289713+491288331+491170475+490471665+489106470
3008+487573143+486416286+485691520+485139647+484683237+484472027+484441709
2998+484199126+483600577+483072915+482930339+482753374+481938052+480519673
2988+479076101+478119222+477742679+477601157+477273146+476778456+476416236
2978+476075755+475303766+474107540+473061959+472569851+472473879+472330104
2968+471815311+471012495+470337350+470019517+469846368+469565251+469139196
2958+468480119+467454969+466254161+465227484+464405983+463671074+463114875
2948+462721464+462056535+460767608+459109773+457641590+456663553+456168319
2938+456080272+456262581+456401777+456189912+455637385+454973037+454249724
2928+453303714+452110941+450990801+450357389+450163046+449708272+448418800
2918+446694476+445414674+444806745+444455468+444166172+444111824+444229062
2908+444057440+443365355+442613033+442406985+442642478+442685011+442311122
2898+441825121+441293061+440402307+439121487+437890289+437072750+436647712
2888+436467657+436416072+436205444+435430910+434138639+433044164+432774571
2878+433063612+433049580+432297004+431218051+430486159+430304140+430332350
2868+430112525+429402408+428299426+427220801+426546129+426163987+425645305
2858+424930172+424430102+424335294+424246811+423700028+422765614+421881259
2848+421242757+420634356+419841246+418963143+418202714+417549562+416860022
2838+416164664+415687897+415518165+415424629+415083749+414384647+413459031
2828+412510258+411673161+410962099+410313492+409702073+409200113+408895404
2818+408741449+408506973+407979857+407266360+406694021+406312752+405740813
2808+404681273+403345669+402153150+401261415+400624368+400265238+400158651
2798+400027636+399675849+399339040+399218421+398948101+398108133+396932518
2788+395883520+394948307+393966344+393171743+392836534+392755358+392516047
2778+391997183+391296118+390442335+389462190+388509163+387653199+386740779
2768+385743112+385005730+384808153+384893218+384753951+384201024+383414312
2758+382612550+381864808+381121501+380334172+379544079+378835525+378231923
2748+377674634+377098405+376560273+376267269+376327252+376488040+376331978
2738+375739281+374964202+374276915+373704576+373110497+372416521+371721564
2728+371196011+370862146+370559836+370145886+369618588+369041669+368462422
2718+367886266+367238931+366420483+365484252+364655734+364053367+363490625
2708+362718891+361817958+361135288+360815347+360611589+360225376+359625009
2698+358975456+358451503+358157081+358025484+357791117+357244697+356527528
2688+356033020+355964095+356076026+355974129+355608092+355243437+354960939
2678+354499694+353654708+352567649+351562093+350874333+350548539+350448460
2668+350345799+350084022+349719549+349476821+349485727+349570684+349395463
2658+348799967+347905942+346934521+346017302+345168427+344376008+343696209
2648+343253722+343127142+343182980+343074903+342596499+342028377+341839524
2638+342003839+341960615+341355340+340469203+339792786+339503163+339485459
2628+339558928+339504108+339089286+338293958+337429778+336882341+336743691
2618+336773137+336710065+336523502+336302586+336029648+335632784+335199495
2608+334908163+334744684+334506137+334087788+333556855+332979863+332415448
2598+332031308+331972671+332113393+332116882+331752663+331085770+330404409
2588+329988023+329859007+329755183+329440695+329009041+328738249+328674886
2578+328557757+328215749+327834117+327664967+327651335+327540277+327214083
2568+326729827+326196349+325751535+325499646+325407237+325394296+325464130
2558+325593764+325616121+325366050+324877031+324358385+323990676+323739005
2548+323420045+323006314+322720108+322692261+322720399+322574224+322360578
2538+322318045+322377482+322247121+321899806+321657696+321741562+321979019
2528+322024750+321713534+321169950+320678241+320457107+320499167+320594520
2518+320510145+320190459+319817260+319641167+319740047+319967179+320109864
2508+320060388+319860993+319613612+319373828+319159455+318986343+318805052
2498+318495434+318045931+317649540+317510781+317607116+317699162+317568873
2488+317237989+316914485+316728177+316623881+316509369+316374609+316284127
2478+316347090+316607776+316910014+317010602+316833164+316449787+315911801
2468+315340662+315053438+315261449+315687868+315801579+315440232+314928711
2458+314604807+314519196+314566782+314620948+314555513+314356045+314168537
2448+314127858+314228119+314382182+314471356+314382291+314147198+313973467
2438+313998660+314089796+314008621+313729140+313471616+313422431+313528981
2428+313593907+313480741+313216928+312954788+312800979+312689812+312545528
2418+312518045+312820137+313344345+313701330+313672648+313436572+313306175
2408+313359359+313397638+313258407+313065882+313070026+313338965+313743427
2398+314138146+314421734+314532683+314500802+314405412+314269452+314093504
2388+313904433+313622917+313017242+311941198+310486793+308771375+306719257
2378+304219599+301426882+298705544+296237404+293878014+291461476+289020219
2368+286697581+284793764+283808784+283966792+284877194+286116699+287846822
2358+290503306+294277186+299227771+305483405+312732018+319664796+324598314
2348+326594921+325963400+324092137+322431393+321284934+320098413+318491036
2338+316438990+314016691+311374857+308857568+306920724+305762014+305095012
2328+304461854+303671852+302850932+302257490+302112769+302456740+303094278
2318+303700280+304036071+304127989+304197078+304390602+304687660+305074945
2308+305626417+306337552+307001755+307330275+307220526+306909091+306776694
2298+306964893+307286834+307529598+307681662+307811151+307890655+307859936
2288+307780287+307795119+307924717+308006402+307888037+307598269+307270111
2278+306996120+306819627+306743831+306681159+306508374+306214679+305906371
2268+305678584+305560801+305520485+305481660+305432293+305478134+305662225
2258+305823632+305783462+305582503+305423714+305452396+305633906+305804183
2248+305844389+305775646+305652337+305486423+305341666+305321853+305398231
2238+305439237+305441999+305538807+305758996+305954029+306002633+305982748
2228+306051491+306176327+306136339+305872999+305658735+305757070+306072103
2218+306303489+306316467+306218278+306171528+306233765+306335443+306396516
2208+306473730+306695955+307001428+307097544+306812647+306367616+306140483
2198+306236927+306436832+306514009+306461043+306402769+306423417+306514663
2188+306611907+306651568+306620050+306543454+306454499+306409894+306478128
2178+306642407+306797997+306903384+307013351+307130407+307192534+307220708
2168+307292250+307373099+307368991+307322423+307395711+307674319+308095975
2158+308535045+308873781+309025336+308963209+308751635+308532428+308460667
2148+308600735+308859749+309072595+309188560+309295910+309423909+309474148
2138+309416311+309361600+309371306+309402569+309488907+309734653+310087057
2128+310341127+310426629+310507369+310737264+311058623+311316983+311464358
2118+311552586+311611587+311637615+311650630+311690218+311796550+312004415
2108+312294438+312559596+312682105+312663856+312665855+312860779+313206459
2098+313464200+313504225+313455876+313494410+313655525+313917084+314275232
2088+314669224+314958411+315034243+314920604+314752872+314665480+314702269
2078+314833794+315035843+315309107+315610363+315810704+315817393+315767553
2068+315963386+316491811+317027615+317167865+316875951+316463419+316241376
2058+316305757+316563062+316855230+317071711+317182551+317208580+317219340
2048+317332071+317620603+318034044+318442541+318716132+318771498+318638955
2038+318474095+318423637+318495507+318584935+318591224+318522299+318510012
2028+318674436+318962496+319187447+319238705+319244994+319530909+320298536
2018+321265630+321806452+321618289+321044096+320616587+320545081+320703652
2008+320873928+320923986+320860005+320751419+320644469+320579761+320596920
1998+320741241+321224842+322379918+324067744+325376374+325482597+324618853
1988+323624676+322970034+322661616+322596254+322648965+322707675+322761659
1978+322834510+322908415+322962872+322977522+323026126+323444438+324515175
1968+325824205+326432679+325988774+325136918+324601149+324485875+324611474
1958+324929997+325362560+325665452+325687336+325524366+325391569+325532364
1948+326228012+327753123+330098172+332439514+333250328+331854233+329466869
1938+327744289+327112295+327048350+327153192+327422203+327885157+328400531
1928+328914815+329847192+331634044+333743927+335165359+336022014+337070685
1918+337718820+336675057+334474401+333091357+333508288+335034889+336314291
1908+336519903+335890708+335247117+335077167+335315533+335828145+336728096
1898+338163888+339881487+341255588+342201089+343549089+345598372+347031256
1888+346621523+345205943+344359322+344420213+344849503+345335323+345876253
1878+346472949+347115776+347906487+349384812+352563105+357736624+362837001
1868+364260324+361073016+356259026+352822410+351420935+351219104+351294354
1858+351199510+350943913+350752551+350784942+351191221+352250325+354237953
1848+357462087+362073519+366651614+367785423+364222335+359376683+356719180
1838+356500336+356992009+357287848+358607129+362444899+367715735+370948266
1828+370743745+369260767+367875978+365770567+362904327+360808876+360307025
1818+360672516+360987586+361421748+362829949+365277295+367416187+367821013
1808+366711633+365669506+366208473+368884951+372821856+375900106+376488295
1798+375357794+375099471+377794998+383007996+386816357+385106828+379535863
1788+375188571+374408439+376047589+378225052+380270045+381819076+382218776
1778+382099793+383767189+389085392+397178445+403549718+403856572+399264662
1768+393523166+388986149+387364630+389438960+393161928+395059983+394835504
1758+394599610+394699326+394933438+397205273+403297138+411209371+415851594
1748+415009335+411498885+408754391+408224294+409682334+411615651+412260005
1738+412532542+416010201+423798544+430074463+428113518+420970402+414083282
1728+409093090+406636256+406943547+408979379+412306428+418769600+430017207
1718+442937482+449048214+444688344+435852785+428585051+425191912+426261413
1708+431404650+438445979+444381635+449463145+457111275+467627063+474980626
1698+475215175+470811500+463164933+454421637+449374117+449990189+454438832
1688+461252555+471898850+485936792+494074450+489065646+479089370+473004703
1678+473130848+478071890+484018962+488050819+491794472+497011069+500095317
1668+496968645+491691412+490646013+494350695+498017171+497903677+496366969
1658+498278657+506979347+523577366+542378622+547692318+540450431+537189871
1648+541326644+544566809+539103485+529608522+523932315+524438929+530933910
1638+542517345+554933042+558869510+551594869+542858443+539950288+542757564
1628+547669743+552134490+556419437+560095109+560987426+560189118+562200303
1618+568535114+574325904+573928313+570075384+568403916+570204327+573482663
1608+576085600+577658915+579091144+580883958+582711270+584262882+585910393
1598+588305718+591578129+595094649+598025524+600126610+601764015+603253718
1588+604578089+605718369+606843853+608138123+609919413+613174374+619404525
1578+628853793+637675902+639844785+637156565+637033111+641641997+646549268
1568+647286140+645772699+645863508+649259155+657963044+675084871+697799003
1558+708511241+700444617+688875469+681760636+679240365+679902714+682207339
1548+686085461+693575602+706310949+723343348+741767553+755748203+756163498
1538+745720052+738107839+738499432+742998606+745642112+746343867+749767942
1528+757517787+766740141+774847989+782865101+791491049+797893949+800338169
1518+800540509+799094320+795930968+793604604+795568167+803433687+816884385
1508+832118773+837701262+826568638+811553749+803783474+804158926+809976545
1498+816682264+818811377+815527988+812667964+815347969+822769621+828735922
1488+827868834+822167981+817048555+815182054+815965894+817843228+820667335
1478+825526839+832649452+840563321+846321976+846182817+839864474+832759601
1468+829917317+832142984+836517249+839449833+841580619+846870177+857025853
1458+867484640+868351655+858415259+847495954+841007771+838879530+839407519
1448+840104694+839071328+836786842+834812955+833844443+834643405+838699147
1438+845518941+850198425+848726644+844749279+842867219+842387434+840490979
1428+837516371+836742637+839790969+844982882+849989614+854174118+856660725
1418+854920660+848904191+842279248+837944971+836259726+835982862+835944256
1408+836250783+837284803+838176684+838255061+839141271+842594500+847518711
1398+851242552+852753158+852314888+849771570+846060744+843741651+844153528
1388+845624510+845324090+843299018+842640668+845305695+850315772+855753940
1378+861006635+866396963+871202809+873758196+874259720+875001754+876834738
1368+878352033+879018744+880151208+882049772+882876508+881355941+878610138
1358+876394868+875190935+874260156+872975883+871883116+871950006+872973556
1348+873546477+872641364+870759813+869524035+870235751+872597886+874759644
1338+875134442+874096423+873037028+872484611+872151619+872020385+872302337
1328+872777396+873120204+873546332+874484817+875905268+877349785+878467562
1318+879408665+880668291+882372221+883857163+884374754+884165580+884290925
1308+885228101+886158661+886235438+886084211+886968094+888828414+890269805
1298+890309720+889240219+887960817+887160182+886945337+886860853+886262848
1288+884715889+882125022+878784777+875293886+872113593+869236993+866604319
1278+864636249+863836050+863982843+864308637+864433109+864508287+864545803
1268+864319979+863957760+864061947+865074155+866758674+868415636+869515165
1258+870108516+870619782+871388063+872519364+873961118+875506550+876833429
1248+877725455+878362212+879196073+880399716+881852885+883772460+886494271
1238+889439796+891400669+892085266+892374053+893064830+894317185+896099420
1228+898374308+900934712+903450111+905831586+908447973+911598238+914825935
1218+917339080+919103211+920743160+922413210+923676035+924491502+925488806
1208+927171580+929499107+932292605+935368856+938195071+940263694+942088752
1198+944899845+949011279+953373403+956836884+958951893+959719301+959514998
1188+959040521+958897363+959595193+961820060+965723265+969977129+972643538
1178+973541744+974571838+976970108+979625393+980803734+980590416+980536832
1168+981531155+983125372+984694216+986432536+988693320+990880380+992008700
1158+992271094+992992626+994865452+997045241+998345073+998867100+999728663
1148+1001372248+1003132598+1004520768+1005979244+1008013258+1010001541
1140+1010331189+1008192187+1005084091+1003585773+1004764550+1007908126
1131+1012258326+1017431918+1022293166+1025011413+1024754035+1022673416
1123+1020995587+1021523430+1024690927+1028658695+1029670103+1026011408
1114+1021001913+1019456117+1022538838+1027365406+1030562057+1031300819
1105+1031112657+1031560015+1032809317+1034571340+1037309800+1041164874
1097+1045041032+1048087910+1050241525+1050729889+1048529379+1044755008
1088+1042495388+1043741927+1047008885+1048509676+1046859474+1045209055
1080+1046818250+1051086802+1055326125+1057905941+1058276086+1056369234
1071+1053486671+1051625914+1051384604+1052026523+1052982893+1054279963
1063+1055712774+1056498868+1056328519+1055979677+1056611416+1059344932
1054+1064393325+1069194300+1070165648+1067763016+1065999612+1066910032
1045+1068565541+1068335573+1066196135+1064365988+1064682912+1067003241
1037+1069452696+1070080073+1069039728+1068731674+1070816873+1073559332
1028+1073741823+1070903684+1067649449+1066041199+1066137971+1067694018
1020+1070465414+1072872554+1072870881+1070183170+1066000412+1061641923
1011+1058355553+1056969565+1057493046+1059405278+1062046094+1064678986
1003+1066643421+1067571145+1067102557+1064454907+1059497396+1054247972
994+1051472142+1051255624+1050766751+1047816354+1043461719+1041126558
985+1043029847+1047857505+1052370639+1054269202+1052963844+1049198853
977+1045137295+1042988260+1042607136+1041789197+1039057790+1034709989
968+1029338347+1023389931+1018073036+1014841850+1013976143+1014555244
960+1015258599+1014551682+1011295993+1005992767+1000557653+996525613+993738804
950+990734096+986527635+982118762+979559304+979230165+979096532+977321422
940+974540648+972609366+971896342+970734650+967617830+963474841+960862671
930+961008955+962671080+963989816+964477016+964787542+965422118+966080540
920+966133761+965580543+965171356+965321493+965377985+964825059+964319609
910+964583603+964944587+963743198+960258923+955784178+952747043+952765365
900+955112014+957284751+957817393+957702154+958196989+958698004+957744033
890+955107797+952235268+950875090+951304344+952053794+951928668+951557796
880+951797216+951743705+949985681+946847776+943763891+941294297+939063250
870+937174647+936672469+938224372+940863007+942793997+943638547+944705430
860+946543793+947761178+947030631+944975532+943086929+941891865+941151212
850+940875658+941085050+941021142+939892531+938656098+939568918+943156799
840+946620134+946359412+942061560+937308498+936101220+939484725+945053908
830+949210566+950308203+949536214+948724310+948076720+946601885+944134981
820+941874997+941191128+942411929+944424059+945710077+946182083+946900051
810+947915459+948434505+948829006+950008074+951589278+952965815+954618924
800+956446963+957068379+955870334+953488423+950916677+949525163+950206706
790+951867232+952111159+949861500+946686806+945444992+947797385+952508205
780+956381456+957296966+955514876+952329785+949156036+947497401+948087772
770+949636185+949546175+946776234+943474959+942859360+945772750+950088996
760+953490677+955570642+956669588+956697725+955843724+954779313+953734168
750+952511041+951362291+950741166+950577360+950686346+951328991+952546376
740+953853842+955409526+957721203+959622166+958774709+955267168+952354651
730+952523619+954446248+954556397+951306889+946688478+943442968+942226966
720+941959772+942249795+943860881+946547574+948026117+946489628+943604011
710+943239465+946933278+952106215+955038945+954352021+951218043+947564436
700+945128868+944645521+944816961+943700637+941756923+941712209+944023378
690+944193364+938241967+929173313+922912335+920864506+920023955+918369610
680+916646703+914670926+910865074+905983395+902568409+900584343+896524748
670+887909632+879329415+879626564+886956243+892538804+893610340+892739690
660+891875801+889684451+884822621+878912085+874606381+872947310+873649065
650+875768072+877526823+877049074+873616420+868935918+865564046+863999929
640+863384693+863709760+865717528+869410541+873584430+875661486+872686005
630+865006757+857579071+854847954+855769135+855826936+853156602+850062320
620+848569599+847880204+847380280+847940477+848419608+846113456+842229299
610+841835089+847136061+853377991+852984071+844608666+834957203+830448578
600+831918614
##END=
