##TITLE=<SNM>
##JCAMP-DX=4.24
##DATA TYPE=INFRARED SPECTRUM
##DATE=3/5/2025
##SAMPLING PROCEDURE=Instrument type and / or accessory
##ORIGIN=Admin
##XUNITS=1/CM
##YUNITS=ABSORBANCE
##RESOLUTION=4
##FIRSTX=4497.3318
##LASTX=599.83466
##DELTAX=-1.4281778
##MAXY=1.7330284
##MINY=0.18141146
##XFACTOR=1
##YFACTOR=1.6140085e-09
##NPOINTS=2730
##FIRSTY=0.20304029
##XYDATA=(X++(Y..Y))
4497+125798773+126353224+127184343+127642676+127394998+126635939+125917677
4487+125734552+126038704+126321982+126343272+126423852+126784673+127037003
4477+126702190+125971096+125575395+126023305+127211311+128600758+129514304
4467+129479654+128637983+127752495+127578141+128171350+128817110+128686315
4457+127706601+126645310+126130668+125904438+125418103+124769850+124522616
4447+124921973+125788664+126837731+127613372+127466032+126230461+124709858
4437+123877337+123812304+123895146+123726885+123385130+123093211+123025177
4427+123116098+122946933+122244579+121399057+120970748+120904404+120730318
4417+120339234+120122919+120422169+121097186+121648711+121596815+120749429
4407+119406513+118345425+118215959+118902683+119812341+120564495+120956060
4397+120704421+119835598+118873666+118265666+118076439+118256185+118663970
4387+118922089+118669648+117807195+116413602+114787390+113470749+112774719
4377+112496325+112398083+112534990+112844497+112969208+112808916+112771958
4367+113181914+113776073+114086651+114090206+114133515+114326730+114362469
4357+114023382+113583643+113541497+114133681+115168392+116168584+116651392
4347+116400224+115577997+114650150+114131594+114185973+114462410+114495886
4337+114174811+113717992+113375526+113270914+113379754+113535062+113547876
4327+113391664+113181083+112976188+112760132+112648392+112863968+113331561
4317+113612651+113470140+113159082+113046539+113291585+113896685+114720003
4307+115434461+115752877+115616200+115132367+114653391+114746527+115534281
4297+116242987+116031085+115100386+114429182+114646513+115661457+117056851
4287+118285682+118734026+118130292+116886541+115777139+115295707+115388705
4277+115673090+115795761+115676118+115537171+115672453+116086184+116462654
4267+116613760+116759586+117128817+117489397+117425712+116986684+116690685
4257+116878573+117374999+117787170+117872976+117665496+117459789+117546537
4247+117843746+118058501+118254237+118786013+119594835+120103420+119973890
4237+119511319+119175796+119064628+118994241+118829682+118616313+118547679
4227+118917704+119844184+120899853+121391099+121194098+120947861+121180157
4217+121564862+121424493+120743751+120148991+119901508+119555182+118848498
4207+118399508+119086001+120903952+122735151+123370949+122690836+121594221
4197+120878240+120624026+120641383+120923478+121507317+122216761+122675427
4187+122576622+122027359+121515626+121383824+121492729+121527397+121460407
4177+121557855+121957580+122389186+122497712+122402360+122618814+123368687
4167+124298288+124950039+125218129+125250572+125135204+124850745+124421235
4157+123948860+123509038+123183596+123218051+123900233+125090861+126049156
4147+126063401+125231562+124285436+123674621+123208062+122600044+121975067
4137+121718886+122004093+122567592+123014135+123326430+123870043+124795941
4127+125669307+125871118+125305218+124578925+124399465+124850163+125425203
4117+125690006+125660684+125606370+125723114+125956472+126061324+125894273
4107+125568416+125300159+125314340+125818890+126702707+127376543+127363894
4097+126962055+126901601+127371105+127804529+127755791+127512573+127526329
4087+127702012+127702428+127558643+127476899+127349815+126922004+126295180
4077+125896544+125892888+125942392+125740877+125534579+125679435+125926328
4067+125700956+124981300+124373291+124334968+124696748+124968190+124885108
4057+124567356+124260416+124122198+124281918+124868859+125782976+126560916
4047+126757936+126475018+126247975+126373563+126629005+126676174+126426723
4037+126021311+125713318+125752140+126229953+126998772+127694562+127938048
4027+127741952+127589230+127804141+128080642+127992344+127658214+127502944
4017+127603577+127627673+127332412+126846031+126420381+126128776+125930658
4007+125834659+125876297+126140408+126764712+127602857+128069803+127787403
3997+127171307+126935992+127280951+127931724+128661987+129380775+129959490
3987+130284719+130331130+130093424+129658098+129321688+129377895+129820671
3977+130393560+130824454+130948833+130777507+130501800+130292733+130114548
3967+129924213+129968611+130534649+131403011+131971108+132041856+132031931
3957+132244267+132440086+132347245+132246944+132743582+133909274+134918282
3947+135024067+134659886+134707266+135063914+134909834+134136381+133480558
3937+133551601+134528435+136259047+138111924+139130820+138879930+137965175
3927+137341517+137301975+137345949+137113533+137126726+138099257+139813786
3917+140997019+140396129+138123132+135633238+134314077+134489936+135879660
3907+138541359+142680075+147632054+151801947+153842620+153145898+149760601
3897+145143831+141904951+141779529+144063715+145893474+145425780+144665169
3887+146093983+148644986+149602856+149340250+149850321+150104009+148148403
3878+145714440+145792813+148595897+152426223+155949305+157858213+157070597
3868+155183016+154752943+155479043+155026028+152853286+150877840+150829887
3858+153501040+159427941+167561717+171977090+167389126+158689091+151831694
3848+148540180+148716869+151495497+155463238+159533486+163415874+166517016
3838+167376773+165588366+162709429+160097308+157957978+156452821+156018178
3828+156392663+157019505+158830808+163354644+168960867+170919963+168711962
3818+166301920+164403241+160980885+156657171+154197310+155157516+159257844
3808+164308831+167732793+170171511+173773382+177205727+177287877+175166070
3798+173841886+172909617+170944503+168958966+168809105+170726083+173860148
3788+177724938+182174232+186707485+191087886+196160181+202544935+209108668
3778+214500903+219514019+225950234+234555637+244575166+253970419+260949093
3768+266083854+270896756+275670495+280919018+288416128+298921890+310612795
3758+321497529+332663850+346872245+365277612+385763369+403409760+415989487
3748+427256958+440721480+455184098+465573828+470956535+476514435+486306238
3738+500940726+517587101+531152072+538571666+541348992+542683442+544469060
3728+547226776+550460293+552579127+551805822+547439343+540425568+533207165
3718+528410494+527386363+529936313+534660640+539236140+541527546+541273951
3708+539804486+539019216+540483584+544062355+547957908+550839892+553106371
3698+555912871+560148730+565786472+571762046+577117425+581483535+584011623
3688+584139658+583219779+582743277+582796086+582767982+582710446+584193575
3678+588834514+594610743+596195945+593176103+589855986+587054398+582218360
3668+575645634+570662801+568812555+568603460+567867786+566976232+568060632
3658+571089300+573543270+575077768+578787233+586266210+594779806+599321110
3648+598022001+593600903+589256287+586541151+585492609+585554356+586604817
3638+588584316+590575781+591878877+594031022+600037728+610491124+619778395
3628+620453837+615204630+611723981+613203970+618609057+624448656+627179746
3618+627181592+628178026+631833832+636356449+639612013+641334408+641845366
3608+641489956+641799499+644341214+648686052+652424655+653707736+654067356
3598+656302038+659998467+661810897+660503663+659252637+662000715+669198510
3588+676188909+677166287+672459687+666768175+662584867+659863896+658764133
3578+659422218+660336077+659890042+659151598+661027916+666808650+673909616
3568+676963544+673593498+667792749+664130886+662798984+661810601+660737428
3558+660644956+661866734+663491709+664418272+664241896+663527826+663432917
3548+664537259+665732891+664925980+661406813+656892025+653764976+653023578
3538+654262418+656590827+658953508+660240651+660161252+659740255+659935613
3528+660236441+659465795+657537554+655352948+653128754+649975855+645467271
3518+640781425+637839837+637842939+640534588+643940750+645261425+643473443
3508+640631121+639303429+639743261+640356956+640009744+639231712+639019219
3498+639448636+640070087+640704907+640957431+639759140+636837199+633848562
3488+632668145+633279404+634501994+635813880+636922580+636727370+634790192
3478+632810620+632940538+634938132+635877399+633721820+630182711+628056676
3468+627361735+626273937+624531231+623657551+624458184+626133162+627742479
3458+629082431+630018079+630026425+628740316+626657045+624965006+624476280
3448+624871648+625312144+625364436+624795351+623340178+621281871+619609996
3438+618801053+618181855+617356664+617166588+618400663+620390392+621543776
3428+620854375+618598532+616006556+614296273+613765522+613751119+613318194
3418+612112997+610922941+611033065+612382140+612925226+610792285+606551145
3408+602315360+599515175+598620039+599643800+601809535+603656605+604321079
3398+604189166+603804101+602855824+601093988+599388026+598701616+598896863
3388+599472816+600616932+602355317+603583669+603241886+601579981+599653550
3378+598661031+599619205+602312664+604922735+605597106+603987272+601175159
3368+598886190+598456884+599729366+601235576+601766512+601212384+600105198
3358+599139896+598729276+598517227+597905673+597015560+596199527+595243716
3348+594297063+594574293+596599733+598759189+599206517+598372426+598128617
3338+599357448+601363389+602961036+603371619+602441179+600774621+599544054
3328+599573671+600413080+600653603+599376246+596925858+594299131+592282001
3318+591006675+590093000+589371950+589116582+589412388+590023056+591012953
3308+592472594+593427593+592350468+589298276+586488526+586146780+588316762
3298+591069935+592763452+593617300+594599664+595578741+595576710+594452980
3288+593359384+593360123+594172204+594702106+594609672+594611186+595036910
3278+595032220+593825066+592017216+590761721+590268268+590004960+589776071
3268+589687550+589524137+588988732+588283414+587899457+588059399+588550932
3258+588887028+588699537+588265282+588303282+588925878+589349571+588948959
3248+587923462+586637020+585167592+583804374+583011902+582690947+582287861
3238+581813538+581981272+583014155+583846474+582955215+580128257+577008372
3228+575371100+575305808+575580380+575250155+574322004+573219620+572302400
3218+571944774+572517699+573765845+574491105+573692355+571977493+571002479
3208+571594681+573003619+573719646+572858227+570967174+569372740+568702136
3198+568449094+567972924+567311553+566915188+567050054+567526889+567838058
3188+567633615+567019366+566275420+565318057+563712655+561406957+559037445
3178+557258510+556114543+555235841+554347500+553461966+552743538+552241000
3168+551778568+551201285+550485368+549415998+547653461+545413497+543491018
3158+542332869+541574040+540657301+539601263+538916293+538806058+538787187
3148+538273534+537234151+536039553+534961505+534032985+533065725+531702876
3138+529890557+528285340+527556350+527280597+526353221+524656197+523322891
3128+523092008+523533131+523988067+524206801+524022153+523218048+521853390
3118+520325502+519043935+518093738+517242548+516348520+515612809+515269955
3108+515261941+515365122+515391231+515174750+514594697+513668762+512596697
3098+511660126+510986604+510510693+510165955+509893895+509604441+509407496
3088+509564889+509910883+509775942+508741323+507026831+505109927+503387827
3078+502154897+501557487+501527316+501827479+502128455+502069035+501453419
3068+500529885+499843438+499551214+499100932+497974801+496465453+495182113
3058+494138557+493003194+492000003+491759480+492300425+492865041+492840741
3048+492230111+491165136+489748185+488348296+487251672+486257269+485315491
3038+485043911+485840815+486925768+486905346+485190522+482563795+480329667
3028+479000534+478022935+476868258+475865952+475515564+475563610+475366258
3018+474700824+473711555+472563599+471562032+471063778+470982275+470791201
3008+470110921+468998344+467767888+466812335+466402897+466420660+466417890
2998+466048299+465356423+464602654+463874218+463041419+462113047+461344321
2988+460854893+460398702+459620153+458375331+456854128+455540875+454871157
2978+454745560+454553415+453826530+452742758+451854897+451422674+451203571
2968+450841772+450167881+449165834+448064114+447362267+447243502+447131457
2958+446389764+445236416+444347041+443745311+442773361+441172317+439529689
2948+438418589+437708175+437084730+436680831+436733751+437078304+437369309
2938+437367500+436854105+435800172+434599443+433651609+432941749+432363579
2928+432035312+431901960+431442851+430310443+428984302+428227836+428058071
2918+427789519+427060419+426227805+425685309+425394415+425115781+424595517
2908+423626264+422342740+421235074+420554351+420028252+419369614+418678994
2898+418164269+417775881+417343103+416871032+416421526+415832167+414954018
2888+414076128+413587439+413293997+412653010+411628436+410739246+410318729
2878+410204654+410089950+409787829+409151828+408081240+406764590+405665418
2868+405049359+404698602+404270404+403706452+403132382+402607982+402122727
2858+401703429+401431295+401331917+401245539+400912213+400238617+399396882
2848+398668704+398211738+397865708+397245919+396219129+395192043+394657968
2838+394531743+394273716+393675235+393144483+393016522+392948276+392403344
2828+391451779+390626403+390206551+389997973+389636137+388908033+387885047
2818+386808513+385860051+385128993+384700536+384512749+384229573+383572522
2808+382685363+381919702+381405975+381037750+380685627+380195239+379365321
2798+378191994+376998800+376117106+375543590+375025800+374387140+373691941
2788+373118129+372705109+372303315+371780171+371103178+370198994+368976219
2778+367589366+366435280+365760097+365443795+365230637+364971539+364552500
2768+363811028+362742618+361659511+360890563+360358925+359682671+358711534
2758+357747487+357129138+356765862+356273222+355473512+354516593+353562591
2748+352646368+351832994+351199172+350652947+350027581+349321451+348622928
2738+347887586+347016418+346074898+345241102+344598048+344086019+343576539
2728+342937399+342132519+341303634+340667966+340294423+340022769+339617799
2718+338956021+338082378+337174871+336437757+335926799+335485528+334936828
2708+334279814+333601972+332915451+332211056+331565749+331055899+330598231
2698+329994987+329187928+328377841+327762077+327268956+326759882+326328249
2688+326105268+325936057+325535408+324851694+324085922+323441428+322954068
2678+322522989+322038473+321438404+320695751+319886919+319218162+318827003
2668+318625663+318453202+318260208+318070021+317868496+317550865+316958367
2658+316047758+314998625+314043257+313270728+312672468+312226212+311862640
2648+311489245+311085125+310670812+310196525+309569572+308806644+308071819
2638+307516601+307143539+306870371+306665449+306563837+306565351+306524932
2628+306192067+305480711+304654116+304054897+303713169+303421647+303083114
2618+302755604+302482805+302280283+302152803+301989832+301618284+301059207
2608+300552367+300260679+300126865+300060022+300079244+300175205+300170755
2598+299872623+299322926+298751903+298300790+297945786+297652306+297396901
2588+297081320+296633678+296141942+295730030+295406490+295131955+294883438
2578+294596255+294201828+293763918+293460172+293393994+293480631+293536819
2568+293462314+293312564+293220813+293292456+293560380+294006471+294596199
2558+295222340+295637336+295620700+295226920+294694543+294168887+293696761
2548+293343677+293107162+292846587+292440454+291933633+291486397+291218658
2538+291091287+290968681+290818636+290730356+290711393+290661612+290576637
2528+290556603+290597484+290593883+290550546+290557877+290550472+290323522
2518+289833281+289312925+289064888+289217610+289620881+289914527+289821778
2508+289430047+289060955+288851509+288633033+288247138+287782915+287395967
2498+287067829+286705254+286351451+286130261+286065653+286061406+285972424
2488+285681400+285221812+284772490+284419720+284038090+283495705+282839910
2478+282240986+281863473+281747551+281731487+281589124+281281814+280949983
2468+280699472+280569184+280610878+280782175+280840487+280541081+279909714
2458+279227403+278784378+278664191+278710999+278701471+278555359+278350326
2448+278173895+278035631+277902020+277749593+277576061+277380094+277144040
2438+276847828+276497255+276154900+275931753+275871705+275848274+275701109
2428+275453589+275241336+275089482+274949980+274896580+275084478+275501320
2418+275892275+276006018+275863101+275683826+275587976+275497646+275325351
2408+275116570+274995514+275059513+275324963+275711616+276072011+276280331
2398+276330943+276311001+276244565+276051239+275730838+275476725+275466570
2388+275583969+275462858+274806472+273540249+271621665+268913380+265413897
2378+261439720+257363065+253283178+249120587+244918371+240912011+237372441
2368+234464310+232257455+230813785+230184819+230443751+231853796+234789882
2358+239317872+245079089+251834966+259881662+269227447+278403929+285066135
2348+287733872+286719361+283890852+281207235+279108619+276907875+274136237
2338+270841381+267204298+263302688+259331097+255908409+253701479+252693505
2328+252259564+251914513+251609493+251493515+251723679+252412803+253569013
2318+255020142+256432532+257533698+258374270+259279304+260521116+262120296
2308+263907188+265625337+266994815+267859465+268357073+268815738+269399687
2298+269993958+270472325+270875134+271264649+271603035+271837980+271991349
2288+272138236+272339170+272585324+272811592+272960141+273001484+272920146
2278+272729036+272505427+272373108+272374918+272360940+272131977+271713269
2268+271339376+271185989+271257023+271451291+271606672+271563483+271265701
2258+270789513+270313952+270027822+269937843+269840035+269602043+269351900
2248+269284614+269422805+269647484+269854844+270022264+270170241+270295746
2238+270365137+270397469+270519576+270859679+271395620+271995540+272577698
2228+273109392+273520326+273801563+274117809+274646234+275393172+276291207
2218+277355074+278625636+280047037+281505755+282974223+284545151+286293896
2208+288160169+290002770+291739180+293418681+295159209+297010230+298935886
2198+300925448+302999228+305130656+307278350+309419767+311487546+313388902
2188+315067979+316476584+317624798+318661559+319703453+320679317+321523305
2178+322335535+323199982+323981818+324396980+324279212+323765152+323131293
2168+322483696+321745215+320859053+319854790+318776853+317621622+316363801
2158+315036330+313683342+312288844+310927361+309811867+309036530+308520070
2148+308149445+307828804+307938836+309820213+314780261+322499391+331344061
2138+340096887+348491939+356542290+364291408+371855766+379314949+386818226
2128+394617530+402795178+411171987+419358424+426809335+433178246+438481369
2118+442656738+445456997+446941639+447590233+448072238+449332238+452619598
2108+459043276+469112383+482630527+498609215+514954945+528766901+537833296
2098+541606280+540531777+535550051+528076540+519185080+509158590+498043047
2088+485630168+471407666+455484114+438674917+421591481+404732208+388834987
2078+374375951+361525198+350591939+341712999+334576950+328881523+324419064
2068+320821607+317818641+315301706+312985927+310671587+308555320+306803491
2058+305406760+304480012+304024042+303744024+303554132+303737857+304579482
2048+306333323+309302811+313763811+320140404+329063180+341015288+356276767
2038+375054864+397054180+421091381+445401270+467994783+487029910+501473435
2028+511077709+515897462+516523271+514063687+509417984+503194907+496011071
2018+488255639+479950067+471011006+461435647+451368240+440973155+430178235
2008+418873612+407302432+395867227+384766899+374120103+364168580+355154403
1998+347167386+340216686+334325385+329360869+324833820+320246502+315690021
1988+311682054+308498153+306007290+303945032+302090410+300362660+298857540
1978+297688682+296832673+296134815+295396740+294592986+294019267+293943986
1968+294113936+293931042+293161652+292179602+291477922+291204273+291206120
1958+291294972+291317536+291146719+290801556+290455545+290226138+290111509
1948+290198349+290748175+291862248+293006270+293192155+292055315+290388684
1938+289180477+288683387+288595568+288614735+288656945+288771962+288945458
1928+289127520+289534392+290468692+291690747+292640815+293327207+294018141
1918+294249135+293395914+292015598+291336075+291802108+292826848+293543319
1908+293551517+293107938+292712366+292591902+292648331+292782717+293104115
1898+293771377+294630507+295221565+295457009+295911871+296853243+297487102
1888+296968130+295672346+294586358+294158362+294261894+294601443+294892338
1878+295010438+295040776+295166078+295791259+297596764+300752858+303860518
1868+304597947+302439191+299349534+297261998+296548980+296591744+296756321
1858+296789170+296747033+296776411+296962628+297413907+298318331+299853715
1848+302251091+305561716+308627702+309123075+306556783+303428091+301871621
1838+301838846+302208751+302509025+303558748+306293125+309967894+312298520
1828+312348744+311484629+310627272+309377040+307818575+306872624+306901244
1818+307365116+307740727+308214053+309364428+311244476+312960335+313544634
1808+313159939+312907045+313754874+315931873+318783611+321020177+321732401
1798+321475482+321917972+324353256+328309299+331060442+330119698+326900695
1788+324750766+325006281+326750908+328747358+330634459+332256443+333258859
1778+334033937+335974143+340206235+346096908+350687033+351244005+348656423
1768+345442516+343164331+342892751+345032192+348176560+350156096+350931137
1758+351891085+353173501+354569143+357278371+362376351+368430843+372208333
1748+372511303+371212379+370471609+371221722+373285014+375525901+376657681
1738+377334490+379984371+385178183+388968155+387401528+382899333+378986497
1728+376553614+375790206+376655539+378454896+381115376+386024905+394106166
1718+403010699+407391691+405338739+400614191+396839546+395465064+396989960
1708+401270430+406878333+411774973+416075606+421947445+429475613+434963421
1698+436407294+435425521+432324877+427945916+425530353+426776393+430685093
1688+436315265+444560494+455068361+461950889+460577626+455867222+453578142
1678+455532086+460971406+467131776+471566574+475203805+479614119+483062086
1668+483183104+482183420+483717623+487933835+491813841+493332902+494331773
1658+497945959+506145137+519435574+533983351+539789123+537355021+537243420
1648+541705362+545303447+543317929+539039305+537381204+539680255+545869319
1638+555514400+565833262+570810630+568689063+565559798+566093320+570357615
1628+576324252+582655126+589795311+597910142+605487979+611958299+619389046
1618+629188493+638320733+641734060+640114846+637550900+635595479+633770788
1608+631787596+630270899+630167053+632075573+636043878+641615885+647958023
1598+654191291+659830216+664786238+668972944+672269056+674771773+676682510
1588+678131257+679333758+680560041+681831231+683198881+685552845+690426589
1578+698159494+705731312+708753259+708929191+712035559+720089973+730223670
1568+738678843+746025391+754960649+766265973+780313909+799568472+824860872
1558+845808212+853299672+855689680+859959551+865978111+871500042+874850072
1548+876191723+877576508+880507239+884452647+888059263+888762328+882452320
1538+871190130+862052054+857322115+854946657+852398516+849703322+848643591
1528+849843285+852355013+855380284+859103449+862957272+865013585+864683139
1518+863090957+860609954+857607137+855906973+857521239+863086969+871434382
1508+878770737+878405503+869013057+859041851+853909379+853618817+856429527
1498+859538258+860191321+858491157+857337920+858811189+862273558+864855157
1488+864000828+860129131+855582067+852316163+850982784+851121787+852256780
1478+854688962+858833716+864035099+867807528+866817816+861438950+856586773
1468+855604299+857578775+858945317+857443834+855500305+857083180+863016729
1458+869323930+869507618+863713737+857967348+854547596+852761091+851793388
1448+850704113+848599202+845705474+843026972+841330723+841261739+843307563
1438+846640974+848472090+846875034+843775239+841534353+840003031+838121617
1428+836163389+835322651+835984429+837678167+839982129+842244878+842562915
1418+839312965+834337074+830720044+829017591+827855565+826231402+824678661
1408+824232257+824715886+824741146+823650690+822567767+822708542+823884454
1398+825217021+826220914+826424175+825164654+822874652+821102180+820556656
1388+820238619+818878724+817079368+816916213+819530531+824153818+829234663
1378+834116974+839222044+844457624+848367653+849990265+850525522+851651726
1368+853740020+856560848+860166283+864059103+866572751+866467133+864609206
1358+862879055+862245491+862363740+862461825+862211442+861723824+861508008
1348+862368393+864440364+866782511+868773975+871123213+874485503+878043224
1338+880483604+881632631+882259474+883212035+885293238+888965737+893617903
1328+897801285+900812522+903505279+906951325+910992898+914760527+917891785
1318+920597172+923191917+925990293+929053305+931879673+933861979+935044833
1308+936088758+937539795+939280508+940749197+941700650+942553280+943731629
1298+944963600+945567694+945151941+943819965+941974742+939923156+937569708
1288+934820597+932145345+930153511+928766510+927363630+925535764+923333653
1278+921136639+919511221+918849221+919077003+919799419+920569844+921169580
1268+921770794+922453991+922759472+922484716+922425629+923341630+924938760
1258+926671643+928455194+929762649+929314398+926563366+922446531+918137367
1248+914037593+910193889+906789500+903784910+900684820+897165653+893571297
1238+890423421+887853196+885845852+884473919+883546543+882632758+881796229
1228+881770231+883128796+885546206+887900023+889095138+888998530+888615053
1218+889247214+891299759+893695602+894734653+894092374+893595154+895266808
1208+899083332+903258959+906185406+907549067+908169927+909281877+911478152
1198+914295435+917141893+920012724+922870704+925318913+927504479+930142802
1188+933009054+934770299+935044907+935336725+937214667+940435812+943547868
1178+945744734+947223763+948537865+950461675+953470696+956857434+959272480
1168+960257835+960471657+960616199+960959792+961481976+961838421+961957482
1158+962766018+965009858+967851515+969990402+971643739+974240184+978465592
1148+983392883+987609428+990719784+993127814+994807002+995336720+994937511
1138+994513042+994896962+996518244+999221711+1001983821+1003206264+1002335538
1128+1001177279+1002507556+1007225236+1013302145+1017509531+1017935329
1120+1015237845+1012231187+1012008649+1015460678+1020367584+1023447289
1111+1023593530+1022556843+1022375519+1023042467+1022982420+1021347695
1103+1019130739+1018054168+1019275060+1023086266+1028582568+1033489696
1094+1035641434+1035144732+1034315441+1035371922+1038771216+1043366953
1085+1047101198+1047893707+1045569655+1042979414+1043356170+1046371544
1077+1048587096+1048276445+1047875463+1050566817+1055837258+1059474599
1068+1058286206+1054165973+1051916519+1054018329+1058920951+1063296441
1060+1064856715+1063916710+1062899005+1063725710+1065674336+1067038145
1051+1068065526+1069742424+1071523907+1072182435+1071365996+1069832754
1043+1068959000+1069771598+1071671477+1072511699+1070532791+1065913197
1034+1060454562+1056449993+1055575649+1057841574+1061788976+1066129456
1025+1070403907+1073599940+1073741823+1070626223+1067021305+1065127188
1017+1064200181+1062708374+1060711001+1059318313+1059458646+1061146180
1008+1063010532+1063406934+1062117280+1060171313+1058670199+1058242776
1000+1058495966+1058093286+1056491650+1054603441+1052796551+1050343319
991+1047690520+1046212155+1045302137+1042765371+1038399926+1034797224
983+1034152951+1035737008+1036984046+1036234893+1033756254+1030755135
974+1028114596+1025566456+1022112802+1017602667+1013044893+1008651603
965+1003094663+995969988+989326136+985210483+983189327+981235679+977961872
955+973645839+969422795+966187321+964366988+963749674+963325353+962142499
945+960475424+959474263+959666149+960352448+960507036+959866160+958924160
935+958124709+957462931+956968592+956951678+957218531+956634527+954277903
925+950995676+949007757+949467530+951083642+951850965+951495481+951083569
915+950933782+950470538+949811123+949884465+950833629+951563210+951158462
905+949905294+948689646+947996626+947721943+947382339+946325193+944439274
895+942696345+942208137+942846353+943589598+944027361+944437575+944554494
885+943597501+941568738+939495807+938361183+938207704+938090711+937024849
875+935374688+934793121+936317057+938986844+940696314+940102560+937491196
865+934379215+932339003+931787940+931986400+932205540+932670188+933860133
855+935032203+934670958+932863699+931805814+933144511+935996508+938250911
845+938729445+937340523+934669629+931991496+930334836+929699278+929916719
835+931143298+932618634+932803060+931724200+930964263+931002670+931187761
825+931873248+934126912+937871866+941640381+944069682+945256451+946376894
815+947885024+948842091+948530258+947826233+948415555+951181137+955379364
805+958853182+959479064+956987721+953226961+950461084+949371809+948827984
795+947676815+946300598+945694141+946116098+947634420+950209298+952316056
785+951750443+948904872+946854763+947402133+949224386+950120962+949439538
776+947872321+945958113+943777570+941980133+942034937+945005773+950135439
766+954788343+956545748+955166502+951895872+947778002+943585905+940904818
756+941506327+944898973+948113545+949169730+949086122+949389388+950055671
746+950756003+951830875+953392479+954958736+956166407+957057666+957615672
736+957288032+955025210+950635834+946151920+944283652+945526554+947810722
726+948735143+947569350+945319010+943820186+944805984+948349525+951556341
716+950934816+947141041+944286533+944184903+945153196+946121342+947080329
706+946240107+942025926+936762354+933844696+933474145+933874018+933953417
696+932695891+929023171+924487924+922876317+925404664+927881826+924677003
686+915561234+905829478+899972596+898029805+898001517+899384603+902542377
676+905705912+905115482+898329378+885793782+871063978+862457541+867158897
666+878884554+887587229+890636430+889135539+884820318+880546902+878823398
656+879279996+879887783+879954182+880264907+880700972+879417300+875245514
646+869211000+864060432+861908694+862165945+862666784+862041049+860898596
636+860114581+859279899+858074075+857609574+858635552+859546457+857816011
626+853322199+848442029+844256653+839573466+834331904+832202471+837198968
616+848007221+857036797+857412444+850092560+841509905+836559127+835310538
606+835314305+835208834+836269451+841259670+850045438
##END=
