##TITLE=<SNM>
##JCAMP-DX=4.24
##DATA TYPE=INFRARED SPECTRUM
##DATE=2/5/2025
##SAMPLING PROCEDURE=Instrument type and / or accessory
##ORIGIN=Admin
##XUNITS=1/CM
##YUNITS=ABSORBANCE
##RESOLUTION=4
##FIRSTX=4497.3318
##LASTX=599.83466
##DELTAX=-1.4281778
##MAXY=1.8638984
##MINY=0.40481427
##XFACTOR=1
##YFACTOR=1.7358907e-09
##NPOINTS=2730
##FIRSTY=0.43072104
##XYDATA=(X++(Y..Y))
4497+248126829+249081560+248895335+247670358+246512166+245745137+244992307
4487+244378677+244389819+245118631+246364416+247798005+248771912+248861050
4477+248589258+248666773+248833134+248526027+248113060+248131791+247994393
4467+246836218+245209246+244705905+245992464+248027082+249249500+249098299
4457+248183880+247183619+246081310+244797275+244014777+244576181+246212167
4447+247567074+247651851+246795323+245901421+245283945+244764861+244495919
4437+244865519+245759233+246564959+246686682+245935860+244885829+244520161
4427+245073891+245703315+245699178+245279035+244778973+243995033+242843022
4417+242008196+242358858+243878323+245497965+246006147+245158839+243929502
4407+243528055+244190735+245122563+245676584+246017358+246318611+246216391
4397+245556612+244781291+244190151+243614996+243036286+242843554+243317417
4387+244075931+244187216+243160344+241660880+240686063+240312515+239868027
4377+239091024+238490012+238574738+239123558+239416192+239180179+238959497
4367+239312169+240057360+240618300+240665788+240113517+238946140+237436101
4357+236232945+235934285+236607403+237730846+238653798+239231186+239803474
4347+240400812+240403645+239389958+237933948+237143364+237595028+238860058
4337+239946710+240225746+239868577+239304632+238675928+238132431+238146801
4327+239020531+240263294+240785931+239849932+237888726+236188084+235550539
4317+235581253+235467187+235022235+234718528+234988088+235772560+236739273
4307+237683977+238504005+238973352+238905383+238441100+237873223+237307974
4297+236720955+236234834+236143790+236656951+237666757+238751486+239440965
4287+239530224+239108398+238323016+237276762+236239418+235695096+235876273
4277+236401023+236622254+236313499+235898558+235935916+236362102+236488702
4267+236005963+235655025+236372352+237932506+239001302+238697697+237634996
4257+236955113+236932623+237133938+237240760+237059102+236444716+235753417
4247+235623882+236100371+236726620+237307956+237809186+237953949+237642893
4237+237295441+237320833+237600024+237650842+237084992+235929100+234718940
4227+234271619+235082994+236780357+238273486+238773324+238570841+238372049
4217+238239080+237933433+237754436+238091209+238641677+238872471+238763315
4207+238589262+238515662+238665524+239048790+239383949+239386439+239082920
4197+238661644+238307633+238196537+238314483+238339326+237959288+237238751
4187+236521888+236118226+236166710+236617241+237205650+237557326+237528501
4177+237455192+237882065+238934534+240032448+240403353+239955311+239363210
4167+239153482+239141052+238999671+238880128+239077066+239440502+239460177
4157+238814270+237737388+236860876+236606287+236735033+236650805+236135944
4147+235594507+235490536+235712505+235798432+235715355+235879879+236362446
4137+236711460+236714173+236719341+237023477+237477047+237841702+238079106
4127+238123795+237755329+236919540+235988228+235519207+235857766+236936692
4117+238175987+238749271+238328991+237389661+236543571+235988073+235751374
4107+235850074+235979232+235657549+234929046+234404828+234479356+234911019
4097+235149950+234848698+234218707+233946863+234420091+235113605+235265373
4087+234987950+235028467+235594747+236161010+236395117+236601858+237062604
4077+237428375+237223059+236662668+236337620+236288811+236113316+235780663
4067+235594799+235569888+235503343+235383131+235232170+234867549+234184542
4057+233470975+233202634+233559512+234263104+234954592+235581236+236208274
4047+236697674+236910458+237013880+237212432+237352422+237138196+236567058
4037+235890077+235376057+235316243+235874574+236723804+237237652+237210749
4027+237033126+237105885+237407224+237649640+237651495+237520895+237474815
4017+237505135+237435225+237286599+237189272+236967131+236334152+235547449
4007+235352313+236026393+236917480+237254443+237046809+236844051+236911368
3997+237050603+237035547+236900707+236865392+237119448+237651065+238258103
3987+238759933+239088637+239141464+238788535+238149238+237669264+237784085
3977+238540865+239487869+239913506+239458529+238618534+238262601+238565965
3967+238993696+239373168+240123664+241272310+242102896+242028179+241253802
3957+240471168+240221042+240495341+240859584+241031387+241129710+241322201
3947+241647627+242163586+242733608+242793406+241969361+240761879+240043041
3937+240187341+241044795+242320916+243546065+243981007+243324130+242430467
3927+242497578+243589037+244482459+244224316+243429166+243411774+244466081
3917+245501880+245363657+244129994+242701590+241697621+241330219+242013363
3907+244473411+248779397+253313327+255761100+255700135+254436015+252542023
3897+249934670+247507997+246720212+247946459+249789083+250617815+250984393
3887+252265974+253812032+254067943+253771000+254327665+254444547+252479479
3878+250165138+250010984+251997461+254753852+257467030+259261565+259142623
3868+257925664+257205745+256900424+255846615+253911179+252277442+252273098
3858+254892984+260608574+267981508+271637965+267756002+260960834+256114200
3848+254311355+255113734+257607346+260565035+263062648+264955815+266062623
3838+265723256+264224445+262918554+262231615+261470578+260477820+260065884
3828+260579508+261567682+263161177+265941946+268811974+269350630+268073462
3818+267459179+267028770+264665963+261118456+259017329+259612880+262366953
3808+265462813+267341851+268959914+272098419+275657017+276724508+275784320
3798+275444662+275750498+275245269+274076793+273740552+275091029+277877361
3788+281381260+285051709+288830267+293211553+298819824+305485595+311874751
3778+317096803+322343785+329504896+339255093+351023700+363470112+374735859
3768+383439990+389292498+392603820+394363882+395860444+397245069+397654396
3758+397407996+398681542+403313623+410919085+418499859+422743523+424768629
3748+428695848+436222095+445310419+452079509+456308752+461598757+470326306
3738+482517151+496490582+509149366+517873103+523461425+529217207+537435097
3728+547871305+558145719+565549316+569641247+571942214+573565444+574951545
3718+576692653+579293790+582780813+586553929+588580202+586221550+579791328
3708+572723750+568369487+567948417+570000271+571891292+572506983+572331969
3698+571667006+571093000+572147375+576033630+582170994+587501208+587740809
3688+582821742+578102034+577163752+578991079+580981573+582230534+584167944
3678+587931034+591394295+591078467+588463046+587282346+586806166+583615193
3668+577950610+572939899+569815815+568086416+567129900+566869113+567617652
3658+569170904+570499457+571371711+573081709+575964270+577787717+575802167
3648+570500212+564576731+559876354+557230030+556265788+555865423+555911915
3638+557326104+560106616+563298790+567012160+572120593+577134634+577623931
3628+572701294+567603917+565341030+565333098+567094877+570007276+571382492
3618+569517532+567574662+569148894+573611901+577844922+580173632+580724255
3608+579581119+577319228+575834580+576584561+578943763+581155729+582649853
3598+584267521+586561071+589259724+591713557+593326624+594291346+595328724
3588+595990185+594693977+591720974+589434978+589335539+590918252+592697714
3578+593765858+594529024+595795016+597517891+599326814+601669740+604815319
3568+607291540+607307472+605200988+602459551+600044106+598767127+599354489
3558+601534659+603905810+604744929+602751412+598139865+593509844+591907353
3548+593553383+595465659+594726735+591629707+588644480+587345045+587256662
3538+587045629+586565672+586913021+588075042+588054234+585507073+581985508
3528+579907180+579771550+580604557+581433237+581474441+580213394+578029996
3518+576171560+575561741+575745168+575445409+574369470+573687785+574141475
3508+574689351+574074278+572815635+572326750+572780165+572966270+571914950
3498+569788414+567462485+565786548+565079728+564979705+564680874+563482044
3488+561450037+559694645+559375383+560207497+560571980+559309628+557040354
3478+555571364+556115737+557818010+558144861+555599314+551641124+548950368
3468+548608410+549533507+550021980+549433588+548339519+547438595+546821531
3458+546149666+545129181+543834725+542713015+542123730+542017458+542086749
3448+542019484+541615754+540666586+538863432+536286777+533972213+532973600
3438+532829627+532208992+531059436+530698421+531613252+532674631+532661652
3428+531536372+530201157+529618293+529930344+530319035+529995344+528954944
3418+527644280+526386598+525158719+523635546+521670838+519857555+519140572
3408+519686112+520553490+520561250+519295636+517464600+516134331+515606817
3398+515235157+514365547+513201020+512498630+512646140+513290845+513810633
3388+513950521+513806238+513397563+512718385+512037043+511684062+511668405
3378+511705557+511439551+510671028+509663832+509035437+509049653+509279777
3368+509233560+509026887+509236753+510140012+511216226+511496893+510395786
3358+508273130+506288541+505520980+505938685+506460396+506339325+505998465
3348+506194355+507073991+508170085+508682285+508084244+506978261+506609863
3338+507110422+507165910+505770332+503463082+501604543+501174064+502254638
3328+503958869+504960022+504641721+503552083+502468281+501626793+500986312
3318+500410967+499616658+498666151+498198417+498493403+498939436+499021878
3308+498893082+498543672+497572220+496139970+495160724+495248488+496124965
3298+497046183+497295467+496528936+495133186+494012163+493774726+494272298
3288+494868588+495002157+494736254+494799777+495692736+496955019+497854982
3278+498332468+498647231+498771152+498590885+498082222+497245095+496412947
3268+496258775+496898295+497440436+496971020+495626947+494226973+493161267
3258+492169144+491037890+490069768+489719981+490014933+490550618+490942262
3248+491177022+491503391+491877386+491710132+490498942+488546870+486740316
3238+485747713+485530740+485377221+484481137+482879574+481662237+481759753
3228+482587438+482541186+481076111+479316392+478222462+477464103+476621413
3218+476126176+476193510+476055373+475208151+474385686+474383111+474749689
3208+474384347+472926928+471022962+469632568+469464697+470494555+471619149
3198+471422537+469700830+467604887+466189703+465600108+465474471+465326205
3188+464633292+463139202+461185687+459669725+459448700+460400237+461267409
3178+461007995+459955406+458959025+457955640+456184865+453495345+450786563
3168+449118042+448662258+448667408+448399960+447819946+447185748+446448506
3158+445387539+444081579+442919868+442183004+441788991+441457882+440970611
3148+440190620+439052945+437764943+436865804+436801148+437365265+437694896
3138+437027529+435522589+434116263+433479284+433302485+432722814+431322978
3128+429532014+428077548+427310227+427146544+427341268+427604149+427703382
3118+427593745+427217003+426342827+425050808+424020228+423702923+423558194
3108+422727694+421191267+419753592+419089453+419100956+419116407+418680195
3098+418080402+417900204+418196941+418454088+418208100+417424813+416420123
3088+415581794+414977606+414278272+413303661+412416059+412065448+412187514
3078+412316414+412146585+411785570+411449345+411047950+410256456+408990087
3068+407608690+406602043+406154465+405948067+405412622+404342795+403184929
3058+402530370+402501974+402810282+403095448+403010122+402282254+400984741
3048+399630470+398759486+398439435+398246531+397708614+396771498+395909546
3038+395717535+396241100+396832995+396861563+396310529+395464371+394414357
3028+393179028+391969314+391034808+390330941+389495119+388319020+387235493
3018+386937348+387363741+387604372+387124998+386451210+386191660+386047892
3008+385352575+384164253+383208871+382850911+382641904+381983980+380872743
2998+379768546+379006307+378568858+378277306+378008484+377743783+377489658
2988+377196629+376800144+376306245+375756688+375129598+374358019+373472202
2978+372684623+372212288+371929973+371396999+370470288+369676219+369588386
2968+370002382+370138184+369597794+368700681+367840102+366995008+366049892
2958+365169501+364553467+364120139+363723517+363422453+363284729+363145425
2948+362782555+362182832+361492665+360849197+360352483+360059008+359881968
2938+359591343+359058061+358412635+357811641+357193890+356473782+355810433
2928+355435923+355320415+355186365+354793244+354099232+353221348+352359017
2918+351734434+351480068+351479072+351376303+350924261+350319765+349990064
2908+350018838+350021723+349676708+349096591+348513245+347941815+347378694
2898+346963736+346729457+346522030+346254856+345911147+345334325+344406240
2888+343422530+342908992+342975055+343138944+342959981+342562604+342255462
2878+341969575+341480553+340869292+340353316+339936126+339527966+339151705
2868+338833576+338508649+338164184+337930969+337867687+337700879+337054492
2858+336015397+335113511+334646430+334426812+334237103+334096460+334029606
2848+333902286+333532274+332886780+332192940+331736331+331503151+331248098
2838+330903530+330599617+330338143+329995876+329589124+329251148+329009109
2828+328759207+328411927+328002188+327693192+327582079+327446483+326905887
2818+325950677+325030798+324501053+324300939+324234738+324171902+323921381
2808+323312112+322473921+321766483+321409038+321312450+321223586+320970422
2798+320598763+320264255+320002713+319684790+319188042+318523113+317797717
2788+317137389+316657260+316438398+316428956+316386962+316065125+315465367
2778+314797142+314198036+313625301+313020564+312439348+311952386+311523864
2768+311103481+310761866+310562336+310340555+309835051+309051592+308294538
2758+307797515+307486426+307149823+306704718+306219884+305776221+305410604
2748+305139929+304928037+304646992+304157317+303443115+302633388+301891030
2738+301312080+300926995+300730212+300649006+300511041+300118985+299422158
2728+298628329+298071835+297881885+297814413+297516268+296931069+296324444
2718+295930912+295699208+295394608+294881035+294258614+293727186+293387803
2708+293221648+293144906+292998116+292615812+292015539+291407163+290961885
2698+290684754+290505277+290344925+290111195+289763846+289374022+289039240
2688+288780307+288568759+288390037+288215264+287951266+287503139+286895689
2678+286266282+285730459+285325063+285058868+284894688+284704755+284412000
2668+284171472+284231115+284579151+284886601+284854754+284486202+283944541
2658+283321452+282686516+282179965+281854591+281584378+281294388+281077793
2648+280941700+280687712+280202707+279664360+279340703+279315379+279445258
2638+279484831+279247908+278755469+278262687+278048598+278097167+278086471
2628+277813941+277479314+277355702+277373849+277298548+277146025+277110916
2618+277174816+277110675+276871830+276671475+276595076+276435806+276072610
2608+275724437+275611195+275623796+275545131+275363576+275183154+275029841
2598+274880562+274733876+274599139+274503203+274459681+274382269+274142805
2588+273746389+273337148+273056806+272974038+273044016+273087263+272966724
2578+272773237+272649007+272537808+272359498+272271974+272461958+272814167
2568+273061133+273138562+273164023+273186891+273180023+273204866+273377854
2558+273665131+273856283+273800366+273595771+273467850+273482615+273468211
2548+273237451+272806509+272347240+272002157+271806747+271719377+271647734
2538+271482609+271168618+270758346+270404782+270247503+270230850+270096456
2528+269686322+269189746+268932770+268989718+269148267+269177522+268995555
2518+268654970+268296770+268054817+267919702+267760329+267527389+267353388
2508+267389785+267613454+267857124+267981594+267951567+267797361+267609024
2498+267534085+267659619+267898654+268063298+268004222+267646297+267044650
2488+266480929+266300181+266537378+266865070+266965779+266794920+266489204
2478+266216605+266106900+266161615+266236435+266181101+265957312+265611680
2468+265223761+264889700+264665139+264501095+264297960+264046101+263855601
2458+263802070+263802826+263731869+263593921+263459305+263313941+263125570
2448+262951037+262809862+262588304+262243393+261942638+261832710+261820486
2438+261734129+261581898+261523440+261635737+261787420+261766268+261519062
2428+261214942+261037078+260973126+260885963+260750075+260707103+260851077
2418+261048220+261066573+260856571+260605020+260498748+260515144+260506371
2408+260441011+260446540+260600385+260818800+261005162+261176142+261391449
2398+261681594+262094475+262781431+264070703+266467194+270535450+276820685
2388+285923551+298511138+315073895+335625333+359675262+386505119+415372100
2378+445357185+475289907+504268825+532007642+557976440+580618154+598607324
2368+612400900+623027264+630130278+632624354+630402636+624509234+615993542
2358+604840179+590214077+571143681+547502358+522416287+502152796+491861145
2348+493184135+504635163+521544514+537129878+546943255+551086588+551899885
2338+551676319+551439706+551269980+551483450+552329471+553024341+552438524
2328+550395426+547273848+542932495+537078957+530216266+523077645+515382324
2318+506382657+496500780+487185147+479073255+471123156+461778063+450561795
2308+438199473+425603113+413317499+401701449+390988831+381080446+371641854
2298+362462675+353568937+345096888+337169005+329772756+322747172+316020522
2288+309808131+304420370+299909738+296020496+292480423+289247800+286433467
2278+284060925+281993139+280059128+278177927+276391615+274809211+273480229
2268+272347927+271367324+270571246+269945100+269349325+268645974+267822564
2258+266962019+266166422+265503227+264962305+264483051+264035903+263627365
2248+263237215+262825124+262397376+262006487+261679877+261375552+261030812
2238+260667856+260416976+260386639+260532536+260683222+260666740+260425217
2228+260064905+259771859+259631903+259566509+259451258+259249032+259032849
2218+258892257+258802347+258641342+258374616+258116593+257974199+257948532
2208+258001342+258103974+258212598+258260120+258177575+257946609+257661856
2198+257486670+257509933+257674217+257840046+257903998+257863721+257771166
2188+257662800+257581302+257587379+257663675+257692947+257605509+257464815
2178+257376432+257390837+257482687+257548322+257462360+257210810+256929112
2168+256747591+256654333+256591222+256607893+256777567+256997064+257040534
2158+256832197+256551409+256434973+256527373+256649800+256608854+256401529
2148+256171113+256022230+255971772+256028857+256223597+256566259+257015022
2138+257487735+257937029+258410497+258979644+259633568+260317623+261033439
2128+261824658+262718131+263739114+264934595+266333333+267907788+269584806
2118+271270924+272867903+274290625+275486003+276399375+276908278+276877753
2108+276335732+275492252+274527050+273471644+272326724+271146436+269964706
2098+268761585+267541999+266380168+265379324+264605101+264027164+263528562
2088+263030165+262587704+262290674+262097291+261877090+261596405+261340837
2078+261168382+261064582+261028065+261092429+261269743+261532968+261828589
2068+262090320+262273918+262373134+262391470+262349253+262322796+262414698
2058+262652531+262935826+263114342+263147923+263169469+263352260+263734478
2048+264200530+264602079+264889717+265133748+265384096+265543693+265494849
2038+265324471+265266545+265424304+265680833+265885188+266022998+266181101
2028+266414144+266696494+266985282+267284681+267647035+268127817+268707797
2018+269230246+269484697+269414119+269187016+269030098+269047918+269203343
2008+269414204+269650938+269936894+270245615+270462759+270506212+270415547
1998+270294802+270287488+270595556+271308385+272169239+272714024+272715689
1988+272355017+271988903+271878613+272053696+272341385+272554770+272651085
1978+272712238+272835799+273038213+273220129+273308322+273452691+273884560
1968+274512010+274911294+274863240+274629785+274561472+274721687+274995590
1958+275317496+275686272+276102174+276533271+276903935+277182250+277483846
1948+278006158+278888386+280099439+281272722+281788990+281419854+280697601
1938+280271414+280239103+280310558+280302746+280303845+280473485+280803272
1928+281191756+281737674+282610391+283595630+284310124+284856917+285512593
1918+285919035+285501502+284532419+283863370+283916231+284466716+285037923
1908+285302367+285274228+285179047+285175527+285275601+285442357+285690182
1898+286105603+286664570+287110105+287369449+287868584+288848740+289707705
1888+289749115+289221876+288832259+288807776+288967923+289176724+289400392
1878+289604730+289767176+289979171+290621644+292261287+294961623+297610797
1868+298553921+297493984+295794355+294703686+294450865+294712407+295164827
1858+295633453+296094217+296593677+297112641+297639400+298321222+299416801
1848+301214599+303798705+306366742+307220763+305803141+303717980+302564406
1838+302525743+302977133+303606180+304846144+307132724+309838828+311530354
1828+311776548+311467312+311029417+310152803+309076624+308570570+308824868
1818+309335419+309716796+310173439+311118623+312521790+313791044+314396261
1808+314455904+314545488+315234556+316803363+318943256+320730341+321407871
1798+321314372+321654717+323408220+326361274+328722982+328697367+327021602
1788+325860165+326140249+327315352+328669726+330075846+331468093+332540632
1778+333431840+335031515+338137435+342286503+345386311+345699530+344044161
1768+342107712+340791280+340784687+342431781+344798983+346386160+347153240
1758+348021442+349055318+350143927+352164947+355813386+359986283+362499999
1748+362782109+362247900+362237324+363172379+364877640+366748368+368130692
1738+369475143+372224203+376555220+379723908+379222215+376832489+374835024
1728+373597806+373150331+373625035+374789528+376707229+380288574+386053695
1718+392243251+395095287+393371004+389817231+387050900+386103861+387266843
1708+390319438+394151407+397392614+400341684+404595890+409980665+413549958
1698+413870078+412380212+409708032+406684931+405342678+406485126+409318002
1688+413404542+419457576+426799229+430883984+429077499+425541959+424173198
1678+425744992+429343917+433103848+435795050+438344374+441713519+444403210
1668+444496812+443529789+444317918+447190521+450067107+451410391+452420506
1658+455298637+461375329+470843072+480946455+485118013+483920935+484445084
1648+488416494+492441194+493068730+491961133+492500424+495849654+501936853
1638+510479602+519993425+526612292+528407721+529109664+532528117+539298443
1628+547992754+557194835+566801058+576875598+586563337+595665498+605780522
1618+618077638+630423925+639032326+644436431+649856950+656360515+662943397
1608+668427851+672557655+675877252+678994195+682081951+685082218+687998840
1598+690816024+693531365+696255633+699017672+701738027+704514487+707591118
1588+710989621+714333666+717137115+719320307+721337447+723797186+727172477
1578+731530415+735863217+738828323+741591461+746808157+755121400+764178031
1568+771009442+776276201+783087010+793119626+806207378+821850531+837720580
1558+847195912+849278429+850364016+853101333+856555324+859060593+859649535
1548+859173836+859628384+861746542+864712060+867731624+868724159+863659436
1538+854643323+848324214+846008071+844608647+841561202+838216813+837024233
1528+837774146+838641970+839289147+840940189+843056700+843136635+840971985
1518+838707209+836918889+835153299+834068948+834727731+837214390+840647916
1508+843191574+842099188+837419517+833185398+831314875+831159605+831989453
1498+833357630+834107954+833061580+831234390+830709383+831784188+832471402
1488+831023906+828290023+826069885+825028936+824814744+825061487+826036579
1478+828162497+831151158+833978093+835349636+834316172+831676989+829748300
1468+829761966+830818848+830882508+829407544+828648155+830758209+835338236
1458+839043296+837346242+830864653+824689553+821312476+820583372+821388978
1448+822176660+821912062+820854013+819853924+819528482+820537635+823401242
1438+826927889+827769343+824604123+821003309+820080409+821220591+822146650
1428+821908628+821304990+820950224+820773803+820934155+821506890+821213586
1418+818479772+814299905+811019520+809430764+808926084+808671169+808390364
1408+808524002+809303237+809896849+809560900+809118644+809695499+810988686
1398+811996672+812458500+812415785+811541231+810029595+808859952+808542338
1388+808420580+807597256+806646475+807401125+810698472+815408085+819851727
1378+823555963+827089065+830622236+833456451+835135512+836237787+837496087
1368+839018849+840789589+843055532+845595276+847194470+846797264+845049049
1358+843703808+843781271+844771677+845535667+845814549+846350407+847544910
1348+848724511+848961159+848228278+847528703+847996368+849861671+852218401
1338+853978085+854995204+855806098+856690953+857629511+858679113+859926083
1328+861499525+863740127+866790388+870080044+872860213+874998217+876637998
1318+877794730+878803678+880247465+882279438+884830650+888064818+891858536
1308+895543406+898783480+901968477+905422880+908916495+911931115+913888028
1298+914589938+914875000+915983181+917843609+918889228+917995995+915798381
1288+913711057+912449392+911769733+911010412+909699371+907924441+906104668
1278+904559794+903558882+903464250+904402533+905839315+906808432+906874496
1268+906796002+907817792+910248002+913211184+915808202+917787159+919268648
1258+920734891+922806077+925277834+927145197+928014669+928529856+929256626
1248+930098079+930666351+930579754+929746060+928627922+927709966+926898179
1238+926007212+925234775+924667946+924113684+923753905+924139711+925264099
1228+926263501+926136112+924457600+921409812+917782901+915188769+915142140
1218+917436101+920231172+922052044+922885532+923468705+924501757+926300379
1208+928372183+929867474+930886860+932253458+934020078+935708685+937438222
1198+939315474+940878890+942157655+943820510+945819657+947483611+948853711
1188+950488272+952337025+953767490+954563138+955413725+957185221+959881402
1178+962837786+965801588+968862355+971462051+972693088+972605048+972118430
1168+971775475+971692106+972415373+974356698+976372327+976696121+975719313
1158+975869913+978399081+981935892+984231777+984512513+984070326+984752938
1148+986800912+988656670+989329600+989948758+992280215+996528756+1001027473
1138+1004132123+1006205507+1008427224+1009998606+1009051602+1006103115
1130+1003930910+1004479953+1007567504+1011602814+1014854836+1016608065
1121+1017422667+1018339799+1019844224+1021541484+1022983142+1024125865
1113+1024283814+1022155561+1018638253+1017485091+1020984613+1027045509
1104+1032198065+1035767564+1039297508+1043666707+1048032679+1050518240
1095+1049835353+1046439047+1042151500+1038965885+1038265142+1040067885
1087+1042585172+1043690606+1043127485+1042337330+1042460805+1043766215
1078+1046679747+1051684586+1057258727+1059909241+1057888049+1053360558
1070+1049934585+1049539645+1051660345+1055033301+1058867879+1061476777
1061+1060386177+1056360687+1054169872+1056865435+1062592443+1068033289
1053+1071889911+1073741823+1072059671+1066478869+1060176311+1056622607
1044+1055976254+1056147594+1055295976+1052676915+1049356356+1048296041
1035+1051398700+1056433892+1058979130+1057969152+1056551530+1057276857
1027+1059417334+1060708598+1060208244+1059205614+1059729179+1062589352
1018+1066816604+1070226438+1070971475+1069372005+1067356033+1065852088
1010+1063887827+1060940301+1058251949+1057109843+1057340242+1057784902
1001+1057740127+1057189436+1055925710+1053692043+1051164592+1049472346
993+1048886906+1049060443+1049788723+1050849657+1051638507+1051599912
984+1050540490+1047641379+1042382311+1036978480+1035149093+1037871713
975+1041512358+1041886627+1039477912+1037329263+1036306512+1035020880
967+1032732961+1030573736+1029707354+1029695405+1029073500+1026959118
958+1023952465+1021079519+1018268516+1015235218+1012751923+1011401189
950+1010316563+1008517804+1006327608+1004208557+1001498366+997509410+992729751
940+988258571+985082158+983841300+984534626+986580403+989051335+990660076
930+990508239+989142602+987724774+986212520+983793573+980798456+978679405
920+978285976+978788321+978573442+977605973+977444111+978276843+978267572
910+976446700+974414864+973799620+973765146+972476835+969983446+968693007
900+970755952+975272181+978715596+978630441+976090011+973599781+972035335
890+970689133+969077577+967562576+966810810+967208016+968319699+968623441
880+966590231+962970601+960592583+961073364+963101355+964397082+964117856
870+962665417+960591827+958604835+957686673+958492073+960788027+963832587
860+966928241+969051138+968557927+964608252+958900130+954944549+955380831
850+959907223+964998248+966603691+964269968+961021928+958554085+955354872
840+950498779+946325298+945700990+948601062+952617075+955728386+957939322
830+960325169+962649553+962989417+960693258+958108808+957511694+958037731
820+957854442+957586341+958751521+960987111+962594202+962426296+960390134
810+957299012+954923673+954755629+956465800+958584988+960530845+962700165
800+964593144+964735778+963172775+961786330+961702549+962104081+961758105
790+960561886+959409273+959369924+960963830+963664269+966549508+969631221
780+972939487+974776497+973237117+969373147+966919451+968500172+972876926
770+976298915+976368687+973841579+970699365+967868241+965429035+963989025
760+964782957+968158729+972542212+975625299+976607739+976585351+976957904
750+978946476+982579292+985006136+983248719+978624604+975074539+973940057
740+973274682+971227394+968153853+965925886+965780780+966878934+967823878
730+969008561+971534295+974782953+976966488+977650130+977760282+977567585
720+976615980+974894135+972522847+969272266+965319158+962190335+962291971
710+966667695+973028351+977097105+976879273+974735293+974225257+975718969
700+975946759+972163342+965852268+960561817+957550494+955619264+953681648
690+952064736+951129337+949542298+945214646+937533197+929271528+925064946
680+926920636+932410652+937545352+940243319+940917759+940005984+935496210
670+925179219+913127128+909451048+915357636+922751069+927002975+928686706
660+929481737+929266858+926538812+920916051+914173640+909224358+907579152
650+907412826+905749353+901994230+898301256+897025650+899134675+904335782
640+910864894+914306661+909165436+896389186+884157721+878846118+880656483
630+886168337+892536341+897996621+899899420+895976528+888422606+883882410
620+887764716+899470006+911674483+916312813+911946566+902463612+893267917
610+888564073+888982636+889526117+882751224+867951584+854012559+850334487
600+858670873
##END=
