##TITLE=<SNM>
##JCAMP-DX=4.24
##DATA TYPE=INFRARED SPECTRUM
##DATE=3/5/2025
##SAMPLING PROCEDURE=Instrument type and / or accessory
##ORIGIN=Admin
##XUNITS=1/CM
##YUNITS=ABSORBANCE
##RESOLUTION=4
##FIRSTX=4497.3318
##LASTX=599.83466
##DELTAX=-1.4281778
##MAXY=1.7110583
##MINY=0.17538489
##XFACTOR=1
##YFACTOR=1.5935472e-09
##NPOINTS=2730
##FIRSTY=0.19699487
##XYDATA=(X++(Y..Y))
4497+123620356+124040176+124687093+124968743+124979917+125230691+125801463
4487+126242799+126223545+125945598+125816723+125894832+125857091+125473768
4477+124914582+124593621+124803287+125421730+125929178+125835173+125174164
4467+124519066+124499186+125243399+126193267+126609337+126355871+125927682
4457+125640299+125246718+124594500+124098591+124116910+124378194+124490854
4447+124533513+124646229+124494753+123681325+122413524+121428216+121342879
4437+122061527+122801887+122940852+122673901+122449572+122105841+121177312
4427+119753959+118441956+117689019+117498129+117602429+117695228+117537281
4417+117023999+116291905+115677454+115457128+115681055+116211103+116780482
4407+117133798+117242801+117249244+117198375+117084696+117034930+117073110
4397+116926207+116367236+115557734+114931343+114825116+115217631+115818280
4387+116365646+116684148+116528885+115714063+114349275+112702220+111072650
4377+110059429+110403853+112044138+113758520+114332378+113806687+113184148
4367+113269158+114046024+114844501+114990413+114495571+114013371+114049727
4357+114518396+115066548+115418050+115395795+115010630+114552275+114285408
4347+114111032+113753443+113164614+112588466+112345762+112625963+113337588
4337+114102364+114533554+114594391+114612841+114902271+115431889+115919644
4327+116176673+116223100+116070185+115613522+114906404+114332677+114252549
4317+114659203+115349583+116073364+116378139+115853935+114794053+114126040
4307+114431928+115381011+116243383+116653374+116748146+116780426+116777639
4297+116560744+116053493+115551114+115617291+116596624+118122772+119254347
4287+119329641+118539842+117471161+116496503+115857535+115737039+115936644
4277+116057523+116154277+116634850+117514502+118258136+118348980+117829105
4267+117321041+117465055+118278418+119228931+119898113+120273048+120436811
4257+120365042+120138189+120040640+120209181+120411760+120500444+120753434
4247+121318286+121787236+121885439+122027415+122663176+123589115+124247010
4237+124272631+123639563+122595054+121441485+120295827+119254777+118718454
4227+119166318+120517079+121955871+122612653+122410064+122045359+122110956
4217+122536246+122988392+123353789+123601393+123615354+123395532+123114022
4207+122931669+122976554+123326157+123808731+124131067+124363354+124865770
4197+125592984+125976596+125742786+125410612+125651015+126409124+126988873
4187+126916197+126383091+125843841+125482297+125183038+124897732+124901762
4177+125535737+126659645+127667480+128195799+128437221+128650825+128861735
4167+129143825+129632224+130108327+130094263+129524398+128882354+128543261
4157+128389241+128245003+128256757+128530945+128805208+128870263+128958452
4147+129337174+129795688+129848315+129319809+128542737+128045847+128127845
4137+128691436+129394233+129889253+130003840+129893517+130014631+130684794
4127+131583522+131932620+131367637+130411073+129870729+130014107+130496877
4117+130824263+130791395+130725096+131214235+132323368+133296025+133354346
4107+132585063+131786755+131639104+132157380+132820436+133216009+133522177
4097+134101963+134688837+134510870+133391414+132112243+131420853+131297701
4087+131468692+131991990+132919200+133855660+134283820+134085459+133543890
4077+133052779+132898114+133118647+133509553+133837369+134039078+134172516
4067+134298118+134515733+134922330+135327376+135254177+134564760+133852153
4057+133795963+134330033+134872312+135210012+135671864+136422829+137097349
4047+137357118+137376961+137413617+137282395+136763661+136179153+136014118
4037+136240233+136507090+136773882+137293990+138088960+138767137+138893421
4027+138432018+137813304+137571750+137883342+138432991+138760788+138783576
4017+138868108+139208987+139361501+138781061+137653085+136757415+136655555
4007+137326812+138382645+139358041+139970154+140279464+140469026+140481108
3997+140121115+139506142+139118470+139293791+139822830+140195222+140213643
3987+140228511+140644572+141328359+141713094+141466042+140857642+140490515
3977+140841493+141930335+143178797+143756480+143347021+142476112+141951449
3967+142153149+142905329+143765419+144316404+144365291+144034792+143649028
3957+143438623+143366845+143351967+143640004+144614232+145988792+146643872
3947+145922269+144677369+144209196+144659201+145138043+145121642+144950548
3937+145111655+145841814+147256863+149115960+150441886+150286483+149140049
3927+148504222+148958257+149503426+149228677+148863738+149607558+151204315
3917+152084285+151232723+149241263+147325303+146132244+145757225+146465287
3907+148965214+153580211+159081078+163045240+164067465+162532546+159319676
3897+155611365+153190707+153316093+155337663+156793230+156154515+155239647
3887+156323392+158613980+159618457+159241353+159120221+158792639+157052691
3878+155474196+156385670+159631792+163523671+166923766+168585222+167240052
3868+164510345+163429975+164123852+164002177+161799115+159260840+158648840
3858+161192052+167275473+175364035+179586021+175343145+167478893+161430744
3848+158612409+158850390+161414885+165172821+169188282+173049621+176048935
3838+176864673+175279502+172747399+170291955+168011130+166388724+166223586
3828+167233880+168491656+170573867+174962992+180310008+182335757+180534804
3818+178479543+176870471+173878638+170006807+167676722+168319131+171845501
3808+176371991+179327448+180927936+183115401+185120392+184650451+182765227
3798+181707449+180855784+178903009+176709934+175877813+176727588+178705031
3788+181317141+184074695+186424455+188536234+191322477+194821747+197632060
3778+199023722+200305717+203198785+208466337+215741498+223372611+229529699
3768+234249585+238560835+242687086+247275891+254130858+263779306+273821690
3758+281798863+289003536+298821329+313097519+330288115+345387075+355314443
3748+363406183+373433793+384325279+391627427+395528190+400914442+410686173
3738+424713814+440679269+454935710+464691431+470056064+473206770+476202062
3728+479974418+484309400+488220524+490720478+491517889+491392549+491844274
3718+493838904+497787132+504825209+516048429+529465530+540279964+546789826
3708+551418016+556760993+564184142+572666452+578565735+579995157+579747020
3698+581064792+584792599+590810901+599106305+608905938+617098969+618872281
3688+613527995+606875775+603947360+604909535+607648237+611356969+617382975
3678+626070521+633063077+633048340+628878346+626317348+625370883+623391626
3668+620716660+619242503+619225709+619649493+619567429+619567242+621648686
3658+626613960+632550571+637749468+643798628+653211506+665395854+674541969
3648+674150202+666347555+658580516+654980779+655321826+657380978+659531843
3638+661788037+664425750+666748523+668518020+671478976+677454824+684975521
3628+690209503+693044109+696139419+699990809+703143870+703891871+701773995
3618+698973352+698771521+701966475+706200655+708499489+707874996+705035752
3608+701136935+697972727+697910711+702290616+709540211+715651536+718328747
3598+719396025+721033188+722230033+721256039+719602569+720425003+724228366
3588+727518475+726719082+723024713+720065777+719287854+719586111+719909729
3578+720781834+722469342+723349901+721757923+718711238+717527858+720740242
3568+727098879+731516263+730542568+726357537+723060471+722117223+722233474
3558+721687379+719879432+717357147+715412002+715542915+718682063+724325915
3548+729920619+732194916+730423849+727189172+725098751+724429299+724085633
3538+723576418+723270830+723173954+722682768+721656633+720548659+719722037
3528+719855194+722173553+726866752+731604161+733106595+730788909+727345221
3518+725081994+723247265+720122032+716518031+715036169+716744399+720326930
3508+723852084+726530342+728810101+730877481+731350340+728798581+724724040
3498+722642596+723930707+726553757+727827579+726672701+723474755+719948703
3488+718612791+720337029+722644167+722317408+719420263+717109684+717767092
3478+720605663+723383415+725289361+726968266+728537129+729392552+729599246
3468+729711681+729392552+727716640+724567768+721020545+718836016+719329148
3458+721736303+723809743+724225972+723324542+722198165+721876867+722771939
3448+724597391+727138228+730201596+732595660+732762406+730762801+728123069
3438+726070875+725150443+725327064+725684494+725265946+724317088+723459943
3428+722347331+720680321+719623590+720844673+724479869+728489027+730244460
3418+729296126+727314624+725160692+722455877+719380166+717050810+716546009
3408+718180104+721034759+723080220+722781215+720775251+719101658+719012413
3398+719912422+720277931+719737073+719752483+721698975+725116630+728410105
3388+729972535+728658840+725074514+721902451+720869659+720694085+719880180
3378+719776347+722538015+727293903+730558278+730340812+728412574+728177379
3368+731097939+734997206+735961923+732807590+728389608+726000107+726460846
3358+728559122+730653583+731758340+731800382+731177310+730347545+729885459
3348+730414049+731898230+733741786+735566640+736756454+736064110+733143476
3338+729414247+726260736+723900410+722512805+722476524+723146874+723522781
3328+724130667+726089876+728609542+729732253+729110753+728094343+727996420
3318+729122422+730948773+732910301+734883797+736559934+736898513+735400044
3308+733242446+731873094+731644932+732547559+734428070+735986011+735727476
3298+733823027+731316153+729004301+728181868+730287475+734449091+737019701
3288+735500735+731585086+728545731+727562162+727810299+728790277+730753301
3278+732954961+733691815+732562894+730472623+727725093+724909787+724057506
3268+725793040+727345669+726226624+723990478+723740397+726519121+731704628
3258+737764410+742018114+741949740+737728876+732167612+727972107+726359781
3248+727411949+730107937+732476043+732938353+731436892+729011483+727123117
3238+727349933+730430656+735033487+738163807+737676287+734540356+731814894
3228+731256755+731542370+730257402+727588869+726579192+729247052+733623665
3218+735575093+733489311+729543813+726405938+724733990+723975591+723958535
3208+724956318+726697986+727933133+727363848+725252256+723377206+722971749
3198+723843631+725559491+727745142+728974378+727518550+724046658+721530658
3188+721616013+722722640+722466948+720545592+718393455+717253838+717051409
3178+716539127+714589419+711722870+709786179+709828146+711225699+713068732
3168+715083747+716782924+716992086+715063399+712054342+710011648+709859191
3158+710026011+708031344+703848034+700214334+699159772+699950188+700929194
3148+701774369+702962762+704254837+705018098+705414802+706010793+706492254
3138+705991867+704498036+702858255+701626625+700789304+700124565+699056164
3128+696925945+694110116+691969499+691192923+691066722+690696201+690241371
3118+690521600+691714256+692766424+692344958+690450907+688485340+687464741
3108+687028688+686511918+685857352+684852388+682624621+678922771+675110132
3098+672935328+672893211+674295254+676307725+678293790+679463405+679198586
3088+677882498+676571122+675784970+675430233+675685177+676763752+677986032
3078+678395303+678194520+678161605+677855567+676168957+673551293+671886527
3068+671769453+671440525+669498671+667227889+666556717+667149342+667201632
3058+665981821+663891400+661178730+658499499+657457655+658814215+661278972
3048+663109437+663822203+663698471+662796966+661098611+658822743+656462566
3038+654828396+654448149+654668009+654131489+652443159+650707250+650117618
3028+650451409+650426199+649395650+647902193+646498580+645218399+644308815
3018+644133765+644378386+644491345+644474588+644345695+643707512+642443041
3008+640906495+639279132+637542102+635848310+634347821+633039887+631849026
2998+630514311+628933329+627740598+627628611+628108651+627946693+626889625
2988+626002371+626082265+626582578+626518244+625828444+625176272+624938459
2978+625097537+625465440+625404846+624063809+621394191+618427961+616460524
2968+616242572+617526120+619065957+619538815+618664839+617074133+615320757
2958+613514904+611709986+610208823+609332528+609020020+608879606+608649012
2948+608338748+607913430+607205826+606267440+605521048+605234199+604870074
2938+603441362+600844981+598357781+597357343+597915108+598905783+599248551
2928+598749623+597748324+596374821+594608429+592803025+591436179+590464355
2918+589557651+588657791+587812728+587043557+586617641+586620035+586311865
2908+584905521+582853776+581441522+581219531+581521641+581489474+580962306
2898+579985469+578176063+575354249+572257031+569856720+568401564+567531216
2888+566771621+565794822+564667548+563671374+562743424+561654488+560609876
2878+559915513+559397546+558864954+558586782+558727084+558862336+558429686
2868+557300766+555791301+554274653+552853124+551488747+550359902+549701222
2858+549300104+548654141+547639227+546593306+545765711+545020441+544160043
2848+543282925+542574236+541914434+541088970+540261973+539718758+539228395
2838+538286307+536959409+535797723+534966612+534154202+533200145+532173636
2828+531039891+529763937+528452224+527168079+525990721+525180256+524760437
2818+524184643+522953087+521260418+519691368+518660782+518303128+518449863
2808+518545130+517965222+516689679+515426779+514740009+514227540+513022840
2798+511005506+508986938+507739335+507276314+507012880+506341819+505172839
2788+503981044+503170953+502596058+501963859+501392854+501148009+501028167
2778+500480726+499305388+497849447+496439362+495023967+493499540+492030881
2768+490871851+490038645+489278377+488313435+487119357+485983966+485207577
2758+484703224+484022962+482895875+481577580+480418924+479283982+477784839
2748+475954075+474270495+473103273+472407003+471832668+471041429+470040691
2738+469106645+468275908+467232418+465825550+464293081+462842713+461402145
2728+459898514+458499053+457458817+456839635+456444166+456004821+455373221
2718+454534106+453535425+452401044+451062439+449488639+447911622+446729925
2708+446154692+446026061+445871883+445160463+443755279+442067323+440547047
2698+439264173+438166074+437313306+436656758+436025943+435436086+435003960
2688+434631569+434132715+433491652+432728840+431774034+430670100+429618793
2678+428684858+427716887+426666365+425730560+425058527+424540074+424016309
2668+423489028+422956698+422260614+421287294+420132154+418982811+418016261
2658+417381856+417049336+416716780+416104368+415282720+414508238+413862050
2648+413245524+412565374+411747990+410760905+409782984+409143567+408920304
2638+408799078+408458480+407860581+407084939+406171577+405211535+404339466
2628+403574784+402816498+401989276+401116310+400290772+399610510+399120783
2618+398786842+398467713+397959882+397234474+396551220+396090256+395639241
2608+394962458+394225267+393664473+393125410+392338510+391419350+390745297
2598+390488221+390492747+390487361+390260469+389738837+389015299+388256825
2588+387573122+387018088+386626657+386357350+386114675+385868895+385595286
2578+385170155+384567394+384002934+383636975+383357756+383031895+382698291
2568+382435006+382250493+382077389+381760878+381252374+380853912+380961074
2558+381517417+381976436+381851620+381162717+380332429+379749229+379469861
2548+379295859+379042897+378686589+378297814+377936793+377670628+377610894
2538+377779922+377975955+377952690+377729427+377558903+377589499+377689330
2528+377625033+377348806+377053803+376924386+376895922+376765046+376498394
2518+376292150+376318557+376522370+376697682+376697308+376525176+376239149
2508+375833206+375307496+374803069+374471822+374205806+373738933+373048385
2498+372420712+372110261+372106184+372158736+371925000+371258391+370438351
2488+369936467+369916643+370101193+370120232+369905497+369743165+369921132
2478+370358381+370707097+370736234+370432778+369883728+369298509+368966812
2468+368968982+369079772+369060434+368862119+368539287+368178865+367874174
2458+367599855+367225967+366778506+366471683+366366279+366270600+366092409
2448+365984087+366011467+365993251+365812142+365594527+365458116+365354545
2438+365252320+365210129+365198683+365075625+364770523+364324109+363788113
2428+363231919+362770469+362501125+362468696+362644793+362851860+362831849
2418+362516647+362137411+361997334+362206869+362618086+362916568+362836075
2408+362407204+361961800+361809380+361947287+362148333+362264995+362345862
2398+362488595+362675912+362784683+362723415+362530487+362305503+362043415
2388+361582264+360753023+359543199+358022661+356090832+353458319+350027609
2378+346152618+342306315+338601773+334853430+330985097+327158468+323578780
2368+320339914+317526067+315424762+314366834+314280431+314853906+316301057
2358+319358140+324268692+330497876+337687101+345810673+353977782+360293667
2348+363247965+362876172+360851806+359003799+357420012+355005413+351377473
2338+347163940+343060262+339209733+335442240+331910914+329187697+327632299
2328+327001373+326810651+326810614+327062154+327723602+328829743+330294736
2318+332019535+333825500+335407193+336580960+337491667+338421038+339517716
2308+340790827+342149481+343365963+344214767+344723794+345126670+345566239
2298+346023276+346486484+346993454+347534275+348028229+348343393+348375448
2288+348245545+348283098+348616403+348973123+349070110+348955730+348808022
2278+348676660+348582814+348609820+348731868+348734561+348427364+347834552
2268+347158255+346672754+346624055+347039984+347614955+347937113+347866495
2258+347605716+347415368+347326497+347148006+346768358+346380182+346276424
2248+346490935+346819714+347109331+347328330+347458121+347507456+347563599
2238+347715309+347981886+348340513+348732654+349036484+349148920+349135492
2228+349193618+349412878+349691873+349936007+350169407+350415112+350667138
2218+350983873+351384842+351712947+351843038+351927907+352201889+352659711
2208+353133579+353567912+354044473+354601527+355134530+355476850+355594073
2198+355678680+355970392+356508221+357157924+357827638+358503374+359121322
2188+359586886+359902462+360143791+360366455+360657307+361160986+361904834
2178+362704564+363381572+363949286+364466505+364899640+365286433+365847227
2168+366752360+367898486+369063912+370222830+371602056+373456834+375881794
2158+378835269+382210396+385790684+389248399+392342512+395117833+397827772
2148+400647454+403531994+406393830+409279043+412217819+415047637+417629132
2138+420122354+422836183+425900673+429173763+432389363+435481419+438810877
2128+442794264+447258739+451528377+455165331+458192342+460586743+462034792
2118+462306381+461550638+460093687+458160474+455884643+453389513+450762274
2108+448116781+445730646+443921314+442717886+441778491+440657313+439075995
2098+436936351+434178946+430740269+426636853+421990671+417002881+411964558
2088+407146581+402608084+398286829+394250590+390625904+387393547+384525315
2078+382148044+380314363+378809273+377423389+376247827+375493543+375142695
2068+374952423+374723175+374387776+373886416+373164598+372300459+371462540
2058+370740797+370137774+369676960+369398601+369286801+369291926+369395197
2048+369596018+369892181+370341251+371070474+372144448+373509797+375173666
2038+377322773+380141071+383585545+387414081+391373455+395315512+399124598
2028+402519587+405018457+406208906+405997051+404615431+402534212+400233656
2018+397820778+395014898+391733541+388446761+385700017+383524390+381498453
2008+379241249+376746269+374326546+372298103+370712034+369382779+368096539
1998+366776636+365581773+364812864+364521601+364300956+363715288+362790106
1988+361821499+360963344+360203562+359490609+358784875+358134798+357653524
1978+357345429+357095048+356835990+356590210+356425259+356473173+356791367
1968+357110272+357004718+356447066+355860500+355526260+355313283+355060583
1958+354836946+354691670+354501061+354196183+353873837+353629965+353506757
1948+353636697+354235980+355288222+356238652+356283200+355254410+353897738
1938+352989238+352621111+352442882+352215280+352008250+352000844+352184609
1928+352424629+352836706+353667293+354700236+355430469+355891358+356398216
1918+356577418+355787750+354394647+353451249+353398996+353806735+354037030
1908+353852891+353478479+353220580+353133130+353064121+352905005+352754530
1898+352861991+353279716+353684013+353930766+354451613+355415732+356014155
1888+355473558+354236878+353227725+352745927+352584530+352513799+352428706
1878+352391302+352524945+352847216+353528900+355123384+357856065+360549397
1868+361109743+358989623+355948735+353820200+353012952+352943157+352980112
1858+352911663+352876653+353040407+353355234+353712178+354204636+355137411
1848+356926694+359695881+362369351+362840414+360637819+357888494+356426606
1838+356260122+356531074+356926357+358129673+360758334+363894078+365517924
1828+365196925+364443913+363903204+362832410+361192667+360048710+359989874
1818+360586352+361224310+361870647+362932839+364506228+365955698+366513575
1808+366218684+365905390+366505384+368477122+371378307+373861991+374751377
1798+374416389+374567276+376682159+380558385+383726894+383616628+381189012
1788+379497951+379938305+381826559+384114921+386443678+388562376+390065783
1778+391288212+393483775+397668470+403325638+407930264+409108968+407523049
1768+405237231+403614694+403739361+406121867+409556841+412024180+413336266
1758+414640161+416089182+417622025+420397346+425331313+431075108+434802317
1748+435533560+434874095+434677688+435878909+438487372+441507800+443646920
1738+445382492+448930088+454857349+459562591+459442450+456796659+454847624
1728+454173197+454742220+456659723+459590195+463555928+469714980+478772448
1718+488344667+493261315+491918820+488296191+486059260+486472721+489637827
1708+495074238+501357283+506762275+511727136+518621733+527676770+534946563
1698+537830654+538020778+536421842+533966585+533488752+536539552+542272088
1688+549881283+560275449+572928129+581535555+581483228+578311464+577974307
1678+581960312+589190720+597015323+603338951+609054282+615465996+620821428
1668+622822902+623561402+626746706+632928050+639301350+643272432+645947847
1658+650431809+659079482+672753022+688103522+695617787+694996959+695897118
1648+700865383+705480558+705502402+703182247+702408064+704269873+708790117
1638+715740931+722756453+724745735+720689821+716175188+715032429+716732729
1628+718857112+720071462+720663788+720017377+716952887+713194932+711824608
1618+712656019+711755561+706797469+700739632+696388304+693502679+690764425
1608+687569920+684326117+681656013+679774305+678527862+677640870+676930573
1598+676438788+676208306+675976702+675430308+674627698+673747364+672651957
1588+671154087+669502786+668129021+667078050+666345011+666737302+669485804
1578+674483918+678861429+679282745+677595686+678173948+681749522+685376639
1568+686748235+687528926+690084425+695157870+703837860+718339968+737206122
1558+749034834+748917461+747195018+749843428+756376442+764749721+773403304
1548+781844358+790821184+801299771+813143445+824976122+833410294+833537841
1538+827465342+822865278+822446506+824271360+825665174+826658243+829302689
1528+834108547+839354947+843740687+848128820+853065816+857065774+859176542
1518+860083060+860005335+859324362+859850857+863252728+869910148+879373147
1508+889063637+891995642+885199006+877224825+874094954+875381868+879057011
1498+882881769+884402905+883189078+882117910+883695450+887051764+888872429
1488+887290325+884126865+882135714+882391032+884110707+885939675+887883922
1478+891348333+896970940+903323144+907447132+906671753+901976385+897877008
1468+897500876+900591249+904289732+905603801+905240236+906733394+912109884
1458+919076782+921003375+915428644+907918345+902693489+900293515+899786769
1448+899819385+899577607+899282941+899260049+899522474+900738246+904036284
1438+908766438+911426443+909761751+906601583+905113512+905345715+906180043
1428+907384967+909109056+910612088+911173519+911974707+915020420+919350503
1418+920312378+915912799+909716418+905230062+903136799+902495324+902426950
1408+902905569+904029252+904859466+904074436+902002343+900488763+900858910
1398+902757151+904462537+904178044+901574968+898391160+896636924+896293857
1388+895156184+891338683+886365106+883725897+884729215+887923645+891671875
1378+895768559+900378496+904523356+906751123+907335894+908203287+910343529
1368+913026052+915480486+917792936+919973724+921624800+922831146+924174689
1358+925779385+927238805+928217137+928610774+928397797+927764028+927370092
1348+927914915+929288381+930796350+932326463+934508074+937483468+940233691
1338+941714730+942212724+942734431+943480860+943676407+942825996+941588530
1328+941101159+941765001+943073234+944467571+945907691+947473711+948815683
1318+949395217+949117157+948540391+948422046+948992528+949764167+950175234
1308+950198500+950102073+950064370+950207028+950472145+950427111+949722499
1298+948684770+947995045+947842437+947809522+947384840+946122164+943647008
1288+940186787+936875058+934731001+933359779+931454656+928514647+925295380
1278+922595353+920278191+917869613+915695034+914537163+914260151+913792081
1268+912449959+910284431+907474213+904400522+901728547+899676054+897811103
1258+895661734+892884206+889340799+885617779+882812422+881502767+881398112
1248+881683577+881384048+880073420+878428029+877556447+877877820+878958789
1238+880113817+881002305+881883313+883229848+885072282+887000147+888784680
1228+890623822+892615123+894278244+894995049+894827705+894411999+894197826
1218+894243084+894528101+895258521+896905932+899732384+903197692+906282230
1208+908486433+910158605+912092080+914883148+918174978+920816730+922286099
1198+923317395+924790579+927058818+930369274+934471419+937893862+939112626
1188+938502197+938087613+939560049+943068821+947454710+951174588+953205612
1178+953606879+953422553+953654232+954309172+954901573+955455447+956341991
1168+957917362+960783836+965168005+969665133+972204848+972618459+972510511
1158+972889486+973689253+975131467+977877800+981978149+986614793+990592832
1148+992979865+993725321+993425418+992567226+991548124+990830570+990558720
1138+990633976+991349061+993351434+997012363+1002103912+1007469330+1010822203
1128+1010633314+1008495764+1007431253+1008415870+1010287254+1012172628
1120+1014328954+1016949237+1019575205+1021717018+1023284086+1024061186
1111+1023364579+1020939095+1018059156+1016994121+1019231688+1023977327
1103+1028352294+1029982574+1029279907+1028244497+1028258860+1029482785
1094+1031120770+1031918293+1031363895+1030722046+1032081149+1036421256
1085+1042594521+1047495834+1048562066+1046607495+1044606918+1044226746
1077+1044928216+1045313774+1044820568+1044759376+1046339759+1048242712
1068+1048294704+1046896402+1046625299+1049017120+1053043110+1056205971
1060+1057100594+1056967811+1057918914+1059831891+1060396613+1058502711
1051+1056215621+1056414834+1059470047+1063146537+1065329644+1066416448
1043+1068450389+1071834157+1073741823+1071180638+1065654309+1061703425
1034+1060741326+1060278641+1059342500+1060088406+1063291589+1066476668
1025+1067296334+1065933565+1063943686+1062609643+1061982382+1061262360
1017+1060689933+1061690708+1064378467+1066631070+1066440162+1064169455
1008+1061870470+1060728459+1059931011+1058282478+1056389474+1056049250
1000+1057591780+1059148076+1058776582+1056535498+1054062961+1052519158
991+1051505741+1050096816+1048134690+1046235253+1045134460+1044755560
983+1043831763+1041293095+1037855840+1035107262+1033154861+1030503010
974+1026190657+1021018615+1016738205+1014149491+1011882001+1007807086
965+1001736158+995626554+991034720+987614147+984023312+979488107+974621729
955+970975312+969686453+970467444+971734009+971666309+969567809+966363728
945+963459476+961257443+959245645+957383985+956666880+957771413+959615867
935+960215150+959022344+957223523+955787967+954703632+954066347+954397595
925+955517463+956182277+955399043+953446492+950969466+948037236+945171136
915+944232377+946510490+950547103+953378941+953542545+951805814+949543335
905+947634323+946435832+945659479+944544997+942712213+940620595+938975354
895+937866856+936870944+935992854+935847428+936410429+936451124+935296919
885+934284923+934871564+936160273+936015146+934107181+932159044+931488918
875+931810815+932155677+931876122+930703365+928547337+925791204+923623732
865+923330112+925057567+927680468+929871729+931100069+931571880+931502309
855+930960927+930406454+930315562+930079171+928946884+928105674+929475848
845+932415858+934030353+933046934+930915145+929019822+927582620+926863121
835+927035777+927399341+927264688+927048793+927498312+928554369+929655835
825+930539312+931191035+931597539+932056034+933226622+935599965+939081132
815+942651544+944478643+943434629+940424151+937469778+936212488+937383001
805+940171451+942099091+941475795+939692010+939008344+939340340+939364802
795+939480754+941292965+944721094+947499594+947749975+945991026+944023888
785+942801010+942416798+943291972+945706758+948301456+948750376+946413389
776+943018251+940608926+939537981+938332159+935609465+932497248+932058054
766+935620836+940993361+944643818+944900632+942682141+940063803+938740533
756+939322162+941510655+944287659+946128672+945965667+944111862+941842352
746+940244987+939722905+940344107+942346554+946027458+950868401+954729216
736+955214418+952420956+948792418+946419898+945997759+947786032+951561492
726+955318999+955965335+952383851+946430072+940388842+935473989+932753689
716+933645170+938778012+946270582+951660463+951581616+947930037+945783735
706+946650679+946923502+943527765+937918623+933179867+930459342+929601076
696+930855897+933515753+933927718+928371540+918535774+910545959+908012378
686+908845285+908788057+906242956+902476323+898807165+895812620+893944677
676+893270736+892998586+891573429+887682915+882576779+881250367+885759315
666+889184077+887663614+884971891+884741783+885700890+884201523+879113715
656+872312890+866490248+863465331+863268363+864908069+867701232+870197708
646+869886134+866412597+862344416+859657480+858005954+856119309+853078309
636+848704539+843649646+839168302+837052671+838666868+842895661+846439218
626+847351346+846665137+845731838+844388819+842073901+838649064+834707681
616+831552375+830012238+829589575+829683309+830518685+830125197+824281534
606+814171150+807815953+810328663+818277484+825536355
##END=
