##TITLE=<SNM>
##JCAMP-DX=4.24
##DATA TYPE=INFRARED SPECTRUM
##DATE=3/5/2025
##SAMPLING PROCEDURE=Instrument type and / or accessory
##ORIGIN=Admin
##XUNITS=1/CM
##YUNITS=ABSORBANCE
##RESOLUTION=4
##FIRSTX=4497.3318
##LASTX=599.83466
##DELTAX=-1.4281778
##MAXY=1.7876906
##MINY=0.22169551
##XFACTOR=1
##YFACTOR=1.6649167e-09
##NPOINTS=2730
##FIRSTY=0.24397232
##XYDATA=(X++(Y..Y))
4497+146537255+145738155+145396646+145298661+145062119+144634215+144099330
4487+143417772+142813515+142985473+144349655+146283842+147614990+147837158
4477+147382681+146698670+145733725+144560430+143752407+143738946+144347140
4467+145185460+145971574+146453008+146552524+146545812+146576716+146231762
4457+145227454+144171280+143786372+143742615+143304231+142738075+142897127
4447+143754886+144436785+144383236+143704228+142808512+142211514+142288279
4437+142893063+143484468+143689747+143555379+143372914+143307864+143112171
4427+142379937+141217328+140391503+140521020+141274027+141735592+141516566
4417+141053953+140824697+140817196+140872105+141014089+141146936+140768436
4407+139497147+137844145+136922169+137288094+138498827+139717006+140324503
4397+140204876+139867663+139997216+140626479+141112191+140983391+140470479
4387+140222525+140633997+141311465+141333384+140240595+138490181+136857764
4377+135876019+135804490+136556728+137670531+138704849+139482335+139873194
4367+139749038+139143117+138143024+136769445+135190156+133897243+133467021
4357+134057933+135112943+135763123+135700329+135423315+135521685+136015963
4347+136493701+136625608+136432232+136194240+136170424+136352898+136470825
4337+136211988+135502469+134672133+134230670+134308894+134448005+134163258
4327+133617973+133430585+133810078+134254754+134268126+133969703+133711099
4317+133564657+133517106+133620962+133693789+133457811+133157124+133447545
4307+134523508+135785364+136474682+136416336+136080395+135969324+136038481
4297+135876959+135398093+135051537+135277679+135977621+136633117+136819404
4287+136512040+136001741+135658926+135734572+136138687+136391706+136105437
4277+135553834+135392195+135805143+136368713+136730709+136947900+137148937
4267+137343575+137562629+137770414+137723722+137296283+136807089+136698596
4257+137096025+137885763+138843486+139536671+139602194+139245578+138947316
4247+138734196+138337170+137925913+137966734+138416181+138725085+138643755
4237+138459249+138442351+138535522+138602648+138632067+138687861+138854870
4227+139168616+139521115+139736499+139730843+139528472+139249238+139150930
4217+139480482+140242036+141215216+142117958+142691051+142753737+142290910
4207+141566292+141123218+141317211+141693160+141338512+140095622+138861860
4197+138499140+138972877+139664567+140107624+140332092+140644898+141105219
4187+141372040+141194353+140793407+140551745+140591162+140857400+141352949
4177+142028753+142608898+142789860+142580642+142254644+142022344+141926444
4167+141959533+142086060+142207137+142261724+142319747+142485557+142769704
4157+143053458+143102352+142720631+142016822+141390960+141163440+141334959
4147+141721398+142160373+142615852+143168664+143735572+143854107+143160483
4137+142050994+141371368+141443927+141852194+142182175+142536626+143173595
4127+143919451+144265730+144026888+143560177+143232764+143017998+142798219
4117+142724712+143027333+143646214+144221132+144419833+144243275+143967513
4107+143773180+143576868+143363006+143441427+144005990+144648123+144788362
4097+144415797+143942372+143558565+143212600+142965407+142928944+143042100
4087+143154021+143193106+143204527+143294726+143475920+143617171+143677065
4077+143823399+144142228+144419609+144410391+144162115+143893218+143682623
4067+143486866+143359605+143385363+143468805+143464008+143422488+143463847
4057+143557563+143620411+143640092+143619032+143554977+143445848+143298467
4047+143285382+143713832+144515134+145028985+144743647+143964971+143384799
4037+143292891+143477164+143681925+143915835+144253191+144475521+144267467
4027+143832465+143850142+144615777+145596233+146053297+145794406+145173118
4017+144654406+144470383+144488051+144404493+144190192+144167145+144494710
4007+144906450+145210986+145636589+146395611+147320460+148084217+148430165
3997+148221099+147581257+146864122+146357949+146219321+146574013+147402980
3987+148450463+149325890+149565224+148882646+147662578+146830765+146995751
3977+148011399+149313458+150275701+150387434+149582928+148402947+147545555
3967+147319091+147670248+148493728+149636100+150754262+151465723+151656557
3957+151509364+151281763+151166575+151386461+152256589+153706111+154803070
3947+154710705+154108095+154308184+155189553+155407900+154545039+153616682
3937+153580738+154629063+156478206+158403711+159282217+158532539+157010701
3927+156146354+156289108+156472943+156089396+156106580+157689225+160286381
3917+161817170+160832749+158081024+155486679+154259245+154445944+155982908
3907+159474357+165251965+171860429+176515015+177674500+175713337+171448885
3897+166350661+162943718+163099575+166077791+168423342+167622756+165949303
3887+166796626+169628830+171550612+172462036+173920705+174301889+171524084
3878+168223647+168056961+170908676+174696356+178357320+180711535+180119110
3868+178028995+177539443+178407047+177669273+174558757+171593018+171149218
3858+174362159+182010659+192975617+199778852+194772098+183616700+174552599
3848+170271501+170602314+174215252+179310559+184626181+189644893+193304210
3838+193793942+191143318+187649451+184655233+181890477+179491011+178437585
3828+178812182+179814825+182117541+187422513+194107893+196773643+194632172
3818+192262563+190458331+186492956+181048864+177823465+178826538+183464566
3808+188964704+192447042+194796746+198602380+202596789+203103239+200900084
3798+199166737+197844379+195894314+194483171+195179595+197816204+201534968
3788+206171725+211670699+217289873+222762909+229345095+238039199+247592977
3778+256158898+264276723+273849762+285885419+300060238+314287828+325277613
3768+331639913+334329595+334550662+334373987+336411172+340906160+345266324
3758+347934311+351211764+358753901+372196442+388857329+401736300+408007273
3748+413525866+423222255+435568552+444514529+449143626+455161347+466365612
3738+482594174+500410124+514969028+524211862+529974506+535031739+541312271
3728+549707638+559332391+567601275+572788822+574880459+573838489+570180227
3718+566224751+564950365+567953014+573394886+575556549+570673628+562394397
3708+555462370+550835064+548045355+546744298+546541847+547373990+549184774
3698+551279597+553597099+557538648+564226016+572757854+580219548+583164201
3688+580943432+576425388+572378227+570305457+570865733+573721601+578592242
3678+585615417+591828895+591520152+586549914+584083948+584037121+580053076
3668+571125787+562983528+558788082+557046680+555538195+554625035+556128579
3658+559505342+561559747+561755253+563799848+569977490+577833739+581527694
3648+577657637+569086096+560134784+553521417+550363215+550128257+551513015
3638+553710622+556267842+558665000+561468134+566520068+573808130+578645227
3628+576827283+572474996+571009543+573532575+579165048+585786757+590373359
3618+592423145+594142494+595528255+594687984+592951809+594096383+598058948
3608+600638974+600166552+599824694+602475032+607262115+611435079+613870865
3598+615130107+615071968+613398228+611904565+613723511+620184118+629073280
3588+635026096+633794348+627554270+621568734+618926952+619704178+621727329
3578+622569784+621747736+620319444+619097219+618762485+620445318+624060726
3568+626845351+626290231+624232282+623792582+624662889+624098460+620873848
3558+616715133+613587541+611917954+611249991+610942967+610532480+610219441
3548+610479996+610811579+610141110+608600548+607302713+606463767+605033613
3538+602181540+598704321+596480366+596355996+597312367+597779526+597131217
3528+595866103+594928348+594942203+595674213+596187984+595436355+592999925
3518+589710658+587376688+587461213+589777748+592354015+592858513+590667638
3508+587516202+585547038+584836544+583731100+581583113+579625154+578840661
3498+578502311+577431128+575928479+575403144+576375339+577706326+577676074
3488+575603734+572600440+570519078+570111347+570471678+570168879+568826257
3478+567429219+567017156+567431116+567674093+566990879+564949148+561525307
3468+558028040+556417560+556800302+557187089+556344527+555059651+554231982
3458+553717567+553364468+553419457+553711338+553758701+553664153+553705788
3448+553057265+550420495+546355577+543249393+542558231+543303488+543507371
3438+542484268+541287676+541000020+541118053+540207650+538063995+536089353
3428+535161157+534597409+533705406+532941462+532879921+533182506+533211719
3418+532910745+532766541+533078040+533298929+532431199+530262377+527815313
3408+526303535+525961856+526248689+526778713+527315612+527222853+526073947
3398+524598793+523827724+523451999+522233784+519898489+517516798+516162577
3388+516078661+516919254+518055916+518617838+518014853+516619425+515310206
3378+514446736+513907475+513657553+513586346+513428609+513298081+513605965
3368+514383370+515290730+515889671+515638459+514354694+512679916+511375350
3358+510506081+509915375+509808511+510352927+511283630+512080761+512273224
3348+511775420+510985198+510258737+509539435+508767830+508142684+507825850
3338+507963574+508820027+510140166+510763200+509771744+507696360+505829227
3328+504842354+504685763+505058159+505360887+504990747+504104329+503319800
3318+502641383+501622576+500407905+499613745+499404671+499345314+498947858
3308+498222184+497764691+498059149+498712864+498910089+498598661+498636144
3298+499738831+501695429+503606167+504753211+505110965+504942846+504336746
3288+503483014+502852533+502659247+502710442+502954242+503435328+503739094
3278+503298749+502188186+501041750+500333010+500031643+499840755+499711552
3268+499983241+500679021+500998504+500152433+498434731+497013528+496770980
3258+497442488+497860565+497205991+495911019+494947094+494596680+494448968
3248+494189164+493848452+493432488+492658125+491222315+489315050+487602360
3238+486623936+486402725+486510592+486367283+485818034+485395267+485455161
3228+485347080+484228425+482282711+480378095+479129234+478825182+479469230
3218+480441927+480788653+480127062+478924492+477794560+476949922+476414205
3208+476183866+475945829+475147122+473733151+472440435+471987775+472182493
3198+472051500+470827843+468656407+466211348+463901830+461914981+460643315
3188+460300849+460426294+460380398+460047705+459606358+459056177+458311494
3178+457285312+455903847+454414623+453314047+452680810+452102921+451386949
3168+450718699+450129819+449412809+448457547+447244058+445759881+444214093
3158+442993694+442225274+441689128+441248926+440991736+440873345+440582108
3148+439864383+438798856+437606166+436326374+434902021+433394359+431891710
3138+430459552+429359764+428905887+428920350+428787352+428176096+427290144
3128+426371435+425428811+424515400+423871351+423645594+423691705+423771039
3118+423819548+423797782+423421555+422386316+420764380+418968919+417507942
3108+416756026+416680774+416838081+416819250+416576666+416200548+415639878
3098+414796421+413715035+412614710+411802973+411470924+411505686+411599233
3088+411562859+411433727+411278390+411009672+410436365+409433274+408036272
3078+406477989+405147933+404352986+404061606+403975829+403848093+403600139
3068+403219546+402709533+402070604+401267029+400370444+399666752+399304273
3058+398930947+398105175+396985733+396144353+395800168+395649735+395299249
3048+394513717+393255155+391831732+390829178+390604244+390913166+391183065
3038+391094853+390752637+390310395+389656286+388553885+386942976+385062847
3028+383380444+382308008+381856816+381680571+381510125+381335455+381170487
3018+380900087+380403643+379689568+378880945+378103325+377391864+376712087
3008+375998120+375139734+374120855+373213459+372711967+372424884+371871697
2998+371035364+370382258+370081105+369788867+369254188+368573122+367820204
2988+366900242+365814917+364821027+364273210+364235834+364207230+363571129
2978+362438297+361534624+361200965+361082358+360731478+359961770+358829440
2968+357738782+357216132+357268938+357333736+356915516+355922163+354549398
2958+353229330+352478131+352486365+352936447+353238674+352936698+352065030
2948+351086141+350294129+349497535+348496413+347537070+347018573+347019289
2938+347284892+347452474+347255715+346714592+346103194+345606356+345114495
2928+344465648+343701991+342892508+341881255+340543753+339233674+338545161
2918+338564243+338732755+338522571+337899931+337121881+336430827+335941614
2908+335582966+335192062+334780000+334541318+334523060+334485720+334199604
2898+333718483+333192861+332522213+331457868+330076116+328879381+328294081
2888+328235798+328263185+328024218+327507081+326997141+326792935+326852758
2878+326803461+326400850+325771551+325085651+324345371+323651130+323254712
2868+323147204+322971066+322522380+322001986+321613480+321246526+320759891
2858+320255285+319807458+319260285+318619530+318274665+318439991+318755214
2848+318786933+318506938+318005876+317235666+316273997+315423058+314874739
2838+314535029+314209067+313771443+313205976+312655187+312345872+312293210
2828+312206179+311878426+311476424+311200260+310918833+310401697+309666214
2818+308908642+308297995+307871075+307476555+306888248+306080591+305288973
2808+304732170+304361922+303942485+303350669+302689293+302044958+301347387
2798+300644984+300255476+300370610+300693887+300689806+300115407+299200349
2788+298321987+297605961+296966155+296425301+296084732+295812255+295330203
2778+294623862+293943475+293420879+292940510+292364625+291685904+290966710
2768+290259617+289588950+288946584+288320650+287752265+287302738+286937127
2758+286528931+286010828+285413051+284743405+283984222+283245392+282740248
2748+282515261+282326611+281892853+281182091+280353813+279540625+278819731
2738+278286359+277982736+277780947+277461984+276928666+276276633+275653725
2728+275130950+274713929+274362513+273982957+273516120+273021037+272574874
2718+272170294+271793961+271460623+271113252+270668003+270179686+269779635
2708+269442127+268974269+268292559+267621105+267280858+267261096+267187992
2698+266801741+266236382+265738309+265369780+265076754+264823788+264580489
2688+264306509+263993291+263677621+263402925+263151803+262825787+262342267
2678+261740015+261132358+260590949+260134082+259777510+259513697+259273047
2668+258991907+258693278+258412782+258091295+257642358+257093198+256589898
2658+256290178+256240487+256293722+256196005+255840310+255385789+255066718
2648+254920652+254734061+254260529+253508703+252768960+252309910+252123211
2638+252022200+251896021+251784324+251764419+251831796+251870567+251740379
2628+251421863+251047230+250736555+250463183+250148641+249801323+249478297
2618+249203189+249002366+248925127+248959871+248990355+248894643+248672376
2608+248427717+248217103+247997629+247772069+247649846+247664363+247665097
2598+247496513+247185605+246879655+246662919+246490755+246296126+246110322
2588+246025565+246065679+246148718+246143259+245961697+245674489+245494985
2578+245555792+245757886+245901803+245874416+245667937+245328371+244944841
2568+244630442+244451548+244381325+244382256+244539581+244996644+245702825
2558+246345853+246624989+246536114+246327237+246202562+246126450+245931303
2548+245565512+245162275+244871701+244685038+244450151+244053125+243563967
2538+243156505+242892835+242679536+242445044+242234305+242091802+241978475
2528+241864451+241795625+241800906+241806759+241697890+241439626+241111963
2518+240821389+240617095+240537653+240669041+241016448+241373915+241501418
2508+241391743+241213618+241061216+240906863+240727467+240541556+240347267
2498+240137387+239994365+240053776+240289700+240459573+240381385+240143062
2488+239926183+239757868+239532182+239169274+238694167+238222497+237879117
2478+237709173+237674321+237689411+237626009+237358419+236873932+236302666
2468+235817929+235520445+235378443+235254180+235027062+234700509+234358365
2458+234046633+233758279+233516143+233393080+233397966+233387405+233195139
2448+232855537+232571246+232447359+232402966+232348729+232287761+232224448
2438+232106271+231880442+231567153+231285028+231167119+231203779+231239973
2428+231176087+231066467+230983607+230917609+230877566+230975355+231284008
2418+231665872+231882572+231872136+231783172+231740122+231709048+231599839
2408+231408038+231254437+231295625+231550291+231833114+231934859+231866659
2398+231857583+232088030+232498947+232937215+233435413+234249711+235665258
2388+237877113+241018775+245207759+250571980+257267134+265434525+275077034
2378+285935396+297540590+309500458+321700869+334083109+346230750+357275346
2368+366237791+372569303+376471472+378511521+378895659+377389036+373750322
2358+368013060+360506831+351642658+341935206+332745178+326287899+324254295
2348+327110950+334298234+344011950+353259832+359591666+362525543+362901304
2338+361798974+360032369+358112394+356306051+354499456+352235154+349208375
2328+345592573+341729354+337734891+333519361+329004683+324211084+319187073
2318+313950481+308569755+303283185+298403218+294007898+289826342+285569857
2308+281269408+277115275+273103700+269100466+265191655+261699096+258817201
2298+256408015+254181768+251989890+249914023+248076730+246413301+244745755
2288+243062958+241549480+240334647+239383467+238606671+237929292+237295518
2278+236701213+236176899+235717115+235284682+234863705+234465158+234104093
2268+233778847+233466542+233179620+233008780+233016531+233108896+233115716
2258+232966035+232684339+232279097+231758524+231200181+230699262+230312171
2248+230099839+230098442+230207472+230259401+230226572+230217282+230278518
2238+230343424+230362381+230369881+230410962+230490600+230633032+230902411
2228+231289593+231678134+232015606+232398993+232899070+233445420+233964668
2218+234493243+235091181+235756853+236474042+237274449+238213045+239294915
2208+240436643+241516239+242497133+243492080+244627703+245868759+247088621
2198+248249234+249363717+250403862+251401135+252492312+253732921+254978577
2188+255998870+256661052+257038549+257332058+257667114+258062099+258537260
2178+259069970+259525422+259779587+259797917+259563066+259082822+258454096
2168+257814021+257247551+256743643+256206906+255534181+254672967+253643080
2158+252564558+251579886+250728965+250016752+249506024+249233261+249211333
2148+249480248+250015803+250943731+252924172+256664990+262008590+268174274
2138+274741549+281747844+289160402+296844774+304776849+313004599+321560424
2128+330409024+339468131+348748233+358285095+367908738+377305514+386186764
2118+394274284+401328498+407118708+411351422+414070389+416007584+418053325
2108+420672373+424095140+428578994+434157122+440272686+445861017+450033444
2098+452635272+453913023+454017453+453087789+451287674+448569316+444612873
2088+438904037+431040305+421127503+409500256+396301337+381853415+366862007
2078+351988668+337853927+325147192+314139793+304618969+296496436+289855520
2068+284545679+280237283+276600860+273338461+270385556+267872137+265780213
2058+264034891+262684465+261623324+260665378+260018196+260074492+260926255
2048+262547332+265058585+268659065+273660431+280391207+288902496+299162902
2038+311341063+325377746+340635796+356209998+371093898+384258520+395207851
2028+404156441+411512775+417611727+422629257+426471676+429062191+430403095
2018+430091882+427550341+422899622+416884836+410060747+402498168+394017381
2008+384538909+374301397+363723889+353174914+342968083+333346552+324359369
1998+315975243+308393081+301972712+296681112+291857101+286865222+281800668
1988+277177174+273265446+270056228+267453595+265269181+263333258+261666911
1978+260344696+259300470+258378378+257445850+256527642+255922472+255899381
1968+256154262+255953171+255011317+253827040+252994610+252630430+252564307
1958+252677526+252873032+253001931+252998942+252955086+253019598+253310315
1948+253909453+254915533+256334105+257658271+257892209+256673528+254948200
1938+253844224+253556318+253668104+253880526+254133617+254416815+254704991
1928+255106510+256023071+257709269+259587733+260815739+261580346+262561741
1918+263325507+262863360+261557505+260892871+261588992+263071270+264286371
1908+264653593+264419835+264209024+264318609+264607590+264932174+265415765
1898+266243023+267257874+267992730+268412472+269174662+270462509+271204472
1888+270468917+268923665+267772809+267322583+267252003+267289879+267254133
1878+267044790+266771812+266730857+267486048+269808024+273743220+277468392
1868+278191023+275422633+271621528+269048752+268066157+267949072+268030016
1858+268047004+268004133+267989616+268097912+268535536+269597106+271453141
1848+274257528+278063788+281683421+282485976+279733232+276192717+274367399
1838+274226901+274489926+274729717+276008507+279331802+283657400+286278149
1828+286222480+285156505+284069463+282376391+280191799+278760088+278677299
1818+279342936+280027869+280824552+282343562+284575412+286399906+286718279
1808+285877418+285296395+286143808+288697825+292190528+295002558+295879077
1798+295416858+295702652+298389524+302984216+306277958+305267099+301526890
1788+298920140+298939651+300487534+302229294+303932891+305500589+306480410
1778+307294367+309549111+314493501+321324857+326608635+327182873+323999468
1768+319884286+316705606+315900921+318095985+321672300+323949562+324668791
1758+325375563+326315645+327386183+330077692+335685964+342581331+346976508
1748+347384990+345885205+344873272+345389048+347390539+349896673+351653004
1738+353318330+357468095+364596308+369755357+367935660+362187014+356961269
1728+353367914+351695535+352049708+353709413+356497762+361883177+370933082
1718+380979205+385615533+382374847+375850229+370620402+368511259+369983442
1708+374602943+380427128+384982260+388677074+394470363+402703089+408832007
1698+409930756+407629400+402497273+396028037+392269212+393019624+396885170
1688+402735560+411658232+423011641+429418047+425683065+418349358+414186383
1678+414946353+419523610+424846948+428525938+431901985+436531940+439738079
1668+438363917+435449015+435847151+439866745+443769846+444785789+444880338
1658+447992214+456908047+472542502+490129437+496746743+492885852+491987692
1648+497022764+501486534+499379503+494362080+492404157+495164223+502431593
1638+513689344+526011726+532439362+530351484+526748140+527576382+533343357
1628+541640166+550299705+559072158+567698975+574709082+580383227+587697961
1618+598257640+608706804+613813369+614705014+615977216+619112685+622762748
1608+625331783+626683032+627968194+630254550+633630812+637713344+642544318
1598+648398825+655015451+661613676+667701315+673526752+679499687+685507277
1588+691187365+696427395+701085597+704765589+707538257+710691984+716236675
1578+725141231+734994068+740935713+743397991+748081755+757741986+769726377
1568+779576636+787177199+795532793+806531886+821727141+843995477+872487351
1558+892111400+893238252+888255484+885085576+883626137+882381430+880609311
1548+879109204+879652868+882585134+886494320+890248276+891480812+885111065
1538+873147224+863528235+857857384+852462267+845093976+838853469+837573892
1528+840990465+845766164+849617497+853064787+855574608+854543557+850519165
1518+846511743+842754493+838528760+835509356+836321666+842317370+852963758
1508+863859317+864835665+852647856+839470811+833004905+832724946+836072639
1498+839576565+839576637+836139729+833671221+835428161+840343266+843785401
1488+841914759+836053164+830179252+826649980+825302310+824868266+825266438
1478+828011540+834011826+841811869+847675040+847477064+841364937+834637044
1468+831512315+832105170+833619096+833568975+833352455+836331332+843273026
1458+849874257+848670720+839927122+831500072+827023950+825894377+826250591
1448+825816260+823404890+820017745+817207558+815620742+815813134+818610647
1438+823253741+825856858+823275508+818308134+815175099+814423721+814078247
1428+812974092+811975190+812006193+812963495+814825688+817816308+820389353
1418+819328946+814527614+809492291+806325031+804456753+802651984+800773681
1408+799569357+799117771+798465989+797368708+797136363+798691675+801299159
1398+803871345+805994379+806777047+805009725+801744516+799810938+800282930
1388+801326296+800539404+798302883+797362836+799392002+803808837+809209181
1378+814833922+820472553+825383219+828351715+829479140+830492004+832329996
1368+834210661+835767119+838259326+842277489+845634347+845590599+842702797
1358+839845927+838521027+838068725+837548044+836923900+836453412+836270830
1348+836650743+837633965+838765042+839986766+841932588+844652414+847067365
1338+848318373+848720554+848943018+849386083+850543223+852872324+856049321
1328+859202905+862133237+865376966+868952207+872236534+875194504+878444820
1318+882126102+885848267+889544513+893420476+897382934+901168680+904791392
1308+908571769+912717453+916919271+920544919+923088178+924260568+924174862
1298+923712894+923947458+924905978+925480144+924697977+922659504+920097128
1288+917496875+914991063+912775521+911113094+910133310+909831584+909839031
1278+909292574+907784519+906248754+905927625+906870392+908238109+909530503
1268+910722369+911521290+911442601+911002972+912032591+915666831+920474464
1258+923952255+925479070+926149683+926557592+926496588+925990443+925397159
1248+925039370+925080469+925236272+924769220+923165220+920518928+917366418
1238+914524870+912604467+911237465+909292502+906285628+903175506+901322980
1228+901046601+901550670+901914689+901779435+901284960+900805092+900688597
1218+901084764+901887695+902684468+903007316+903051064+903668836+905138871
1208+906669480+907613106+908388328+909697404+911579215+913684278+915856215
1198+918030157+920040133+921870750+923792085+925940250+927970490+929607856
1188+931426229+934458091+938840988+943213503+945856502+946504632+946558977
1178+947298040+948594157+949723086+950650459+951883853+953561817+955321835
1168+956853447+958143907+959390548+960923950+962883663+964732251+965652106
1158+966098966+968133859+973034573+979177846+983513129+984947650+984957245
1148+985239566+986165579+987045123+987236583+987326943+988783088+991970610
1138+995315153+996998773+996900251+996629886+997829772+1000421432+1002972353
1128+1005148013+1008337612+1012700461+1015539288+1014777813+1012349760
1120+1011778028+1014017413+1016999513+1018718934+1019717120+1021330715
1111+1022921540+1023281191+1023286418+1024260689+1025384678+1025380382
1103+1025117106+1026081138+1027786095+1028590100+1027846670+1026807886
1094+1027905884+1031818006+1035401910+1034865835+1031447042+1030161665
1085+1032659529+1035580840+1035624803+1033249161+1031187704+1031447472
1077+1033867076+1036787384+1039045243+1041176010+1044795070+1050588716
1068+1056869320+1061128133+1063645472+1067277993+1072173695+1073741823
1060+1068808603+1060790249+1055339928+1054631223+1057668313+1062753040
1051+1067803256+1070404225+1069778650+1067395705+1065224842+1064426135
1043+1064809271+1065311550+1065597595+1066387781+1067616164+1067855668
1034+1066403462+1064459501+1063632441+1063860418+1063285320+1060413987
1025+1055965002+1052307421+1051422722+1053430694+1056570387+1058549718
1017+1058172668+1056117440+1054545517+1055475826+1058951398+1063011304
1008+1065343412+1064668719+1061154482+1056356802+1052109158+1048757097
1000+1045876814+1043822230+1042958510+1042533130+1042006721+1042416779
991+1044722180+1048137751+1050847911+1051722443+1050943212+1049129994
983+1046154983+1041329593+1035235080+1030413414+1029159684+1030920991
974+1032611270+1031804258+1029338758+1027193098+1025245414+1022394773
965+1019210115+1017052140+1015738552+1013830106+1010349450+1005065386+998483057
955+992518499+989509979+989458712+989524370+987441003+984075052+981342409
945+979475992+977616019+975696331+974277133+973143693+971633346+969916503
935+968370214+966567235+964655638+964276297+965959273+967352480+966316847
925+964121496+963041829+962844139+962101496+961079323+960973426+961368591
915+960602820+958423150+956535468+956339998+957271595+957643418+956519501
905+954629456+953565683+953973808+954900322+955260831+955219088+955449929
895+955810797+955480502+953922112+951146724+947574848+944297395+942893519
885+943959583+946217799+948085791+949387708+950753707+951970132+951571388
875+948116436+942239948+937177345+935843566+937616329+939537950+940399951
865+941331907+942749817+943614897+943710985+943883042+944005121+943181641
855+941800749+941387254+942059872+942209732+941236248+940441551+940743349
845+941332122+940883471+939119945+937121138+936185030+936219613+935962996
835+935098703+934905166+936242740+938281643+939865380+940987436+942126317
825+942892159+942302240+940301500+938446826+938711176+941353029+944478760
815+946184720+946568858+947265318+949323052+951973712+953744471+954634110
805+956035909+958157798+959183693+957821632+955123644+952655853+950570337
795+948666259+947856526+949059848+951256129+952346394+952295200+953271476
785+956066913+958687285+959255223+958320761+956980825+955108823+952745998
776+951073476+951261142+953386610+956224291+957644778+956294603+953171951
766+950590600+949833637+950365559+951300379+952795904+955044597+956843924
756+956901348+955940967+955384629+954904474+953872922+953418544+955054478
746+958393364+961510790+963055648+963569383+964910966+967872517+970806859
736+971312861+968831824+965152332+962373364+960837743+959130423+956578572
726+955190305+956734375+959098345+959032043+957161187+956160996+955787956
716+954468497+953500384+955035933+958185865+960598381+961836215+962818291
706+964025981+965709816+967684493+968012639+964629575+958848101+954617857
696+953678311+953259304+949915477+944556805+941014357+940383698+939362671
686+934315104+926194290+920049728+919236630+921987960+923709243+921887934
676+918052353+915206510+913944761+912022209+907537568+902946241+904028701
666+909486540+912568022+910647833+905722417+900703633+897453890+897428257
656+900750532+904682774+906312335+905650959+903005168+896316584+885540742
646+875873566+871958436+872581434+873839388+875065981+877359281+878722130
636+876240591+871407540+868556828+868774351+868938818+867004810+864846978
626+864721175+865830271+865153644+862027913+859632724+860837121+864357945
616+865973258+863652749+859802418+858192403+860779267+867359377+875400499
606+880537209+880029488+874669742+866269398+857762011
##END=
