##TITLE=<SNM>
##JCAMP-DX=4.24
##DATA TYPE=INFRARED SPECTRUM
##DATE=3/5/2025
##SAMPLING PROCEDURE=Instrument type and / or accessory
##ORIGIN=Admin
##XUNITS=1/CM
##YUNITS=ABSORBANCE
##RESOLUTION=4
##FIRSTX=4497.3318
##LASTX=599.83466
##DELTAX=-1.4281778
##MAXY=1.7122539
##MINY=0.18031114
##XFACTOR=1
##YFACTOR=1.5946607e-09
##NPOINTS=2730
##FIRSTY=0.19914415
##XYDATA=(X++(Y..Y))
4497+124881832+125788754+126712178+127191620+126848615+125708644+124294499
4487+123361581+123379831+124291013+125653746+126843990+127306080+126876321
4477+125871237+124863573+124377290+124670490+125624675+126710000+127231194
4467+126933360+126336710+126143374+126411316+126695610+126789764+126852241
4457+126991809+127122593+127101830+126800884+126203720+125548677+125224239
4447+125425976+125953038+126294996+125939582+124793696+123393296+122530545
4437+122537572+123076362+123669975+124103602+124255477+124079278+123877645
4427+123994553+124151716+123678889+122388510+120740540+119279588+118269495
4417+117715559+117490387+117502712+117746050+118114462+118326440+118195646
4407+117890888+117796304+118135347+118781064+119360016+119426249+118671062
4397+117277764+116041994+115775342+116498524+117477323+118075692+118266683
4387+118267963+118055938+117433843+116400791+115317045+114677336+114608636
4377+114740757+114775808+114812429+114836135+114522154+113937128+113685465
4367+113982056+114378437+114641650+114999784+115349648+115198175+114580472
4357+114199351+114534096+115421731+116453737+117309432+117886860+118377255
4347+118883479+118914820+117813114+115754308+113828107+113071790+113614475
4337+114616299+115091546+114936999+114840966+115148154+115462510+115501382
4327+115583333+115922236+116030042+115351881+114256614+113768724+114223721
4317+114856581+114996915+114897911+115005306+115213818+115308738+115465706
4307+115844434+116189981+116212567+116091388+116305553+117030081+117891813
4297+118357548+118270075+117954112+117856454+118137225+118603530+119022356
4287+119414568+119917335+120392330+120435697+119926128+119329319+119198301
4277+119519917+119824694+119874781+119918017+120185884+120483017+120474299
4267+120144619+119787943+119722280+120042288+120432109+120385761+119881789
4257+119497734+119620005+120027412+120392124+120684128+121060763+121653367
4247+122326669+122639165+122384063+122014173+122162955+122953595+123972902
4237+124632290+124567832+123942635+123213575+122608758+122212555+122302832
4227+122985543+123754672+123997804+123741244+123495692+123586370+123939636
4217+124353640+124721249+124972127+124971950+124636682+124130336+123823111
4207+124026314+124770008+125734295+126424024+126609081+126567975+126701553
4197+126992043+127072162+126708608+125971082+125144018+124706391+125041388
4187+125843381+126192498+125659717+124946981+124990340+125873423+127012255
4177+128005621+128866447+129579706+129855758+129529367+129055026+129200108
4167+130105244+131031098+131278874+130951979+130548515+130291665+130165450
4157+130178953+130298085+130380886+130341490+130185083+129859374+129321024
4147+128779207+128591002+128836274+129224422+129480608+129617849+129775882
4137+129999232+130246980+130470928+130602713+130610347+130669880+131041891
4127+131587707+131742254+131270118+130701165+130697577+131280341+131939318
4117+132275474+132367591+132640121+133366153+134253424+134693368+134431294
4107+133769009+133146747+132816104+132888888+133366022+134062779+134712159
4097+135159457+135397487+135509144+135612913+135747529+135845141+135885770
4087+135916252+135900936+135792588+135670933+135587011+135458852+135281878
4077+135195592+135277552+135520862+135896946+136197929+136103271+135635405
4067+135215514+135129387+135261012+135413532+135590375+135889947+136333508
4057+136827556+137157254+137078248+136631407+136332433+136707602+137564362
4047+138129783+138077305+137945624+138292413+138958884+139471154+139665621
4037+139605798+139337940+139065925+139215248+139994030+141042360+141706654
4027+141625405+141049780+140663435+140943721+141606707+141913082+141615827
4017+141268710+141390468+141752872+141772318+141238229+140452925+139919378
4007+139965885+140518840+141281390+142054977+142649160+142743435+142254013
3997+141589775+141205458+141140692+141187713+141245648+141369050+141650803
3987+142135423+142766768+143340879+143567799+143363549+143094878+143289149
3977+143998249+144668720+144776620+144408740+144041103+143927521+143966656
3967+144066118+144277955+144564090+144753361+144754268+144603169+144406534
3957+144378062+144715937+145314493+145798636+145914199+145747233+145547188
3947+145420851+145246718+144931868+144667477+144746176+145178018+145735431
3937+146307010+146931095+147510410+147753421+147494562+146916200+146323727
3927+145887072+145686363+145778200+146145576+146693597+147272735+147692496
3917+147855845+147824056+147665472+147412799+147171003+147036668+147010821
3907+147143558+147479798+147734770+147543639+147236021+147543751+148490218
3897+149408970+149952030+150333085+150662233+150634143+150164157+149854353
3887+150142515+150592243+150674595+150760788+151274067+151668850+151306090
3878+150644815+150452339+150804100+151464749+152406731+153460818+154101732
3868+154178608+154096013+154080492+153928188+153478067+152936708+152638127
3858+152784927+153447016+154540433+155561693+155955177+155893653+155768858
3848+155789687+156065170+156528419+156879441+157053883+157465822+158288765
3838+158981429+159152600+159158786+159337395+159664935+160150003+160839807
3828+161517445+161923815+162189233+162576297+162989171+163249188+163674078
3818+164582803+165588841+166142796+166283972+166294699+166329685+166516199
3808+166910944+167410889+167998166+168756390+169465481+169787620+169976097
3798+170508093+171445524+172545118+173670484+174989596+176724292+178756739
3788+180758778+182647320+184500728+186259308+187987239+190008098+192420245
3778+194960840+197591384+200706380+204683416+209476930+214553709+219386619
3768+224147520+229371512+235124098+241227510+247894278+255388699+263268970
3758+270679721+277601816+285144566+294591557+306217385+318287482+328387143
3748+336767657+345656768+356260280+367198807+376679307+385290217+394149501
3738+403599688+414121529+426190356+438502810+448434459+455024248+459680006
3728+464027772+468351617+472094276+475347102+478954679+483229933+487655520
3718+491938436+496649588+502522623+509441036+516614552+523916870+531799925
3708+539800010+547246120+554310119+560851168+565990555+570274705+575522973
3698+581547836+586474956+589943301+593336406+597277952+600709144+602537957
3688+603434721+604676256+606076161+606516806+605523532+603856752+602796946
3678+602822812+602969444+602367290+602155210+603734901+606736885+609278303
3668+610620608+612289819+615338151+618883607+621627723+623745465+626197176
3658+629240127+632518220+635607033+638146320+639763501+640290301+640879671
3648+643352949+647103945+649916836+651051994+651898299+654484906+658856295
3638+662145601+661940473+660058360+660444545+663969406+667901832+669882472
3628+670743578+672027126+673507729+675182995+677852954+681368246+684259704
3618+686085602+687869038+689646644+690823665+692040382+694114243+696377832
3608+698524953+701628941+705333289+706624612+703492740+698800202+698398617
3598+705182956+716443716+726496206+731380192+731201901+728188217+724014855
3588+719009242+713608174+709940830+710019846+712996152+715446555+715401328
3578+715040933+717405816+721864295+724874839+724915805+723829686+723511826
3568+724293617+725901902+727415397+727486115+726605573+727171994+729741781
3558+730964628+727406950+720281502+714189321+712453055+715209805+720733173
3548+726905192+731483579+733098816+732668225+731955957+731061510+728904298
3538+725722788+723975832+725848302+730084758+732747316+731653273+728314927
3528+724760613+721543744+719286733+718883130+719588221+719127355+717054691
3518+716282544+719464053+724744690+727134990+724595105+720474520+718862497
3508+720262065+722721215+725032124+727384374+729732137+731239129+731595113
3498+731768097+732686391+733719509+733450240+731693342+729506601+727778932
3488+726855854+726771904+727011195+726622019+725400742+724528050+725023378
3478+725885829+725122279+722734745+721240986+722698414+726333613+729440891
3468+729992136+728059563+725504503+724834023+727230079+730921942+732312091
3458+729810855+725776388+723617680+724242933+726040722+727205110+726940925
3448+725206080+723074209+722795820+725436849+729029438+730614773+729730642
3438+728369349+727570888+726494188+724876409+724372334+726827895+731933456
3428+736786792+737802118+733924189+728030409+724087591+723475421+724978525
3418+726683692+726647735+724422121+722631807+724079144+727646166+729642655
3408+728690871+726528201+725249139+726018371+728773700+732242644+735260364
3398+737567386+738842039+738648497+737440004+735919855+734134849+731977412
3388+729747088+728072346+727685862+728992135+731340647+732573809+730587263
3378+726129606+722757097+723081909+726355442+730266040+733268361+734204895
3368+732318146+729063975+727615143+729533139+733268585+736260963+737622257
3358+738558118+740394556+742421844+742158481+738598037+734271801+731926952
3348+731274488+731162729+732373914+735332503+737898253+738321592+737821480
3338+738211777+739486952+740594227+740380801+737980559+734094855+730975168
3328+730067415+730688556+731753669+733535461+736410773+739080134+739738055
3318+738639003+737777225+738058902+738491137+738192341+737453609+736640496
3308+735713979+734853397+734220070+733167291+730837693+727681899+725631587
3298+726349312+729315452+732144041+733354703+733802337+734288321+733877616
3288+731987429+730058220+729497555+729550258+728762636+727490601+727311188
3278+728694086+731094104+734685945+739730355+744314199+745322573+742372057
3268+738417429+736043799+735256776+734793966+734023314+733485226+734264026
3258+736875227+740416384+742614563+741159078+736246984+731854589+732064053
3248+735854594+737620164+734285855+729384974+727670462+729380190+731437754
3238+732015537+732170430+733168637+734062561+733095003+730519011+728387290
3228+727950495+728778111+729985334+730830442+730550483+729033848+727415696
3218+726976135+727642354+728038931+726995123+724713218+722364408+720908923
3208+720532530+721082579+722416886+724071145+725098656+724570062+722518703
3198+720369788+719737881+720735491+722302062+724056045+726424516+728817731
3188+729346849+727065019+723509659+721357978+721788194+723240016+723015003
3178+720341306+717000568+714688387+713342344+712662520+713395570+715638751
3168+717466816+717115616+715505986+714738922+715306464+716295551+716885445
3158+716526096+715130490+713739893+713409624+713333897+711729200+708481383
3148+705352725+703879673+704149240+705159259+705908307+706169352+706096989
3138+705607865+704772101+704129056+703941346+703628495+702509558+700931998
3128+699892376+699503350+698744136+697076271+695396669+694307934+692962862
3118+690907242+689354052+689408997+690254180+690251937+689117302+687904622
3108+687378120+687387390+687707417+688500496+689525241+689651353+688082988
3098+685728047+684215599+683631910+682580626+680746057+679587799+680061449
3088+681351127+682132768+682059433+681725875+681558049+681182180+680250280
3078+679538536+680017044+680832175+679986245+677350374+674989453+674274942
3068+674611192+674950581+675000218+674749564+673884197+672264998+670559307
3058+669819977+670354103+671238234+671212967+669976365+668397609+667363594
3048+666541884+664783789+661935913+659456953+658734818+659531335+660502929
3038+660766142+660585235+660620071+660722037+659927762+657972090+655989356
3028+654901068+654155086+652892619+651262954+649700718+648080473+646578041
3018+646104242+647074715+648537227+649146109+648556963+647250540+645531094
3008+643625208+642180936+641592239+641351153+640985151+640929982+641447737
2998+641481078+639893201+637354437+635721110+635803041+636542221+636245293
2988+634292163+631616223+629615548+628842952+628865902+629055706+629021393
2978+628397336+627043331+625494738+624530620+624282582+624179457+623782021
2968+623255145+622772226+621881704+620170893+618232526+617111047+617140015
2958+617870561+618600770+618586156+617398145+615428979+613541708+612179181
2948+611222388+610544956+610121579+609612197+608463283+606657271+604923210
2938+603909192+603462791+602880822+601635810+599943276+598675277+598289278
2928+598023598+596846689+594926226+593541347+593732571+595227116+596489321
2918+596031931+593980048+591844926+590628209+589883348+588694141+586829408
2908+584828471+583498164+583363604+584196079+584946697+584371679+582052883
2898+578917684+576558445+575874248+576388564+576868680+576445266+575071638
2888+573204999+571395473+569996166+569031225+568425371+568166942+568002294
2878+567431612+566345343+565087474+563816373+562525275+561514696+561116661
2868+561106457+560804745+559676426+557904988+556366599+555624765+555170291
2858+554239363+552949237+552031878+551944339+552525599+552968001+552186472
2848+549872049+547020920+544945004+543896337+542952963+541353387+539632969
2838+538943015+539473329+540173524+539932999+538531824+536521580+534658529
2828+533468650+533014848+532943531+532805608+532353376+531522994+530323247
2818+528935976+527689955+526635570+525455745+524069184+522894555+522225831
2808+521650664+520410587+518427255+516694353+516159255+516429009+516319567
2798+515454611+514356457+513299417+512170575+511145531+510571597+510382168
2788+510159621+509585202+508639959+507556493+506574172+505658121+504614687
2778+503481359+502465286+501485954+500226515+498678931+497155942+495764111
2768+494372766+493026424+491889097+490922736+489995659+489088242+488187590
2758+487237638+486286527+485484029+484920075+484528619+484063118+483210310
2748+481892337+480396522+479065168+477914572+476708994+475405337+474263300
2738+473374199+472445701+471301497+470169553+469220684+468266396+467098046
2728+465783063+464559693+463630635+463014726+462559429+462131007+461630744
2718+460831760+459540550+457925873+456367787+455052542+453938240+452960554
2708+452081207+451233782+450345203+449421303+448537023+447648257+446523116
2698+445070173+443624219+442633973+442120965+441662192+440909519+439940167
2688+439008903+438165514+437340702+436615202+436068255+435515291+434735406
2678+433797377+432852545+431784966+430376950+428740707+427342821+426554227
2668+426254160+425953344+425321737+424497897+423827529+423399966+422932222
2658+422073770+420789998+419432816+418421938+417918761+417805394+417809805
2648+417616002+417073876+416350133+415664104+414959611+414118352+413291708
2638+412620294+411862313+410728350+409351807+408078949+407054540+406268862
2628+405726401+405376135+405104848+404864958+404604137+404119013+403220716
2618+402021081+400857029+399976076+399439408+399195407+399081592+398877174
2608+398500519+398050044+397578450+396981567+396210466+395440375+394917574
2598+394739806+394833998+394996254+394927068+394428675+393620944+392833547
2588+392300915+392026377+391834405+391504996+390967169+390342851+389726979
2578+389068348+388372451+387832307+387603145+387564870+387464175+387236994
2568+386998599+386730041+386277398+385727423+385427879+385512053+385707202
2558+385663619+385244093+384549168+383855813+383432960+383279338+383148105
2548+382905225+382721888+382790438+382949779+382826134+382352372+381856408
2538+381590317+381464168+381308228+381165221+381214709+381486295+381742407
2528+381729997+381497733+381315928+381334878+381462635+381516571+381403392
2518+381159241+380819516+380342128+379760607+379276866+379049871+379018661
2508+379012905+378931310+378789873+378646941+378475489+378167124+377712500
2498+377234029+376804821+376410712+376058726+375757014+375442182+375061229
2488+374699377+374534167+374620061+374763404+374747482+374631312+374583020
2478+374494211+374100699+373435228+372836625+372553639+372553265+372652540
2468+372725127+372788557+372866527+372822421+372512224+372065674+371767774
2458+371678105+371600958+371400800+371126822+370844472+370542423+370220714
2448+369936419+369724227+369547356+369372615+369250091+369249344+369303280
2438+369195109+368787842+368216600+367731139+367384237+367043465+366683033
2428+366439555+366378966+366450170+366677613+367128238+367640610+367838637
2418+367533748+366968897+366551052+366428416+366429725+366364762+366228820
2408+366092391+365950170+365772402+365614817+365587158+365731249+365953235
2398+366068320+365945684+365656157+365429574+365386777+365358743+365052658
2388+364338895+363263989+361808018+359696929+356433899+351552567+344966254
2378+337083274+328540578+319881601+311492602+303640664+296412203+289731082
2368+283640808+278510597+274698041+272071047+270280771+269528097+270686094
2358+274628687+281610829+291386893+303773093+318126497+331906172+341199486
2348+343288858+338704641+331356460+325596118+322394499+319944134+316952465
2338+313513517+310038650+306637584+303356912+300576259+298910954+298654618
2328+299473263+300729619+302031912+303497227+305554679+308484450+312142244
2318+316036227+319582206+322434269+324724434+326903513+329309436+331970387
2308+334725717+337350374+339627756+341466138+342921062+344058875+344907459
2298+345571510+346241317+347030882+347908547+348771035+349492274+349990892
2288+350345793+350721064+351122836+351405262+351526515+351580002+351579778
2278+351438528+351129415+350679537+350105604+349540491+349237658+349234929
2268+349230668+349016008+348793836+348846052+349120516+349338054+349307554
2258+349033501+348693851+348536715+348674676+349020269+349444094+349855248
2248+350152961+350296529+350391318+350542586+350683163+350673370+350519113
2238+350407690+350545651+350980614+351564939+352094206+352475383+352732728
2228+352869530+352823444+352631472+352534776+352744801+353159020+353496877
2218+353683615+353894126+354239533+354613272+354879400+355074736+355340491
2208+355725256+356174610+356680890+357253553+357747386+357996807+358170165
2198+358641684+359425605+360114736+360474720+360735504+361212181+361952445
2188+362773744+363428114+363807422+364102892+364597809+365275541+365851418
2178+366161802+366323385+366573629+367095159+367920008+368923149+369921020
2168+370789527+371560851+372462026+373739594+375407085+377295702+379311029
2158+381487940+383906460+386694046+389956553+393593322+397285148+400689765
2148+403592549+405972009+408033124+410106424+412414194+414914533+417384634
2138+419677117+421910430+424391819+427360052+430818043+434584401+438442184
2128+442220091+445806288+449155996+452226195+454833098+456691178+457679667
2118+457911670+457469754+456279501+454329995+451805099+448906837+445752053
2108+442516196+439462219+436709656+434138187+431600582+429069817+426522568
2098+423866775+421028505+417948364+414501735+410598314+406370081+402155379
2088+398306567+395040883+392385351+390178838+388166127+386186570+384304830
2078+382716206+381496312+380471081+379373151+378122308+376911198+375995745
2068+375444388+375129369+374896282+374648431+374321302+373905550+373507180
2058+373292632+373308517+373370527+373223633+372846829+372484752+372325374
2048+372295285+372239554+372176835+372299695+372767102+373539436+374476419
2038+375601635+377110608+379069383+381303892+383639695+386026407+388352342
2028+390330068+391650806+392154731+391846291+390867259+389473970+387914202
2018+386267306+384483682+382589496+380723156+378971042+377329304+375810576
2008+374454291+373258618+372182441+371160275+370103124+368959256+367771544
1998+366640235+365683144+365024550+364697159+364532922+364268625+363803161
1988+363264549+362810897+362453380+362085434+361617429+361051345+360476028
1978+360026562+359789102+359696705+359572162+359308725+358958833+358624901
1968+358340270+358088083+357870695+357706196+357576384+357416183+357179321
1958+356914015+356718754+356610583+356521624+356426386+356340716+356212212
1948+355993852+355778632+355660443+355547414+355326960+355095144+354997888
1938+354996168+354966901+354885231+354805467+354770781+354792909+354838995
1928+354838734+354772089+354707762+354702978+354739645+354805879+354926010
1918+355064980+355135661+355138913+355164816+355255868+355352527+355343593
1908+355166610+354895473+354686233+354627662+354696362+354810513+354867215
1898+354816232+354736618+354732768+354781209+354812345+354853087+354941971
1888+354999084+354924627+354755008+354617570+354572306+354563111+354542890
1878+354574063+354721069+354904219+354982675+354950530+354926833+354964397
1868+354984432+354942457+354933785+355054029+355245141+355333464+355240693
1858+355125009+355200101+355442943+355649492+355748692+355863068+356110022
1848+356501403+356939058+357226118+357272765+357285062+357452925+357698945
1838+357915100+358127965+358373948+358625125+358857128+359070106+359309510
1828+359664597+360116867+360495465+360699584+360834181+361025891+361275573
1818+361564129+361960705+362547086+363294003+364085736+364833625+365522644
1808+366180827+366839944+367491399+368080321+368602225+369166291+369873737
1798+370707744+371634448+372670967+373769832+374799324+375777647+376917440
1788+378297011+379777016+381234931+382706413+384276162+385942008+387604154
1778+389135516+390541139+392020247+393728255+395504066+397066265+398442659
1768+399819202+401236674+402670704+404143645+405703376+407400508+409231675
1758+411100370+412925968+414737139+416564382+418347631+420079524+421925082
1748+423972816+426011579+427791726+429334114+430828696+432333632+433822383
1738+435483183+437610531+440197774+442764197+444858167+446706453+448733480
1728+451111258+453833209+456727845+459477905+461931821+464349070+467090832
1718+470130605+473017504+475561538+478099143+480857388+483716852+486519464
1708+489325851+492271732+495303058+498336328+501584183+505345419+509436775
1698+513345541+517075530+520922847+524915414+529022879+533363357+537923503
1688+542516093+547220143+552438173+558111462+563357600+567745584+571708473
1678+575900263+580815795+586362599+591850084+596935797+601975946+607313099
1668+612844727+618311355+623617073+628723418+633614730+638446388+643471960
1658+648813897+654506734+660725476+667484398+673460334+677344020+680195261
1648+683590495+688260158+693436287+697766486+701072164+703882215+706530121
1638+708889846+710414031+710869739+711141026+711902184+712722100+713181546
1628+713572217+714265871+714838720+714448348+712997423+711313935+709847311
1618+708066865+705390776+702215845+699151851+696088604+692888555+689809087
1608+687064074+684533832+682088288+679942289+678504147+677835013+677441949
1598+676767283+675702544+674553032+673645129+672978163+672313290+671557065
1588+670784395+669933904+668828274+667497181+666318216+665816459+666215727
1578+667159437+667985782+668496585+669124305+670024358+671074146+672647296
1568+675458019+679462584+683930856+688404884+692976468+697977147+703749001
1558+710424198+717892099+726272837+735524624+745068554+754377828+763351824
1548+771775098+779176916+785323294+790373087+794587191+797887561+800058678
1538+801706135+803610600+805726847+807690593+809477767+811484348+814096746
1528+817382240+820978940+824273255+826874215+828798266+830500892+832612803
1518+835248599+838191191+841491561+845262067+849319633+853322404+856761296
1508+858753748+858948037+859101360+860729605+863189950+865807655+868709729
1498+871955229+874749133+876204169+876485623+876302024+876272421+877027299
1488+878824640+880964809+882480771+883184368+883702122+884751761+886406469
1478+888128382+889562562+890863752+892034494+892704002+893157841+894179223
1468+895766053+897391158+898787362+899852176+900304669+899935752+898751554
1458+896801787+894612130+893435333+893890144+895584547+897725837+899460159
1448+900476457+901144545+901756417+902272078+902798580+903542245+904235152
1438+904151127+903085565+902077490+902056708+902665515+903294955+904000869
1428+904966183+905755225+905767784+904986891+904000121+903558392+904150604
1418+905481322+906536194+906670828+906081682+905410977+905110611+904851359
1408+903856068+902030096+900292783+899457991+899134824+898344885+896938514
1398+895757605+895357814+895199856+894422626+892839683+890825477+888734647
1388+886852907+885518451+885086665+886008921+888670731+892646366+896529902
1378+899174968+900761050+902222590+904000495+905786099+907431687+909586657
1368+913027941+917264172+920397315+921052919+920079904+919561028+920310001
1358+921449944+922098222+922453683+923250649+924666888+926274948+927783360
1348+929175453+930380208+931503855+932930036+934451605+935110572+934755410
1338+934816186+936443085+938906570+940758781+941622204+942204324+943212174
1328+944862023+946993744+949087191+950367076+950269894+948826295+946723579
1318+945130021+945017065+946331188+948080013+949385614+950215397+950872646
1308+951065514+950266829+949145948+949421795+951596650+953721868+953425388
1298+950851415+948371260+947654955+948076275+947880117+946073806+942763867
1288+938529878+934392996+931468496+929874414+928767887+927586455+926346414
1278+924906852+923067872+921144419+919461379+917566782+914869537+911844939
1268+909641752+908577909+907775337+906143504+903162339+899038614+894654666
1258+890862107+887575193+884339037+881602920+880215612+879976544+879983347
1248+880038890+880552085+881515157+882496843+883186461+883465821+883435919
1238+883502451+884016095+884944630+886142732+887554187+888952932+889913014
1228+890185124+889932301+889724930+890312357+892042792+894491251+896868842
1218+898736005+900221168+901694594+903313868+904930824+906569460+908719421
1208+911688925+914943993+917686914+919690803+921065328+921939143+922839495
1198+924530758+927181655+930234884+932968460+934889147+935993208+936911053
1188+938310845+940298289+942802590+945888936+949315718+952590372+955568622
1178+958250318+960287174+961364024+961656392+961607128+961669100+962181398
1168+963172279+964452089+965899426+967568786+969645412+972069950+974056721
1158+974733929+974786033+976196516+979602814+983412193+986066154+987324136
1148+987402629+986999623+987403676+988956417+990480602+991641701+994213058
1138+999272196+1004743683+1007292763+1005959578+1002758482+1000553950
1130+1001111699+1004154537+1007812536+1010133762+1010241111+1008641049
1121+1006854323+1006481070+1008054744+1010863224+1013904044+1016512554
1113+1018077332+1018127044+1017207330+1017033524+1018803504+1021568552
1104+1023455375+1023985240+1024031663+1024330834+1024866680+1025164355
1095+1024788934+1024033009+1024012152+1025575734+1028444018+1031740202
1087+1035047525+1038346251+1041240027+1043261409+1045070113+1048373100
1078+1053527924+1057608515+1056664879+1050963146+1045795762+1045558414
1070+1048920009+1051027659+1049581967+1046827983+1045989678+1048528591
1061+1054026766+1060703682+1066454829+1070119332+1071800204+1071940072
1053+1070527571+1067722977+1064719012+1063184809+1063489661+1064355327
1044+1064941857+1065833239+1067219949+1067674611+1066125981+1064437035
1035+1065813952+1070277365+1073741823+1072841919+1069007796+1065957408
1027+1065180252+1065341424+1064303971+1061318619+1058199306+1057224348
1018+1057993579+1058174936+1057084182+1056338722+1057126643+1058570167
1010+1058936692+1057667273+1055620997+1053975633+1052944011+1051627869
1001+1049522462+1047361736+1045910288+1044931891+1043904678+1042850405
993+1042011875+1041339003+1040580087+1039505480+1038376302+1037801883
984+1037337952+1035263867+1031060677+1026967079+1025444538+1026205995
975+1026785348+1025262733+1021600248+1016829218+1012055421+1008145795
967+1005297620+1002639846+999049575+994325565+988987590+983546379+978536654
957+974506747+971518256+969116743+966665518+963593376+960056853+957320063
947+956618634+957878261+959841782+961027326+960594643+958565561+955769415
937+953718429+953496481+954426212+954802754+954108876+953180864+952351828
927+951164341+949655405+948353019+947476289+947251650+948240214+950489749
917+952959289+954239698+953652794+951674844+949514043+948326705+948382174
907+948681120+947994717+946444816+945353614+945502451+946010563+945297921
897+942992469+940294102+938524870+937693367+936747862+935471715+935177852
887+936514626+937707047+936436581+932907908+929544445+927985274+927836586
877+927768932+926757792+924893919+923528141+924198621+926790610+929057190
867+929004338+927403528+926565148+927308739+928732752+930327880+932339021
857+934211565+934528976+932931008+930942966+930597896+932753763+936262850
847+938484203+937465737+933944166+930389179+928328176+927493235+927079763
837+926664946+925934438+925008145+925032516+926713687+928486657+927921582
827+925085368+922919109+923735213+926717724+929433881+930874939+932083432
817+934019444+936371320+938680585+940942754+942443466+941836528+939370053
807+937520308+938384629+941238859+943444887+943515008+942170983+940403320
797+938457964+937024830+937397934+939609494+941869719+942550515+941734337
787+940497287+939451312+938561350+937910232+937957028+939147880+941548047
777+944437787+946549249+947190500+946768955+945802818+944169266+942046067
767+940269134+939172624+938379545+937818357+937549911+937047556+936199158
757+936282959+938397412+941595965+944121497+945849764+947651665+949194838
747+949433457+948575042+948155665+949227805+951174881+952446094+952171369
737+950943439+950001672+949833099+949823979+949134586+947551119+945390767
727+942929599+940556419+939726411+942430907+948529890+954309519+955436529
717+951335082+945105127+940169261+937830094+937075963+936269354+935183832
707+935187122+937335513+940544533+942048085+940132183+935684842+930636021
697+925706360+920685871+915771534+911715986+909540384+909833499+911635101
687+912709783+911482077+908050436+903316709+898056106+893109176+889637616
677+888153799+887479581+885555380+880531378+870341936+854657608+841527742
667+843372104+856433195+866953579+870126641+869473878+868721391+868548931
657+869427903+872399500+875772906+874880627+867772896+858104499+850489254
647+846635022+846118538+847456956+848112635+846234185+842539779+838900020
637+836253310+834812178+834579539+835170330+836243592+837500975+838041381
627+837465093+837031662+837685172+838008638+836138785+833031507+831230429
617+831022609+830144309+827378364+824714386+824046223+824282525+824561810
607+826069475+828825776+830415297+828590073+824019087+819695168
##END=
