##TITLE=<SNM>
##JCAMP-DX=4.24
##DATA TYPE=INFRARED SPECTRUM
##DATE=3/5/2025
##SAMPLING PROCEDURE=Instrument type and / or accessory
##ORIGIN=Admin
##XUNITS=1/CM
##YUNITS=ABSORBANCE
##RESOLUTION=4
##FIRSTX=4497.3318
##LASTX=599.83466
##DELTAX=-1.4281778
##MAXY=1.7070367
##MINY=0.17865402
##XFACTOR=1
##YFACTOR=1.5898018e-09
##NPOINTS=2730
##FIRSTY=0.2034411
##XYDATA=(X++(Y..Y))
4497+127966324+126980972+126069957+125920440+126521116+126843564+125924442
4487+124254329+123434072+124445997+126696446+128690292+129334271+128589514
4477+127160905+125786012+124902348+124851293+125803352+127167953+127748618
4467+127057315+126008208+125836083+126749554+127869661+128100629+127138963
4457+125913157+125670303+126458738+127080391+126812793+126349750+126504891
4447+126916392+126782021+126087194+125299874+124558800+123891651+123552828
4437+123537372+123358536+122714360+121870221+121251371+121066011+121212820
4427+121299670+120932052+120202817+119757170+120151369+121206559+122107170
4417+122127771+121246675+120123850+119536605+119763412+120414308+120838707
4407+120623738+119750459+118547916+117566679+117218248+117409598+117688996
4397+117771881+117716309+117612953+117436901+117291854+117484413+118137605
4387+118872062+119113172+118656296+117755216+116754596+115825547+114996096
4377+114326032+114049904+114422133+115311271+116170707+116577081+116609737
4367+116622137+116798396+116872958+116248596+114702806+113011070+112375020
4357+113169876+114732191+116285226+117532599+118424606+118891586+118870646
4347+118378144+117579848+116783586+116260228+116064202+116034846+115976340
4337+115825247+115602255+115311252+115094962+115295553+116032652+116960314
4327+117708792+118162144+118113442+117292632+116031809+115247488+115423494
4317+116100269+116582789+116706944+116738071+116897983+117212775+117571984
4307+117753210+117582585+117161664+116802688+116752477+117057568+117610657
4297+118182596+118485052+118434007+118388895+118875811+119896818+120725397
4287+120652101+119801954+118880966+118287573+117947550+117882792+118333566
4277+119222479+119997774+120196931+119880227+119480564+119476178+120118113
4267+121193896+122103655+122334773+121824256+120899425+120071558+119778221
4257+120017991+120369881+120601280+121005246+121897337+123036359+123779073
4247+123704548+122994874+122269266+122025812+122217817+122465901+122584113
4237+122665705+122771985+122828344+122802512+122822449+123076850+123601774
4227+124219199+124723080+124981559+124852559+124331853+123792035+123669184
4217+123910154+124130006+124185156+124202365+124217221+124135442+123923763
4207+123666494+123532151+123689823+124173281+124883236+125702780+126450668
4197+126817461+126597430+125959656+125352325+125191120+125627159+126445598
4187+127195941+127553942+127498707+127087880+126367568+125648455+125484268
4177+126136665+127321333+128594828+129711842+130533945+130906783+130808255
4167+130488205+130292901+130303998+130231602+129800989+129205215+128960102
4157+129247496+129682814+129933316+130195778+130672459+130991140+130695235
4147+129981034+129448218+129399741+129699639+130006922+129970864+129498701
4137+128969025+128967901+129686657+130653966+131182939+131104993+130883641
4127+130963687+131253696+131332869+131012632+130591898+130511310+130854520
4117+131446582+132299110+133433182+134388888+134574613+134046765+133360289
4107+132813020+132354457+132070325+132279923+133100048+134147056+134807081
4097+134751218+134133249+133369259+132806084+132511642+132357128+132350830
4087+132679136+133329255+134043128+134742389+135514562+136139524+136258260
4077+136064015+136137012+136566106+136880194+136772696+136336993+135766414
4067+135278663+135078860+135125050+135190698+135187061+135187539+135280107
4057+135575355+136082283+136504910+136498874+136135859+135870735+136103803
4047+136832580+137571085+137708980+137180139+136557811+136290297+136187504
4037+135887231+135528472+135640216+136476116+137700038+138712366+139177078
4027+139226595+139206996+139300116+139477331+139728817+140085927+140430084
4017+140554126+140406211+140080678+139686892+139364490+139258285+139356439
4007+139508103+139641302+139817795+140110841+140530075+140945822+141071570
3997+140749983+140259815+140083481+140372290+140842326+141110899+141039664
3987+140879977+141036393+141544745+141948289+141854288+141442627+141344164
3977+142064176+143383422+144385889+144415001+143833737+143396000+143227559
3967+143037362+142964338+143454272+144422462+145161914+145155541+144555792
3957+143789693+143153212+142945985+143592692+145249523+147291949+148570741
3947+148607989+148222760+148382878+148904221+148894820+148144449+147310039
3937+147035533+147670870+149336521+151510309+152870168+152491884+151180634
3927+150604084+151271430+152112644+152195464+152155526+153049079+154494531
3917+154800259+152984818+150052466+147749069+146876708+147322664+149153608
3907+152924793+158642500+164760855+168890341+169772131+167589635+163006892
3897+157628533+154105834+154239315+157153230+159479675+159040008+158083703
3887+159405891+162028223+163273515+163502928+164376432+164401833+161786081
3878+158966055+159146916+162116835+165941943+169654219+172158057+171831934
3868+169842447+169042220+169464997+168597173+165505800+162247250+161288564
3858+164189460+171768535+182422994+188456598+183133709+172632329+164577370
3848+161080297+161637932+164828003+169193256+174148857+179595113+184169140
3838+185296952+182601736+178737581+175537387+172792251+170417010+169257649
3828+169526015+170652627+173256963+178641320+184925745+187124662+185044557
3818+183149699+181907743+178365305+172918186+169150609+169351003+173400613
3808+178701026+182097021+184229371+187594229+190887065+190635363+187940635
3798+185862179+183912733+180857446+178009151+177073710+177979757+180054932
3788+183032349+186259350+188629717+190257501+192628731+196236255+199602575
3778+201543942+203004681+205749236+210966061+218674671+226969353+233220954
3768+237176815+240512785+244336263+249700543+258070828+269275874+280492223
3758+289326507+297280745+307889107+323185284+341578346+357330180+366915727
3748+374567630+384591419+395231349+401581872+404567912+409777220+420285929
3738+436133293+454786848+470946481+479657230+481383918+481149032+483154584
3728+488221423+494254690+498165392+498896971+497950601+497308515+498601760
3718+502917486+510387142+520679672+533182986+545404549+553377532+556552194
3708+557903438+559989111+564480525+571806811+579657421+584534889+586033476
3698+586981908+590308449+597298921+607385134+618630858+627687244+629809209
3688+623438478+614089918+608188510+608253858+613325496+620460461+627486400
3678+634110501+638866045+639327270+637792203+637868387+637389390+631521913
3668+622033020+615579395+614744863+617184047+619735556+622485735+627991116
3658+636139936+642626930+645726083+649922923+658546353+668661884+673433175
3648+670642805+664978158+660663144+658899376+659151097+660511152+662925703
3638+666964327+672202917+677161891+681715579+688009864+696727324+702750693
3628+700686690+694520402+690355430+689859713+692872110+698448051+703756000
3618+706767572+709288225+712859551+715628325+716087526+715804087+715693786
3608+713701543+708990015+704694946+704400635+708660761+715317068+721712431
3598+726038843+727414645+726076410+723635314+722321449+723662383+726936923
3588+728806418+726983713+723352400+720658535+720094957+722284182+726428608
3578+728907271+726186636+719175431+712397201+709860351+712971276+720495895
3568+728795695+733625698+733342259+728597213+720146696+709957080+702559334
3558+702249201+709246609+719666050+728792771+734113242+735926199+735858114
3548+734878376+732781531+729221003+724997919+721977049+721412946+722642754
3538+723635614+723114327+721929284+721985522+723917478+726070336+726052040
3528+723703849+721654544+721857225+723260995+723693951+722714514+722088175
3518+723706399+727286797+730724502+732402038+732217278+730757870+728304627
3508+724655843+720473475+718119360+719738334+724442889+728786172+730611726
3498+730627923+730400197+730424417+730442863+730366305+730195417+729763960
3488+728546824+726063737+722780424+720526038+721256005+724923385+729136196
3478+731520904+731924992+731710988+731624307+731142836+729649010+727324964
3468+724619476+722039060+720474225+720139422+719742608+718653394+718815659
3458+722050233+726790705+729871937+730207864+728933590+727143953+725337070
3448+724713430+726546858+730047474+732587398+732490444+730638795+728953461
3438+728368813+728595114+728716662+727926559+726419085+725342244+725461843
3428+726143670+726481997+727300744+730248055+734380484+735701698+731974781
3418+725835412+721252031+719659151+720253697+721687461+723031545+724190119
3408+725708390+728327422+732195083+736030801+738004973+737521103+735394639
3398+732455726+729790129+729433282+731936089+734542074+734602061+733423092
3388+733727976+735114575+735018746+733012931+731382484+731442771+731468940
3378+729413261+726226677+724601779+725498435+727676263+729802127+731444496
3368+732607943+733184793+732866412+731862155+731201099+731440372+731075801
3358+728405555+725058430+724721379+728347967+732848641+734831211+734190175
3348+733299818+733717178+734875902+735979887+737253561+738543731+738461924
3338+736193966+733089714+731063203+730754420+732048865+734338268+735782605
3328+734763051+732568127+732216903+734453593+736941629+737526652+736918234
3318+736939679+737242314+735904004+732728442+729973165+729538634+730915935
3308+732270367+732475822+731872953+731632555+732489169+733969348+735195857
3298+736426715+738332652+739860671+739243855+737405328+737637628+741220351
3288+745249227+745995391+743273856+739422016+735828270+732860189+731628656
3278+733091289+736012955+738187184+738842916+738147742+736063194+733549064
3268+732887483+734940013+737568193+738137245+736593854+734704339+733109135
3258+731094697+728845784+727675138+727876244+728390333+728869404+730136554
3248+732306209+734068177+734171429+732609743+730242731+727996143+726849567
3238+727638771+729795303+731045132+729788705+727376778+726541309+728016239
3228+729825597+729618042+727024654+723852242+722592740+724593606+728880277
3218+732552006+733112959+730860747+728112818+726218654+724802361+723515790
3208+722553974+721394050+719271335+716953588+716017191+716588417+717502469
3198+718291148+719189228+719746432+719279958+718261454+717871239+718544518
3188+720031820+722115544+723966817+723921302+721363607+718007934+716314426
3178+717054366+718757697+719247865+717545884+714337105+711039545+708939551
3168+708532389+709148980+709770071+710156462+710840313+712095991+713029839
3158+712096066+709027207+705809504+704940518+706846455+709536871+710687122
3148+709566715+707098175+704921922+704470295+705760165+706781894+705458355
3138+702418890+700195622+699948550+700492107+700120263+698291260+695963614
3128+694886848+695924698+697841507+698381390+696473654+693018778+689973913
3118+688914768+689959666+691795118+692729116+691791219+689314956+686749837
3108+685315323+684869245+684581382+684254378+684293295+684689059+684962825
3098+684935081+684806409+684660040+684486003+684297344+683829745+682576692
3088+680613843+678998468+678560863+678720203+678111110+676355516+674475599
3078+673420577+673007117+672504351+671599072+670512408+669631349+669183321
3068+668967293+668446831+667446773+666419496+665656236+665024498+664709116
3058+665147171+666101789+666666717+666177823+664603839+662296815+659776161
3048+657740353+657053951+658123744+659848295+660089443+658088877+655436927
3038+653813154+653058743+652331550+651606308+651032232+650116456+648479786
3028+646622513+645227891+644408993+644134328+644563235+645325744+645422024
3018+644653890+644053720+644101035+643762558+642088246+639705713+637855789
3008+636729833+635461783+633464067+631277841+629956927+629920560+630614984
2998+631112951+630918893+630320673+629877744+629625124+629135555+628140071
2988+626675039+625049466+624050345+624386272+625435895+625509641+623882194
2978+621513570+619502131+618079652+617332477+617653520+618898925+619929014
2968+619682617+618252040+616423187+614609517+612864908+611619316+611483970
2958+612233883+612668826+611687551+609243119+606363630+604459306+604296441
2948+605259982+605942672+605719895+605198233+604978118+604680770+603461760
2938+601189565+598878341+597743874+597786128+597710919+596516916+594668304
2928+593298276+592717564+592147051+590857443+589164047+587821126+586831153
2918+585664781+584243277+582917789+581909783+581414215+581642166+582161316
2908+581899960+580304456+578014228+576137347+575210061+574934158+574628149
2898+573933312+573005876+571941332+570603285+569233407+568367907+567929064
2888+567315847+566418067+565608918+564867816+563750071+562157603+560587931
2878+559654196+559589560+560028328+560088952+558907996+556514065+554111961
2868+552963884+553003288+553114602+552641304+551850938+551071520+550163054
2858+548849189+547193361+545581060+544247962+543055308+541805891+540513284
2848+539320143+538415539+538000429+538064840+538270108+538226168+537767192
2838+536907316+535691155+534217312+532825989+532007016+531809172+531566899
2828+530522076+528581909+526398570+524890197+524583588+525191219+525821682
2818+525609328+524258234+522233523+520315701+518807066+517546664+516680827
2808+516627101+517169346+517326287+516342838+514372602+512082861+510020734
2798+508578496+508146965+508652580+509105445+508427629+506778512+505322590
2788+504724257+504490345+503717075+502022743+499801462+497846448+496671678
2778+496068172+495392793+494319776+493121610+492187763+491540916+490855302
2768+489738719+488099237+486414090+485376802+485094151+484924725+484238812
2758+483022275+481660496+480473428+479592594+478979752+478338866+477271210
2748+475815363+474562160+473873809+473290136+472112778+470322054+468505761
2738+467067947+465875331+464662319+463479188+462524645+461752387+460986766
2728+460263285+459704806+459215388+458595797+457813079+456907013+455801415
2718+454462918+453102901+451956324+450979661+450023468+449119652+448306641
2708+447444740+446479212+445528568+444555916+443421000+442261601+441324380
2698+440515642+439572722+438488045+437430361+436502663+435772658+435270605
2688+434815378+434112556+433160300+432281453+431622383+430915324+429915753
2678+428778475+427764395+426850643+425897337+424992246+424335951+423873601
2668+423305674+422483290+421554916+420669058+419800484+418933522+418146380
2658+417459229+416806271+416167035+415574476+415003512+414366487+413630785
2648+412871987+412149331+411368075+410391862+409281090+408281744+407573860
2638+407110648+406686428+406128811+405435287+404723691+404071032+403442706
2628+402753306+401989521+401302670+400882611+400691965+400444069+399889639
2618+399084726+398377142+398072258+398033754+397752565+396960662+395962178
2608+395175674+394604673+393974847+393168884+392319168+391635354+391278881
2598+391261560+391369237+391296877+390912961+390295507+389524262+388599150
2588+387587657+386700974+386152580+385984879+386040592+386067999+385877915
2578+385453957+384909012+384318778+383652735+382902635+382182079+381637172
2568+381317141+381141154+380969592+380758887+380606708+380545559+380421985
2558+380128687+379788110+379574369+379507034+379459907+379252389+378797538
2548+378238309+377815888+377623892+377641401+377855217+378136931+378181771
2538+377790843+377112128+376517057+376312989+376526993+376885302+377041831
2528+376849123+376418454+376023402+375942494+376202125+376427564+376133140
2518+375252794+374266945+373719414+373694444+373839500+373809619+373566035
2508+373285933+373152462+373249753+373523106+373781763+373803471+373494163
2498+372971676+372478245+372155740+371929664+371687879+371491759+371456367
2488+371531651+371583165+371545523+371323158+370759393+369912527+369143494
2478+368742518+368646014+368600724+368442433+368205222+368072426+368166530
2468+368340905+368332919+368138486+367987469+367932881+367755095+367339085
2458+366895706+366700073+366753537+366797140+366619428+366287100+366034480
2448+365973593+365981954+365854744+365499359+365000079+364550327+364291296
2438+364181295+364045724+363766185+363400639+363120912+363016685+362948074
2428+362675434+362173530+361680474+361373603+361174559+360963592+360810213
2418+360860939+361099500+361347059+361479780+361547191+361616738+361602716
2408+361418181+361232934+361330638+361699520+362005904+362030723+361924171
2398+361953228+362150547+362310825+362259986+362025699+361733413+361424367
2388+361049861+360584324+360017822+359205074+357805465+355474820+352185658
2378+348355414+344593479+341298994+338519159+336105845+333836087+331395366
2368+328520227+325378258+322707338+321326325+321443149+322666359+324841337
2358+328425335+333630669+339837186+346462112+353473166+360330355+365601187
2348+368150259+368180140+367109859+366073247+364607615+361812671+357935936
2338+353809656+349735339+345608834+341538379+337884009+334977377+333018052
2328+332015557+331694739+331670969+331822886+332334013+333330622+334640812
2318+335916211+336878290+337523637+338154551+339079550+340254058+341395760
2308+342433010+343563240+344819368+345866291+346372319+346402950+346314281
2298+346384354+346633075+346916063+347150875+347436900+347873718+348325120
2288+348564093+348607322+348669895+348813714+348855443+348636678+348246875
2278+347935167+347858871+347961562+348070513+348062677+347934492+347722438
2268+347382162+346863612+346343150+346167576+346438117+346852027+347064419
2258+347011255+346823908+346634762+346510251+346456150+346465373+346565402
2248+346766058+347000008+347195265+347344595+347433526+347406644+347292932
2238+347257614+347432739+347787787+348220480+348660710+349046801+349320154
2228+349464123+349475333+349368556+349280113+349411072+349788053+350247291
2218+350673498+351052429+351324882+351432634+351472225+351613720+351932700
2208+352427481+353058244+353687845+354164554+354532274+354987388+355594306
2198+356199425+356655889+357024134+357511378+358226161+359029049+359707202
2188+360251509+360777783+361228735+361433553+361456985+361602304+362045720
2178+362695867+363411286+364128318+364762756+365227805+365616896+366163940
2168+366971439+367985632+369237936+370838089+372727454+374705825+376738897
2158+379071528+382004105+385582816+389480996+393247167+396725325+400090596
2148+403416799+406473961+409104916+411534389+414086386+416795211+419513109
2138+422240380+425136627+428300978+431694180+435223177+438832107+442547627
2128+446455742+450596232+454809530+458685665+461800152+464039916+465486615
2118+466014838+465435251+464019408+462342847+460592951+458531911+456139067
2108+453838603+452070299+451008530+450708295+451119056+451791172+451889289
2098+450733602+448150599+444276752+439380089+433881568+428182767+422434138
2088+416644269+410912324+405425914+400362936+395856226+391955797+388621120
2078+385799819+383482672+381644108+380158005+378821607+377512916+376322774
2068+375465373+375014833+374750778+374315797+373545789+372605080+371801255
2058+371343704+371252636+371359750+371396567+371227892+371002340+370957538
2048+371122839+371373360+371739206+372440304+373606901+375242858+377521839
2038+380801628+385240403+390643469+396678760+402960973+408960235+414109293
2028+418026369+420551221+421617453+421161552+419265625+416381338+413089852
2018+409550769+405579368+401311181+397282342+393794023+390669413+387652368
2008+384699583+381900777+379359616+377122101+375105338+373161347+371237265
1998+369440129+368024474+367270475+367126093+367009231+366301685+364990332
1988+363501829+362173530+361156263+360446354+359812554+359027362+358227773
1978+357770860+357771834+357939910+357820049+357259808+356692031+356688132
1968+357174401+357462189+357127574+356415528+355739887+355277275+355041301
1958+354960581+354866814+354614644+354208569+353780150+353511671+353525168
1948+353818017+354429884+355459036+356529429+356646403+355352709+353539789
1938+352333301+351910468+351837734+351845007+351905331+352015520+352189782
1928+352560764+353368902+354587650+355598806+355905976+356055606+356724761
1918+357230527+356392696+354618131+353458620+353588379+354342865+354722208
1908+354354750+353607837+353004743+352708220+352584384+352541756+352666866
1898+353089625+353692156+354103442+354349351+355075194+356397157+357160829
1888+356385722+354747740+353481565+352904002+352685650+352580223+352485031
1878+352352759+352238934+352326515+353109008+355345998+359104858+362636292
1868+363289775+360665832+357149357+354845069+354000040+353895775+353957561
1858+353958274+353834925+353630295+353488351+353665987+354435508+355948305
1848+358391238+361824556+365058829+365608648+362876202+359449221+357582950
1838+357316233+357633189+358100713+359432574+362393570+366080070+368166343
1828+367922683+366913065+365915556+364273599+362144436+360753488+360602658
1818+361068419+361510449+362102820+363464600+365568456+367289071+367533743
1808+366642561+366002762+366773145+369279851+372801875+375706520+376701180
1798+376331360+376584130+379058331+383402514+386689126+385973594+382563446
1788+380182075+380472562+382534127+385014402+387437089+389494606+390739111
1778+391762151+394350440+399817617+407220912+412837082+413497613+410592256
1768+407223124+405066667+405203512+408057918+411970345+414359739+415193971
1758+416165385+417460692+418820934+421625776+427122796+433731114+437910445
1748+438411261+437232029+436558076+437353091+439586856+442229096+443991064
1738+445662151+449998686+457658088+463898122+463627468+459521659+455948646
1728+454038248+453934545+455657034+458630777+462855586+469811527+480465405
1718+491959100+497713202+495488960+490321043+486889899+486742331+489933227
1708+495838496+502774342+508717029+514050922+521309723+530774771+538403617
1698+541515517+541555146+539041728+535210247+533771459+536682740+542935784
1688+551448388+563052534+577056535+586289283+585486470+580939568+579462126
1678+582923563+590243213+598365265+604928292+611229100+618777376+624880190
1668+626222662+625707711+628400714+634844367+641138802+644247478+646286886
1658+651302923+661726263+678052848+695755384+703193847+701002672+701484517
1648+707285559+712102965+710210525+705270821+703045754+705032373+710953764
1638+720191011+729529561+732047215+726113377+719255364+716684846+717784633
1628+719599314+720594798+721214839+720757813+717714823+714053217+713646430
1618+716536753+717399516+711951048+703638350+697185174+693431563+691026685
1608+688540749+685528052+682432948+679869029+678190368+677495044+677711522
1598+678545041+679399106+679653226+679168231+678281548+677310284+676315025
1588+675200991+673888326+672494303+671273493+670524930+670995528+673888101
1578+679286855+684019679+683912227+681107236+681208989+685422475+690167521
1568+692148592+692906752+695313280+700504405+709865075+725871029+746745603
1558+759493664+758721556+756099675+758041304+763988639+771802320+779785914
1548+787799276+797579255+810615928+826058905+841314272+851593793+849888438
1538+839233773+831301918+830321206+832821538+833686176+832915418+834517671
1528+839876609+846675459+852796232+858850344+864991738+868752922+869223745
1518+868699234+868383927+867960119+868047850+870239925+875964633+885898929
1508+897730389+902697162+895055419+884258660+878968482+879868587+884324871
1498+888204304+887949285+884787445+883812957+887840708+894875083+899489057
1488+897915224+892267523+886974196+884532876+885257518+888295710+892601726
1478+897533257+902976926+909026914+914410372+915407206+910480474+904103182
1468+900932569+901394094+902742002+902641149+902521250+905451914+912113770
1458+919021272+919920927+914221113+907930202+904544161+904212058+905659095
1448+906841213+906471843+905095667+903634309+902351562+902018334+904174192
1438+908796339+912295681+911067672+907396018+905824434+907462154+909949214
1428+910801405+910336880+910313185+911442066+913439183+915877729+917482681
1418+916371947+912959212+909567472+907217632+905333440+903455547+902451890
1408+903670301+906610038+908353710+907023124+904636091+903958313+904995488
1398+906192904+906840988+906545027+904459580+901162395+898751367+897783477
1388+896041905+891427705+885876884+883574283+885885657+890724058+895702229
1378+900302481+904868466+908914064+911621727+913272794+914690811+915893400
1368+916807377+918457169+921713938+925373070+927060279+926148777+924381185
1358+923603454+924335070+925925100+927304951+927944712+928133296+928363796
1348+928869862+929841051+931732816+934954717+939089171+942612207+943904776
1338+942988850+941695531+941662613+942904568+944401169+945412924+945909692
1328+946156688+946434578+947029424+948181399+950022025+952314878+953996088
1318+953867116+952515909+952149914+953823476+956031447+956767487+956118653
1308+955481066+955086952+954093867+952741010+952459671+953725322+955307854
1298+955737286+954611255+952523633+950280494+948111139+945768947+943493791
1288+941876391+940580522+938632820+936070250+933839409+932220585+930535475
1278+928090331+924804693+921343894+918631357+916869614+915512708+914367631
1268+913764537+913408364+912168508+909449298+905927236+902537371+899357461
1258+895839674+891823695+887888998+884785421+882880384+882068460+881937088
1248+882047464+882101003+881895247+881511481+881565844+882543857+883868295
1238+884544123+884607334+884835510+885312406+885559478+885813448+886957025
1228+889280396+892068891+894325527+895666986+896686990+898252351+900252242
1218+901576305+901697854+901600375+902598558+904922379+907987565+911366407
1208+914747949+917400948+918577743+918515957+918543401+919980914+922935648
1198+926288621+929003108+931097329+933075700+934988085+936671020+938433138
1188+940679201+943321403+946080205+948755175+951023583+952578596+953497446
1178+954122061+954804188+956018700+958213999+961178631+963931734+965665358
1168+966689261+967839062+969144679+970139863+971230801+973546974+977330279
1158+981330661+984151100+985669070+986847890+988455241+990202362+991293076
1148+991803040+993002180+995758358+998963913+1000415748+999367925+997343664
1138+996262098+997074247+1000166352+1005125252+1009797114+1011570479+1010475117
1128+1009127359+1009142131+1009735852+1009971601+1010235843+1011038994
1120+1012244658+1013886802+1016348518+1019505109+1022613335+1024985595
1111+1026437055+1027392648+1028562994+1030408344+1033071017+1036554387
1103+1040390255+1043202370+1043322119+1040544871+1036789461+1034354439
1094+1034181676+1035934046+1038680851+1041447076+1044071432+1047008170
1085+1049472211+1049568790+1047549103+1046434319+1048314312+1051874765
1077+1054262997+1054593225+1054856343+1057525089+1062775076+1068110169
1068+1070311317+1068250089+1063872988+1060070637+1058350810+1058599756
1060+1059834064+1060544235+1059775052+1058633199+1059015316+1060879487
1051+1062467343+1063294263+1065060880+1068727960+1072323805+1073358431
1043+1071882826+1069807276+1068904922+1069610219+1070740449+1070585907
1034+1068910621+1067316241+1067299970+1068903572+1071359515+1073573335
1025+1073741823+1070770142+1066678730+1064910088+1066163966+1068002492
1017+1068249039+1067080567+1065787173+1064964826+1064299720+1063491621
1008+1063353576+1065257638+1068700141+1071366263+1072156442+1071886125
1000+1071139137+1069567628+1067135231+1064569287+1062238717+1059702092
991+1056684972+1053656078+1051171192+1048799156+1045732846+1042175843
983+1039152123+1037133111+1035567301+1033947352+1032603943+1031891448
974+1031034534+1028674945+1024376502+1018872021+1013197851+1008190587
965+1004512559+1002312686+1000825684+998557801+994220891+988129362+982515629
955+979628980+979381684+979341118+977353749+973759028+970531053+968926401
945+968655935+968765411+968547733+967856458+966943531+965902906+964462019
935+962618319+960785341+959098957+957687688+957281126+958472093+960793064
925+962954246+963696735+962738593+961081602+960092941+960391152+961519282
915+962053241+960308819+956301838+952693996+952189580+954462712+956602448
905+956240277+953514843+949890729+946307480+943389638+942264282+943373292
895+945120713+945646724+945237762+945119888+945150331+944631069+943914299
885+943362119+942220792+940012745+937672728+936249611+935829328+936413301
875+938487501+941859745+944774663+945386155+943715967+941198463+938938378
865+937198006+936085922+935886915+936531850+937134045+936614782+934935971
855+933217344+932428140+932587181+933349540+934520486+935618623+936071900
845+936292202+937149041+938409893+938980294+938599077+937764508+936399129
835+934262617+932085389+931246171+932445611+935099286+937761584+939086246
825+938950451+938413867+938134328+937794801+937498916+938063318+939423448
815+940437228+940810198+941623771+943406435+945449891+946908925+947356053
805+946928571+946262190+945508829+944207186+943140167+944362777+947853870
795+950498022+950196737+948533073+947579355+947102383+946523284+946757083
785+948399377+950138100+950579904+950091085+949391562+948228114+946696121
776+946103375+947364001+949632410+951068723+950400318+947887313+945291376
766+944474653+945603758+947119030+947562858+946777554+945459339+944547387
756+944947950+946993057+949995031+952499938+953287642+952457497+951107115
746+950189464+949874307+949705369+949210401+948726981+949699820+952813520
736+956033846+956821851+955957288+956170992+957819284+958612387+956974068
726+953738294+950629843+948563966+947481126+947244477+948372008+951048028
716+953601374+953596050+951291050+949789350+950669135+951547044+949057659
706+942975878+936117940+931142019+928810999+928584174+929340235+929921284
696+929504074+927472540+923938181+920611302+919806802+921384235+922142020
686+919803952+915535053+911134482+906819468+902945433+900646132+899593810
676+897778078+894342473+890261408+886397796+883763167+884599611+888247120
666+889545164+887446519+884514804+881100945+876280240+872324173+872654251
656+876357698+879352474+879491869+876739815+871094289+863924719+858948048
646+858849220+861618969+862706233+861023148+860379863+863724288+868264028
636+868223462+862070596+854131993+849023275+848074206+849938077+851349121
626+849137775+844434270+842239946+844423623+846849422+845558502+842184233
616+840537890+841326119+841969480+839640635+834570684+830993135+833446003
606+842211002+852788884+858635666+855734845+846551961
##END=
