##TITLE=<SNM>
##JCAMP-DX=4.24
##DATA TYPE=INFRARED SPECTRUM
##DATE=2/5/2025
##SAMPLING PROCEDURE=Instrument type and / or accessory
##ORIGIN=Admin
##XUNITS=1/CM
##YUNITS=ABSORBANCE
##RESOLUTION=4
##FIRSTX=4497.3318
##LASTX=599.83466
##DELTAX=-1.4281778
##MAXY=1.8138332
##MINY=0.27826619
##XFACTOR=1
##YFACTOR=1.6892638e-09
##NPOINTS=2730
##FIRSTY=0.29547489
##XYDATA=(X++(Y..Y))
4497+174913403+175902671+176821371+176976058+176552733+176200489+176067097
4487+175668895+174853137+174408942+175136171+176623990+177616258+177419106
4477+176442452+175562618+175297632+175418869+175244176+174403967+173173036
4467+172057343+171488965+171898846+173447195+175527210+177023515+177277828
4457+176612523+175743962+174851496+173624552+172175634+171244902+171372579
4447+172341294+173401943+173759215+173149995+172130223+171406717+171065693
4437+170987644+171423406+172446883+173484597+173945323+173854695+173593749
4427+173400867+173251702+173017167+172697490+172438820+172286692+172089064
4417+171723394+171327168+171231424+171668139+172497181+173144402+172976149
4407+171998824+171067898+170988261+171486283+171680241+171387981+171180985
4397+171377148+171739396+171985469+172048452+171904244+171477197+170828370
4387+170318017+170294217+170602850+170779837+170658776+170312936+169653524
4377+168711130+167918731+167568834+167463668+167417852+167518395+167756123
4367+168009147+168366261+168906306+169226388+168704603+167313357+165847732
4357+165278577+166040278+167799946+169588106+170344392+169805617+168757900
4347+168148433+168206352+168541765+168672247+168327466+167656092+167185804
4337+167218424+167363090+167007971+166168872+165545062+165706047+166454994
4327+167100433+167179788+166710435+165938395+165224574+165034021+165591461
4317+166562946+167322848+167465133+167035069+166451536+166130765+166032004
4307+165770688+165243310+164791705+164726305+165061278+165604005+165982112
4297+165899511+165637013+165826102+166543257+167204187+167444086+167484645
4287+167638855+168000714+168485134+168771520+168419822+167343701+166038161
4277+165216617+165258782+165960659+166789789+167393488+167714452+167697039
4267+167345448+167045813+167252791+167831032+168211645+168179695+168070048
4257+168237720+168684702+169117712+169141759+168599032+167905482+167758381
4247+168314640+168919749+168875203+168245817+167713923+167842182+168612740
4237+169461400+169695177+169097212+168110378+167277173+166693675+166238489
4227+166098392+166634485+167732377+168711254+169069320+169015599+168997922
4217+169009019+168787645+168424850+168235356+168203370+168032682+167640620
4207+167344884+167615285+168578461+169746886+170528506+170907672+171213640
4197+171486548+171504260+171114315+170265302+169054165+167832443+167026265
4187+166919477+167577760+168687719+169581526+169739900+169205200+168444080
4177+167997592+168210198+169062475+170207294+171190741+171729110+171876211
4167+171884414+171925027+172016943+172069005+171903856+171477956+171036284
4157+170748222+170461077+170107845+169936257+170127393+170598722+171201926
4147+171739784+171913806+171585132+170996042+170551300+170385357+170245278
4137+169929694+169649942+169654617+169796778+169832786+169818513+169947619
4127+170274864+170623597+170592882+169904748+168962461+168676552+169429415
4117+170530446+171016066+170785623+170543678+170731867+171083670+171234088
4107+171196528+171152669+171215740+171408869+171574847+171447611+171023017
4097+170654154+170605391+170694731+170614759+170402682+170228306+169965173
4087+169505876+169216421+169409179+169770033+169894004+169872745+169932217
4077+170077924+170287408+170510158+170544013+170295188+169948430+169703451
4067+169584278+169519884+169481071+169583131+169955752+170443470+170709515
4057+170679752+170580691+170591700+170711967+170869812+170980040+170943327
4047+170741871+170562873+170629754+170828705+170801007+170474785+170079283
4037+169654529+169107356+168688778+168853132+169647155+170545072+170915629
4027+170621357+170182084+170273082+171068622+172187419+173149783+173717633
4017+173921418+173843492+173398521+172515229+171535275+171093180+171470193
4007+172269561+172861880+173063760+173212148+173608445+174111689+174381491
3997+174321807+174054140+173595160+172911137+172279899+172197634+172848155
3987+173971698+175170591+175979450+175914439+174978785+173909756+173549961
3977+174084537+174924676+175239113+174775723+174171813+174193831+174809579
3967+175396040+175689712+176030771+176695476+177427327+177759124+177550382
3957+177025138+176487087+176235156+176623055+177860426+179569655+180795858
3947+180984488+180756939+180993874+181514724+181428295+180510742+179410557
3937+178831152+179198180+180585086+182438699+183650506+183478794+182500411
3927+182024442+182477759+182872450+182408425+182100833+183470697+186135180
3917+187791623+186771851+183911699+181259001+179984528+180140133+181723978
3907+185161154+190417664+196031128+199808393+200674272+198841001+194864291
3897+190136747+187099220+187518451+190631258+193036189+192265807+190511944
3887+191088579+193623374+195424925+196266122+197526586+197799000+195219852
3878+192096830+191832568+194551530+198369707+202061936+204357962+203769277
3868+201734691+201224002+202055550+201417661+198526599+195711540+195173576
3858+197979320+205030500+215488670+222161213+217649821+207451786+199301338
3848+195560223+195933584+199180472+203684859+208263044+212470126+215588736
3838+216248590+214225330+211062631+207886048+204796829+202270943+201260416
3828+201761948+202994203+205435300+210407030+216354478+218552519+216384488
3818+213942914+212294462+209462766+205522153+202804567+202990057+206207164
3808+210567627+213525993+215654895+219205863+223081606+223901262+222139760
3798+220622266+219467408+217889632+216894559+217761637+220295886+223681794
3788+227643878+232138333+236856879+241994710+248680731+257383679+266522654
3778+274330119+281540661+290386351+302396152+317442122+332907552+344718508
3768+351450029+354774101+356046174+356341327+357242738+359003641+359997884
3758+359651533+360337002+365083600+375081432+388306162+399366266+405540435
3748+411138444+420634074+432972672+441947539+446115014+451387595+462131410
3738+478438444+496345413+509938407+516994226+520626260+524705242+531040978
3728+539782403+549921231+559857598+568033838+572288853+571070519+566900327
3718+564436453+565558391+569263958+573493921+574848771+570652998+562989758
3708+555885916+551619787+551149516+554017043+557787710+559943198+560044993
3698+558973089+558349578+560591619+567173957+576557912+583851619+583874236
3688+577727448+572019210+570343731+571430596+572622855+573246789+575318759
3678+580031977+583707058+581744505+577928216+578148603+580956393+580349466
3668+574503196+567265415+561846015+559002939+558237127+558626737+559291001
3658+559134409+557522653+556529151+559818432+568482479+578543294+581982534
3648+575718073+565565730+557083892+551749175+548954192+547605693+547141245
3638+547959278+550511610+554319466+558948460+565309319+573651360+579728885
3628+578083432+571347430+565814062+564308265+566923121+571825358+575494652
3618+576310180+576989581+579763816+583037537+584711005+585440334+586165428
3608+585759622+583803138+582371721+583510665+587280379+591987599+595744681
3598+598291014+600626065+602823506+603890153+604210041+605903692+609910870
3588+613885021+614324382+611223378+607776588+606284199+606749741+608204375
3578+609625066+609493173+606665976+602694083+601303102+604625550+610945690
3568+616099752+617501953+616155007+613402754+609390637+605441749+604039688
3558+605606668+607888721+609055717+609219860+608983878+608653828+608421163
3548+607828103+606029163+603341410+601181582+599937878+598597636+596712744
3538+595186764+594923260+595418794+595305531+594096618+592637679+591828149
3528+591507802+590931361+589820679+588595958+587876791+587655064+586889675
3518+584560941+581300204+579156783+579364926+581209418+583053733+583570578
3508+582091563+578621096+574118913+570457558+569100838+569698273+570385472
3498+569457528+566810811+563782528+561996785+562327717+564069743+565148880
3488+564071930+561510636+559306315+558489799+558679523+558882514+558466405
3478+557447392+556259578+555602054+555913615+556381274+555305841+552262845
3468+548795483+546358637+544982475+544112644+543554975+543238615+542791138
3458+541974128+541092160+540694187+541060086+541791673+541992688+541060192
3448+539074916+536684539+534901549+534428879+534845870+534670859+532684807
3438+529322875+526409584+525541270+526968312+529694172+532181757+533175154
3428+532396322+530623740+528888630+527661192+526883347+526320914+525534178
3418+523953331+521533881+519153561+517952480+518194178+518894891+518682549
3408+517151418+515307527+514425311+514627208+514983510+514728933+513809105
3398+512626548+511739569+511244035+510386836+508739761+507340206+507321717
3388+508113287+508314902+507633525+506786135+506118836+505260755+503973193
3378+502789401+502420327+502698085+502894619+502972280+503367113+503726096
3368+503207098+501875818+500657695+500062906+499827100+499622310+499491052
3358+499660135+500247232+500963152+500968409+499608937+497660392+496910810
3348+497976963+499532335+500188695+500113080+500084182+500012802+499298505
3338+498028867+497037869+496931169+497524900+498177520+498307296+497637633
3328+496343543+494967275+493967175+493461690+493312720+493033479+491933559
3318+490053606+488572791+488629493+490073860+491766064+492760025+492750428
3308+491784906+490240755+488921154+488610440+489341073+490233239+490284437
3298+489389801+488418351+488209503+488766326+489614104+490532169+491468475
3288+492065734+491888889+491044145+490215209+490109462+490808410+491599592
3278+491686250+491147599+490813209+491128757+491666068+491757984+491010413
3268+489286171+486922434+484858368+483915111+483956499+484109069+483771962
3258+483157167+482936710+483534568+484614624+485342858+485351185+485038565
3248+484765711+484387463+483815961+483382881+483359240+483531181+483297775
3238+482101846+480011598+477757138+476001598+474970129+474792578+475314540
3228+475557438+474631646+473135271+472334350+472246845+471822691+470641193
3218+469125058+467466022+465600571+463991638+463423842+463998766+464922264
3208+465309440+464969828+464425636+464127801+463798844+462904350+461608107
3198+460648478+460242001+459820282+458954368+457844568+456734980+455481079
3188+453930436+452296063+450998691+450325429+450133870+449791400+448740913
3178+447228942+445957857+445028607+443975051+442708906+441660712+441056996
3168+440688239+440273471+439592553+438504312+437073353+435497235+433933501
3158+432526924+431435860+430767362+430585083+430769868+430811821+430151509
3148+428806785+427319231+426160385+425474210+425173587+424981499+424551629
3138+423726997+422577961+421269581+420038367+419090734+418342282+417499444
3128+416551599+415864400+415603896+415422181+414942349+414230662+413564705
3118+413005977+412358896+411410805+410157715+408888641+408030384+407806257
3108+408058505+408368020+408345332+407901454+407242765+406589016+405998038
3098+405471948+404994268+404426683+403654308+402871276+402477820+402576863
3088+402685575+402142407+400842671+399448373+398790848+399007918+399330311
3078+398908169+397813365+396904333+396666516+396661506+396305275+395705828
3068+395314066+395131504+394712996+393791050+392580161+391448555+390505297
3058+389670504+389052321+388947809+389358484+389745307+389452482+388311173
3048+386746804+385344355+384410836+383921900+383704796+383579536+383388259
3038+382962871+382157258+380996154+379752203+378763570+378198737+377933363
3028+377518454+376553073+375320942+374569385+374429059+374201051+373413433
3018+372375084+371582879+371253464+371325020+371409773+371027255+370218784
3008+369548698+369316844+369161205+368547151+367361172+365923545+364600521
2998+363553033+362788421+362251710+361828685+361445003+361180864+361109660
2988+361059344+360732611+360071911+359381536+358983881+358742148+358118179
2978+356878074+355487092+354542176+354080551+353693269+353066160+352215241
2968+351381013+350813428+350536798+350287267+349759307+348912199+348009836
2958+347358910+346968241+346506121+345727571+344871466+344387611+344304164
2948+344151629+343568766+342724693+342013889+341591288+341398776+341426969
2938+341667114+341894346+341769545+341174297+340297903+339428637+338782615
2928+338427266+338167008+337604222+336543221+335248883+334137884+333361098
2918+332833949+332484387+332328677+332393635+332565823+332519354+331991746
2908+331118528+330267292+329641700+329244574+329001853+328735138+328275100
2898+327672690+327046886+326341833+325507781+324734982+324250880+324030741
2888+323852555+323514918+322964270+322338678+321917241+321905421+322156081
2878+322165537+321558716+320563203+319763553+319416319+319276169+319051372
2868+318703151+318276915+317739710+317091924+316477729+316067830+315871967
2858+315734816+315489413+315064377+314497745+313933372+313547149+313381771
2848+313296312+313132098+312854093+312524995+312238803+312046609+311861225
2838+311502700+310895527+310148627+309441492+308896842+308510584+308161692
2828+307774622+307445807+307279935+307177716+306940217+306483073+305828724
2818+305053737+304350837+303942738+303822277+303739429+303508316+303163588
2808+302761698+302228657+301530626+300846709+300402761+300196982+300006482
2798+299604345+298897775+297966197+297070362+296502248+296299504+296187899
2788+295863547+295236332+294423874+293663336+293153159+292835141+292463367
2778+291977360+291567937+291309250+291020535+290557710+289961016+289273341
2768+288460512+287558713+286729107+286119463+285752840+285554048+285423725
2758+285277436+285058814+284748559+284343723+283801420+283039083+282072802
2748+281144064+280546964+280264583+279968512+279478623+278998120+278755328
2738+278633315+278302118+277587168+276635283+275785706+275266990+274981592
2728+274636335+274095160+273526834+273166246+272980438+272670094+272042208
2718+271266040+270659978+270310098+269998413+269478603+268784524+268226660
2708+268016065+267967444+267717295+267156114+266503494+266034582+265831185
2698+265746785+265599632+265406414+265316668+265304972+265125286+264634427
2688+263976955+263380173+262918159+262535041+262173658+261810547+261435280
2678+261065887+260772903+260634624+260628449+260595176+260358171+259872358
2668+259239920+258631000+258217237+258103304+258237226+258403451+258354635
2658+258000186+257512449+257190726+257142545+257174584+257059098+256765867
2648+256365865+255891643+255378732+254891031+254455463+254072856+253773557
2638+253567178+253377313+253110122+252755461+252398048+252164641+252135955
2628+252250735+252339034+252287113+252092255+251758606+251291670+250808539
2618+250467850+250274721+250113489+249943418+249810202+249721197+249641560
2608+249561218+249485162+249388007+249210826+248941695+248715433+248712417
2598+248887551+248973856+248839864+248647829+248589556+248646100+248663230
2588+248572390+248504891+248643171+248939295+249099345+248891838+248355762
2578+247724030+247262122+247113169+247209584+247389305+247564104+247687634
2568+247685905+247549443+247386394+247312120+247376726+247597271+247956431
2558+248350205+248598183+248566304+248291791+247933126+247594113+247270696
2548+246949150+246643728+246355437+246095497+245903215+245765976+245601833
2538+245372590+245120942+244869117+244597692+244332777+244134514+244004650
2528+243906489+243830945+243764169+243679733+243607771+243588753+243549905
2518+243364132+243025543+242670741+242467009+242507268+242727337+242934527
2508+242999556+242963937+242906582+242828286+242714705+242569581+242353852
2498+242027983+241662260+241395828+241320549+241450360+241687541+241799534
2488+241612862+241254743+241011792+240965517+240936548+240735516+240347387
2478+239925774+239652038+239555870+239507266+239401007+239249619+239096344
2468+238961311+238851312+238718536+238468617+238102012+237772350+237609583
2458+237555281+237475150+237357547+237263338+237155685+236948707+236661474
2448+236367520+236069526+235757859+235489168+235290905+235101622+234887446
2438+234701373+234587740+234557766+234642784+234798582+234810808+234527598
2428+234136029+233972857+234110360+234327200+234430389+234447414+234496565
2418+234564064+234515389+234348053+234248445+234297420+234344560+234289410
2408+234240153+234305535+234449584+234591762+234701179+234811055+235006636
2398+235341150+235768832+236239508+236844759+237876669+239840033+243381192
2388+249069689+257242930+268130175+282023863+299129170+319244378+341758501
2378+366010309+391482534+417542985+443212308+467435183+489459276+508813682
2368+525055122+537501091+545359524+548492425+547616843+543437407+536071332
2358+525094605+509763114+489646813+465862664+442262982+424220838+415551322
2348+417506218+429199395+446836932+463766947+474737711+479236048+479590444
2338+478381354+477228542+476693595+476821890+477143648+476510046+473911280
2328+469420495+463785613+457437880+450304612+442294455+433659377+424842337
2318+416086798+407386655+398785662+390388647+381972826+373009991+363325026
2308+353381073+343756797+334681405+326141947+318113125+310580578+303517102
2298+296918286+290809147+285190107+280001855+275193704+270792277+266812850
2288+263168996+259802212+256806462+254274154+252133397+250270275+248691634
2278+247444102+246461890+245587772+244711396+243843435+243053012+242352899
2268+241689994+241050288+240494223+240048917+239636989+239169453+238657089
2258+238170358+237719847+237251853+236769092+236380363+236170580+236071519
2248+235943772+235754542+235570710+235385749+235079004+234597143+234086102
2238+233760180+233679096+233726360+233770871+233760003+233679255+233538170
2228+233409894+233395921+233527850+233742679+233953238+234120504+234267234
2218+234438469+234646400+234865728+235103174+235434512+235910322+236458289
2208+236951582+237334330+237630136+237920668+238345351+238979376+239694397
2198+240279483+240682889+241017473+241388806+241828908+242330423+242855578
2188+243353935+243821030+244289112+244706015+244919115+244909800+244920633
2178+245165347+245540209+245782489+245769928+245559756+245273970+244993812
2168+244703051+244374430+244085257+243918503+243802488+243589652+243271052
2158+243014870+242970023+243077658+243150979+243124657+243138347+243389361
2148+243947418+244739729+245819696+247598347+250511479+254479350+259044145
2138+263962930+269310068+275142119+281401393+288041404+295040539+302350706
2128+309924500+317804528+326099147+334757689+343496186+352069834+360380826
2118+368235590+375293561+381227196+385721581+388500579+389489918+388867325
2108+387038430+384512420+381591296+378288148+374564374+370390301+365676624
2098+360348505+354343808+347610840+340300020+332717370+325023079+317296715
2088+309830856+303048384+297151657+291918699+286863699+281742134+276812517
2078+272451666+268743488+265540707+262649680+259951483+257523141+255537335
2068+254022065+252849970+251842759+250838495+249837442+248992927+248355109
2058+247839640+247410881+247049393+246707311+246432692+246309691+246327298
2048+246483766+246810165+247244180+247728370+248334715+249153242+250257785
2038+251738406+253552623+255512019+257506557+259530787+261575235+263647893
2028+265713159+267617687+269285104+270812018+272240383+273481547+274442447
2018+274988579+274935758+274258227+273150474+271845939+270487808+269094603
2008+267577745+265867052+264032811+262250631+260670702+259309889+258046232
1998+256800728+255765696+255279230+255319525+255310756+254708681+253614001
1988+252500408+251650089+251114225+250851956+250712318+250543535+250355011
1978+250211015+250090396+249949417+249789490+249716363+250007936+250845852
1968+251862730+252334024+252018793+251422858+251096583+251109550+251293734
1958+251595187+252010872+252447851+252810504+253101442+253395343+253797374
1948+254457033+255597177+257317327+259097971+259839772+259058611+257625906
1938+256667300+256434741+256587187+256869338+257222941+257629135+258055406
1928+258563166+259456019+260945321+262571314+263656432+264382973+265338862
1918+266167799+266000215+265069590+264543041+265073806+266336546+267551194
1908+268195169+268381100+268557822+268924656+269345052+269731310+270263628
1898+271156553+272225687+272932504+273209734+273768197+274905943+275651819
1888+275029579+273537490+272315627+271771171+271664754+271720397+271774965
1878+271755417+271691023+271726149+272315486+274199020+277521539+280753819
1868+281425457+279022325+275679182+273444322+272680944+272726902+272928835
1858+273013570+273017469+273096524+273338504+273801788+274638222+276088287
1848+278497294+281974006+285320201+286059409+283521861+280200753+278425913
1838+278384225+279025624+279707231+281021839+283824213+287436823+289704586
1828+289786711+289029155+288246635+286957432+285282323+284250855+284265515
1818+284731940+285112570+285697497+287113848+289240773+290950178+291283228
1808+290623357+290200191+290973413+293184809+296185500+298547578+299208208
1798+298797427+299172182+301697768+305889413+308947264+308156152+304755408
1788+302215355+302117617+303680680+305637729+307525973+309102127+309974287
1778+310602208+312527465+316943977+323071852+327699259+328108840+325451114
1768+322242175+319838461+319329731+321349551+324590387+326721140+327488788
1758+328177962+328904397+329611885+331824498+336860216+343250007+347436747
1748+347969471+346777388+346106526+346873749+348935840+351269408+352647969
1738+353751065+357116631+363387867+368255419+367118027+362427391+358120649
1728+355258097+354067037+354542459+356011948+358420566+363214903+371401199
1718+380559898+384880895+382056944+376164945+371395730+369503569+370928318
1708+375202634+380543526+384830121+388473163+393949759+401314706+406454618
1698+407051736+404908597+400682409+395419989+392269446+392777083+396049534
1688+401418830+409780454+420213837+426017307+422869516+416770362+413654680
1678+414939702+419518275+424593123+428007206+430900314+434663712+437150097
1668+435887692+433545338+434175446+437911640+441433481+442406413+442721643
1658+445858849+454091262+468026832+483512833+489571445+486540516+485914324
1648+490561843+495208021+494543475+491213052+490278509+493380572+500506854
1638+511277873+523038725+529449405+528237103+525965847+528151680+535147340
1628+544475933+553945134+563313139+572418594+580077388+586753266+595219438
1618+606824756+618293453+624662991+626902138+629160198+632784681+636857488
1608+640479290+643623270+646604519+649386693+651635508+653520400+656007526
1598+659965870+665368475+671510006+677638975+683323996+688498804+693350196
1588+698132572+702866608+707169187+710633902+713457359+716655818+721565289
1578+728585965+735706849+739983176+742916649+748889520+759246759+771152983
1568+780801146+788327095+796450338+806956124+821244961+841447815+866128470
1558+882551378+883646111+879755231+877340720+876617532+876591492+876363978
1548+876008311+876665871+878616674+880758084+882030863+880091068+871233839
1538+859130305+851540704+849561320+848681468+844270002+837627363+833410455
1528+833161841+835164442+837933349+841546753+844838293+845132070+842895463
1518+840928288+839377257+837125478+835097401+835383205+839178182+846213255
1508+853402449+853520793+844456233+835378265+831942342+833097694+835933430
1498+837616848+836406099+833124933+830827214+831762109+835266343+837718820
1488+835785165+830528073+825601878+823091041+822620488+823057873+824267987
1478+826920173+831223387+836463966+840596897+840159300+834420717+828104388
1468+825697216+827512034+830306628+830595748+829422190+830973150+837158574
1458+844412269+844798068+837101696+828696037+823598854+821582210+821353214
1448+821379889+820610407+819300509+818227299+817638473+817760416+819229305
1438+821741413+822682730+819921797+815738197+813327921+812956023+813047198
1428+812837962+812982839+813776315+814734921+816174312+819060505+822235324
1418+822049657+817424721+811391090+806479573+803061221+800589268+798834928
1408+798211382+798828506+799617394+799566303+799507589+800907039+803559437
1398+805803454+806449864+805416666+803287888+801242805+800354274+800626740
1388+800974009+800201845+798606991+798116326+800354556+805198679+811213750
1378+817127908+822440185+826586454+828621657+828635912+828299370+829037237
1368+830989028+833917491+837682336+841389384+843368839+842947049+841300750
1358+840087038+840037357+840559213+840475942+839439216+838217247+837570908
1348+837551007+837884586+838498817+839665036+841783158+844708658+847269740
1338+848114236+847317515+846465679+847100304+849469086+852526973+854998927
1328+856585595+858028233+859964358+862197789+864396007+866936059+870483623
1318+875090423+880094738+884673381+888355942+891282359+893970889+896752428
1308+899677151+902688462+905491313+907745209+909619657+911657189+914095905
1298+916596510+918403071+918722395+917451521+915521747+914113759+913693169
1288+913842069+913572708+911911307+908876850+905802098+903975284+903165366
1278+902266531+901137360+900655799+901088315+901657875+901883272+902296029
1268+903517645+905458498+907625313+909520649+910786935+911607085+912752558
1258+914802369+917454344+920127489+922856173+925723876+927892737+928374792
1248+927611520+926962570+926663429+925682734+923671948+921703502+920791753
1238+920664659+920253102+918740390+916028572+912777257+909986685+908152038
1228+906879753+905504227+903852635+902153833+900635616+899742992+900182282
1218+901960263+903845084+904751328+905344812+907233868+910713967+914220741
1208+916221507+916864460+917318005+918224955+919419755+920687029+922120634
1198+923800665+925440754+926552212+927213089+928420097+930955422+934152047
1188+936392182+936961108+937003308+938266136+941300029+945211657+948731980
1178+951257919+953048179+954598504+956034226+957197058+958140281+959210597
1168+960572010+962037371+963363076+964311379+964770218+965020807+965511966
1158+966604159+968811762+972485573+976754278+979836441+980866674+980702390
1148+980751224+981452607+982463928+983625490+985078219+986870595+988917020
1138+991351925+994255901+997273492+1000069427+1002558106+1004421898+1005101123
1128+1004695987+1004220636+1004474825+1005392642+1006787999+1008689404
1120+1010882823+1012717752+1013456890+1013338405+1013946919+1016651044
1111+1020717500+1023842074+1024622494+1023530795+1021582955+1019571816
1103+1018467979+1018928158+1020421534+1022120195+1024614520+1029275587
1094+1035640256+1040780134+1042309712+1041113218+1039704736+1039120003
1085+1038528778+1036899839+1034421816+1032571644+1033053205+1036561602
1077+1042149803+1047460809+1050365420+1050707256+1049501376+1047230191
1068+1044320781+1042380139+1043015682+1045985498+1049798400+1053074132
1060+1054676608+1054376126+1053859069+1055209544+1057868858+1058659440
1051+1056156506+1052937511+1051470528+1050891934+1050066703+1050573598
1043+1053835146+1058226218+1061726147+1064355117+1065960062+1065251411
1034+1062381096+1059774144+1059676618+1062341084+1066440283+1070218324
1025+1072690913+1073741823+1073273176+1070990205+1067750886+1065870299
1017+1066402599+1067275182+1065916380+1062475941+1058364603+1054310921
1008+1051908195+1053181044+1057533585+1062116887+1064720945+1064433236
1000+1061524462+1057896450+1055376157+1053912631+1052998342+1052842667
991+1052594335+1050617422+1047679573+1046247309+1046591825+1046559505
983+1045117220+1043878244+1044427622+1045588267+1044466011+1039911291
974+1033688888+1028261514+1025081614+1024727924+1026247763+1027158736
965+1025450477+1020897803+1015111798+1010286658+1007516692+1006322527
957+1005326096+1003499000+1000946809+998018416+994516511+990318163+985981782
947+982375717+980020272+978902110+978379689+977312689+975226605+973331269
937+973305582+974952093+976009284+974818577+972283464+970526513+970547049
927+971593372+972108030+971126912+969065598+967145069+966302619+966823063
917+968099723+968339939+965947093+961620027+957709105+955627397+955019517
907+955131581+955867260+957354638+958965865+959020344+956330615+952585741
897+951157217+952946701+955260651+955363258+953798607+952814102+952746920
887+952143275+950857724+950629010+952224500+953976017+953963667+952319485
877+950380608+948674184+946937981+945399087+944695587+944773283+944974263
867+945109402+945367120+945567747+945810927+946818225+948440743+949062030
857+947569854+944917385+942586427+940677612+938800906+937615280+937834961
847+938692724+939181554+939983498+942258353+945535356+948282669+949137680
837+947386798+944097376+942017714+942679296+944700033+946144082+946940733
827+947783747+948160161+946915751+944297226+942214106+942254895+944040921
817+945752637+946101388+945347078+944963113+946830787+951581548+956965310
807+958735599+954831381+948261075+944127226+944456641+946939604+948350556
797+948208924+948465089+950510666+953552181+955658588+956049892+955793657
787+955878269+955860627+955236305+955157338+957056838+960132367+962052049
777+961927354+961056112+961017088+962373913+964353932+965034215+963229842
767+960421840+959197260+960097506+961075518+959764845+956241275+953546465
757+954467952+957853419+959715517+958685354+957891173+960111126+963646833
747+964684476+962788576+961279039+962374337+964792800+966049841+965332721
737+963412686+961189981+959344678+958394187+958274220+958012622+956962347
727+956427012+958733270+964033409+969380123+971904580+971497045+969919974
717+968656934+968330413+969108998+971435298+975484534+979371322+979893672
707+975928271+969119513+961285249+953670031+948216052+946321633+946366303
697+944896355+941057272+938271711+940058865+945043562+947590742+944106055
687+936632257+930037252+927808407+929573756+931339175+930484164+930089967
677+934337784+941263968+944144657+939856968+930642661+919695679+912256671
667+913866910+919779868+921505909+917586872+911224744+905377556+900897144
657+897723807+896042717+896228596+897874612+898401832+895134074+890080361
647+888412256+891814024+896817563+899076752+897422408+894282026+893649942
637+896898152+899527757+895902921+887433538+880589636+878458248+878764869
627+877451584+872639216+866682012+864599739+868643400+874534059+875608539
617+870523706+864047115+862055311+867062660+875204533+879712114+878361639
607+873427681+866922016+858423488+848602643+842766111+846520229
##END=
