##TITLE=<SNM>
##JCAMP-DX=4.24
##DATA TYPE=INFRARED SPECTRUM
##DATE=2/5/2025
##SAMPLING PROCEDURE=Instrument type and / or accessory
##ORIGIN=Admin
##XUNITS=1/CM
##YUNITS=ABSORBANCE
##RESOLUTION=4
##FIRSTX=4497.3318
##LASTX=599.83466
##DELTAX=-1.4281778
##MAXY=1.7478142
##MINY=0.18995227
##XFACTOR=1
##YFACTOR=1.6277788e-09
##NPOINTS=2730
##FIRSTY=0.20926034
##XYDATA=(X++(Y..Y))
4497+128555762+129088643+129429191+129501245+129354987+128887743+128277215
4487+128068040+128368749+128706112+128924790+129331726+129793120+129683809
4477+128918162+128188501+127970656+128021399+128008116+127937051+127802538
4467+127379958+126608159+125906391+125889566+126716711+127828335+128595235
4457+129101614+129807813+130654200+131103722+130850221+130025694+129069702
4447+128623843+129027062+129763689+129864240+128911361+127384059+126137711
4437+125761937+126254291+127026108+127266325+126633215+125712384+125438625
4427+125966022+126578847+126760468+126685852+126564786+126214927+125460110
4417+124515571+123889756+124014208+124830378+125694936+125835098+124981030
4407+123632621+122712752+122774424+123495123+124137288+124372425+124352350
4397+124231659+124022694+123732586+123361141+122906530+122458968+122156876
4387+122086800+122242459+122435816+122341573+121834691+121132071+120445921
4377+119828519+119444524+119495943+119787013+119894191+119786583+119761445
4367+119861337+119841847+119597748+119248695+118926775+118765769+118946512
4357+119474412+120015449+120174011+119894887+119475483+119202896+119014894
4347+118630835+118094769+117872274+118168040+118613167+118919845+119205761
4337+119402853+119185549+118703603+118530706+118802899+119114484+119163230
4327+118940534+118502465+117930093+117349756+116892380+116694153+116836786
4317+117273016+117895251+118503526+118721069+118367741+117882692+117911015
4307+118529863+119255780+119673967+119750982+119714346+119829489+120148745
4297+120438872+120435054+120076472+119575293+119391978+119896480+120870927
4287+121631603+121724693+121159699+120134125+119019847+118350293+118341322
4277+118637280+118748843+118548657+118339491+118565153+119306385+120058969
4267+120323217+120305668+120610789+121343975+121934079+121859096+121243580
4257+120655426+120565384+121076166+121898212+122543709+122775615+122761297
4247+122703534+122643243+122650594+122745222+122724817+122520173+122436723
4237+122698902+123075930+123161504+122751319+121926417+121031585+120528382
4227+120688473+121424057+122427138+123455742+124483970+125496068+126193159
4217+126169531+125494210+124879939+125043224+125901723+126580586+126340195
4207+125443715+124921307+125436996+126582829+127397415+127389441+126846381
4197+126321813+126107401+126136210+126171728+126083573+125964091+125907517
4187+125815654+125605032+125436566+125480973+125645805+125827326+126221821
4177+127027829+128010935+128728961+129067276+129239478+129380481+129432340
4167+129404804+129508403+129909187+130435083+130719342+130685334+130675685
4157+130935310+131186815+131001120+130429115+129922928+129722467+129691947
4147+129676000+129616644+129437430+129167882+128996038+128996038+129123209
4137+129477865+130067273+130447863+130198994+129586865+129288682+129648208
4127+130400498+130881831+130542371+129512257+128521617+128127982+128278964
4117+128678164+129206669+129812189+130267139+130312672+130011349+129735448
4107+129760897+130051500+130485835+131046233+131662326+132125670+132348522
4097+132521859+132865749+133337561+133674814+133670777+133386454+133115057
4087+133108768+133351036+133637868+133787385+133703769+133389310+132996957
4077+132788651+132949968+133407427+133845890+133996579+133884548+133676728
4067+133439805+133234905+133224084+133434642+133600106+133472303+133180016
4057+133107798+133435164+133855163+133847492+133273527+132537824+132125872
4047+132223539+132731922+133299525+133423840+132908829+132160923+131767271
4037+131851197+132037670+132015178+131926592+132081547+132428220+132612560
4027+132522408+132429446+132570523+132887234+133195917+133397119+133506760
4017+133580763+133584333+133373263+132871745+132181878+131509852+131136869
4007+131375375+132283554+133470774+134405611+134872031+134992016+134911760
3997+134664201+134327195+134135120+134268342+134529651+134486626+134147817
3987+134173952+135011872+136128988+136614276+136304027+135792660+135612723
3977+135910173+136612655+137438098+137940687+137900737+137561086+137312730
3967+137334709+137673253+138397705+139378029+140079870+139976848+139172561
3957+138318795+137941062+138139847+138998685+140782325+143182443+144843315
3947+144771372+143834201+143497286+143716989+143301925+141882396+140369677
3937+139920183+141294196+144463284+148152720+150288507+149866284+148207343
3927+147445651+148108861+148737651+148068582+146989328+147263206+148965318
3917+150046028+148656233+145497334+142839450+141967723+142743833+145144482
3907+149932469+157193589+164819187+169633209+170403817+167964345+163124014
3897+157074126+152405858+151497698+154086458+156740067+156548083+155542979
3887+157080717+160343288+162126800+162578821+163817396+164363816+161809860
3878+158617374+158625613+161919748+166475198+171108295+174176777+173385956
3868+170308008+168945227+169635699+169157039+165986890+162412798+161467325
3858+165163425+174571125+187798911+195604336+189592072+176826230+166388928
3848+161154102+161210639+165277121+171259121+177705609+184115316+188963227
3838+189455453+185527530+180664441+177068782+174297485+171940017+170771197
3828+171004137+171988919+174525518+180421688+187907719+191061519+188759801
3818+185794103+183212062+178416825+172242603+168574241+169667538+175033051
3808+181432852+185264894+187611120+191748365+196163681+196359528+193217867
3798+190486520+187931850+184279562+181183251+180763930+182850156+186293049
3788+190713033+195756627+200276412+204073666+208981209+216109747+223466135
3778+228735492+233135740+239765424+250535704+265392112+281790743+295624103
3768+305264433+312179053+317475397+322118673+328009935+335585404+342675366
3758+348110012+354608644+366000940+383831741+405526679+424265184+436567782
3748+447484128+461476535+476052327+484783361+488805170+495080730+506805290
3738+522868801+539376038+551429457+556671790+557278793+557390402+559378750
3728+562823950+565546253+565674193+563432087+559642394+553941321+546747074
3718+540875658+539494861+543634358+551177934+557026574+556884023+551989626
3708+546407193+543208134+544111114+548370752+552287141+553185396+552851668
3698+553836926+556435939+560558665+567262426+577240310+587934427+592817289
3688+588412574+580315237+575269575+575272980+579192701+585377230+593778014
3678+604602267+612589972+609544486+599754374+593638905+591658209+586608483
3668+576398116+566426639+560500224+558285362+557745039+557860786+559359307
3658+562506955+565541090+567586341+571431510+580054157+591470949+597204575
3648+591708741+581324992+573455011+569207933+566549380+563886140+561611738
3638+561298845+563391406+566465966+569813764+575684923+586217118+597176526
3628+599969207+595755853+592663277+594607685+601355460+610225565+616414818
3618+616920794+614839328+614689637+617033868+620131753+623351427+626691938
3608+628735762+627916709+625484084+624872504+627935750+632987308+637243247
3598+640098288+641835992+641505705+639277258+638255346+641477070+648882087
3588+656680591+659907442+657726084+653535762+650484454+649372610+649246793
3578+649363749+650502982+653309102+656219214+657510628+658539058+661452540
3568+664430833+663301853+658539424+654887155+654563459+655508915+654849732
3558+652220620+649271620+647135082+645658018+644641965+644827834+647136034
3548+651007200+653705519+652310112+647429630+643119277+642150460+643167685
3538+642710044+639333941+634980526+632580564+633705443+637747319+642321536
3528+644968078+645152628+644436909+644026138+643405257+641924605+640090305
3518+638572524+637112231+635281373+633266404+631734634+631507608+632534866
3508+633529168+633690650+633566518+633247875+631830352+629772467+629039025
3498+629903263+629931239+627381073+624090728+623112537+624610911+626043888
3488+625865782+624853756+623676661+621948477+619937536+618713204+618440626
3478+618333704+618221436+618832283+620466654+622082057+622186050+620935793
3468+620435163+622031452+624471034+625666877+624971517+622739408+619436613
3458+616204196+614169563+612713921+610499791+607947721+606785126+607718132
3448+609812524+611505591+611770407+610741172+609249535+607701983+605781193
3438+603329235+601117302+600102054+600152842+600180781+599596737+599268684
3428+600452810+602931975+604831125+604567737+602653978+600926856+600413740
3418+600659587+600857869+600628939+599592893+597392274+594586301+592617799
3408+592282715+592823807+593058706+592725893+592216804+591799735+591660040
3398+592292675+594167730+596714344+598104734+597028336+594546095+592645664
3388+591525143+590100076+588489140+587764999+587643760+586713940+584934456
3378+584000571+585117944+587512963+589032868+588028496+584958660+582054516
3368+581088335+581788345+582755258+583234211+583467865+583927191+584616399
3358+585060419+584997803+584626652+583959743+582868735+581901639+581750410
3348+582106402+582273816+582375648+582803996+583394521+583914777+584234958
3338+584066922+583498806+583214767+583566914+583993651+583538866+581776518
3328+579450193+577964452+577994185+579026276+580132664+580689208+580601949
3318+580207912+579746865+578881052+577240310+575190591+573625757+573216707
3308+573913861+574966787+575636589+576047433+576975642+578691632+580435598
3298+581412141+581794644+582025588+581744368+580508209+579049235+578578888
3288+579247627+580226404+581053292+582162243+583881639+585418754+585665517
3278+584816585+584017489+583669406+583323996+582719410+581886919+580887490
3268+579943939+579133162+578201877+577371327+577426765+578422386+579318518
3258+579269414+578463177+577580191+576944993+576353150+575623077+574965066
3248+574616141+574479449+574462899+574777696+575510625+576285994+576646673
3238+576504013+576098477+575671228+574984254+573440987+571181378+569328476
3228+568631359+568649631+568664351+568652743+568818289+568844910+568345086
3218+567631344+567381322+567551885+567114639+565306630+562872357+561238866
3208+560563352+559655100+558022487+556790503+557054842+558450469+560002011
3198+561389875+562507467+562624642+561094338+558551825+556294450+554597757
3188+552759539+550667271+549248282+549383912+551088478+553475075+555056826
3178+554636315+552459864+549920866+547930430+546233737+544254982+542078055
3168+540398573+539602149+539178782+538324320+536882812+535297838+533924255
3158+532815890+531891197+530976683+529976925+529217155+529277500+530202450
3148+531100669+530844422+529124074+526633997+524369006+523009520+522578060
3138+522239132+521055079+519338064+518466612+519091374+520283043+520637241
3128+519644440+517900474+516447468+515971518+516340839+516799725+516616639
3118+515642110+514412799+513615497+513349143+513091578+512404933+511438350
3108+510619773+510067586+509530925+508813595+508028669+507365239+506805400
3098+506157093+505286556+504343115+503648634+503211425+502562532+501378040
3088+500054659+499236888+498923921+498630178+498342697+498406118+498485394
3078+497795563+496472622+495553238+495475792+495645257+495548880+495348438
3068+495182306+494672668+493539001+492247330+491534541+491493090+491596900
3058+491413887+490824863+489841766+488633070+487521775+486765411+486418427
3048+486290560+486010805+485386812+484581966+483743287+482870700+482192367
3038+482082771+482509581+482971287+482890473+481879070+479965640+477725915
3028+475930795+474958316+474534875+474017475+473083774+472059628+471312382
3018+470676964+469918842+469314366+469214511+469312572+468808061+467339639
3008+465531923+464366508+464129302+464331868+464473980+464350324+463832301
2998+462973921+462106350+461326881+460228256+458638778+457259519+456951862
2988+457634919+458354702+458264001+457221511+455704242+454430550+453793375
2978+453480115+452901711+451914732+450772715+449676800+448811427+448404354
2968+448321416+447979888+446977712+445522803+444103704+442971612+442073136
2958+441385722+441049101+441037053+440937821+440385634+439539814+438768254
2948+438148252+437580100+437050067+436513039+435789997+434837804+433940684
2938+433398164+433118701+432697567+431927508+431128266+430800615+430954334
2928+431052615+430694901+429987421+429109012+427986806+426600150+425151978
2918+423812156+422667211+421913519+421730214+421992759+422378594+422691341
2908+422914450+422981532+422623636+421631274+420308479+419313371+418854119
2898+418441700+417644690+416613221+415641914+414758892+413978433+413445580
2888+413091895+412584930+411830727+411160596+410875971+410921669+411059496
2878+411034303+410540631+409370493+407715983+406177915+405376658+405480834
2868+406029030+406281029+405837119+404884011+403838811+402852454+401758150
2858+400509542+399458812+398960892+398851626+398648254+398156083+397554610
2848+396998322+396449504+395853303+395176654+394305349+393202660+392170129
2838+391612669+391484692+391318230+390868169+390345642+389929561+389422157
2828+388526831+387287340+386146642+385544546+385466331+385484127+385214003
2818+384574520+383719436+382958019+382569914+382461747+382185067+381483812
2808+380625908+379984046+379464961+378650998+377468630+376367881+375744291
2798+375508660+375342528+375045892+374490117+373559345+372341971+371160664
2788+370258747+369627980+369224092+369081139+369036136+368656966+367745564
2778+366654300+365817854+365226120+364589018+363790142+362965450+362269174
2768+361704757+361174870+360635426+360111361+359567121+358893804+358053111
2758+357135668+356299295+355699872+355378446+355146989+354679608+353813356
2748+352764347+351979568+351683884+351586446+351142756+350128607+348855391
2738+347791297+347070524+346457004+345741395+345005939+344428852+344003178
2728+343584314+343093095+342560754+342059099+341620499+341146123+340456183
2718+339548040+338694714+338148276+337849224+337524869+336952616+336098264
2708+335152333+334414900+333998892+333735615+333485446+333338209+333337952
2698+333221583+332633365+331507424+330149989+328993289+328277863+327920846
2688+327666759+327341342+326944376+326544663+326151358+325705471+325165074
2678+324550016+323901379+323252633+322656469+322179347+321823465+321488967
2668+321081089+320629563+320205170+319774186+319286298+318828694+318494745
2658+318181815+317702569+317021563+316295958+315766290+315552849+315441350
2648+315035302+314258652+313467721+312949185+312601139+312220943+311793694
2638+311341875+310776323+310100993+309545181+309276191+309160444+308998340
2628+308792734+308594086+308292617+307758849+307036154+306287992+305675332
2618+305283986+305056557+304843152+304579435+304305685+303999383+303563748
2608+303012587+302508076+302176654+301998145+301917258+301977676+302243919
2598+302588304+302680909+302293060+301529958+300678005+299944563+299421651
2588+299134463+299010898+298930121+298842880+298705694+298361200+297717397
2578+297004607+296610222+296646784+296841148+296842924+296539496+296076124
2568+295637121+295239129+294754482+294148853+293658879+293630995+294132814
2558+294808365+295193687+295120379+294752615+294324414+293929370+293525427
2548+293074798+292627593+292257997+291994555+291830913+291705810+291491435
2538+291121913+290673664+290249985+289940460+289900255+290208315+290627105
2528+290766617+290529594+290220032+290172686+290351946+290379647+289963914
2518+289194166+288397541+287907182+287956304+288484562+289031842+289135615
2508+288828598+288502285+288368815+288294281+288076683+287686509+287233079
2498+286822344+286497165+286255089+286059663+285854644+285607332+285329535
2488+285071201+284912191+284894249+284926765+284854171+284656677+284477308
2478+284393967+284253302+283820121+283084464+282347305+281945816+281925787
2468+282061765+282172019+282268743+282363087+282300344+281921063+281294122
2458+280677965+280282885+280110290+280006388+279855031+279687911+279584211
2448+279541204+279506472+279460042+279405537+279344368+279276279+279166738
2438+278935519+278556880+278158851+277942627+277974044+278095229+278081863
2428+277870656+277595404+277414424+277350783+277326433+277314514+277344833
2418+277338626+277130549+276762272+276537699+276654581+276987559+277313086
2408+277540314+277677939+277745022+277748830+277681491+277569351+277521346
2398+277634823+277855935+278027340+278070201+278057842+278139975+278462975
2388+279132648+280179972+281598722+283447193+285815171+288677223+291935986
2378+295624433+299869607+304635148+309699156+314872832+320040539+325038855
2368+329656719+333652750+336709551+338517194+338902443+337918906+336018475
2358+333911414+331883152+329558878+326787801+324456679+323806248+325283934
2348+328577355+333189506+338527300+343587756+346977444+347671888+345857324
2338+342765884+339577591+336769896+334335550+332071255+329702161+327089929
2328+324293769+321339167+318125937+314660379+311227410+308215355+305765941
2318+303641999+301483820+299179557+296912552+294844030+292870767+290804973
2308+288727901+286955045+285597518+284384648+283035671+281568165+280118968
2298+278751280+277587605+276847187+276556081+276389088+275960796+275229752
2288+274514033+274094748+273908825+273705691+273383753+273027779+272716295
2278+272449558+272209825+271969214+271671424+271295201+270916397+270637319
2268+270465109+270332536+270238540+270270287+270443028+270614122+270639681
2258+270545502+270441729+270349050+270239638+270151007+270100402+270003165
2248+269818157+269648271+269612185+269736354+269973761+270232352+270453025
2238+270706782+271105726+271626752+272131977+272523469+272823217+273154493
2228+273643698+274300061+275016018+275678001+276246886+276789808+277458932
2218+278354222+279405427+280474722+281541947+282683012+283916864+285210292
2208+286597075+288140415+289793937+291443503+293072455+294769422+296584297
2198+298426653+300106758+301518039+302784004+304137649+305678408+307338887
2188+309012511+310614219+312066785+313277898+314145834+314641814+314884183
2178+315096123+315496349+316145534+316815848+317122444+316860924+316136234
2168+315203045+314283332+313462375+312663645+311721265+310473462+308858536
2158+306978006+304981309+302907294+300744776+298523139+296259924+293967689
2148+291669230+289398947+287557928+287176597+289133546+293112386+297917510
2138+302694310+307307872+311843310+316363992+320970249+325715870+330564568
2128+335497486+340560688+345827115+351334483+357009229+362718540+368428804
2118+374210142+380143734+386356568+392997310+400111769+407913276+417314367
2108+429741537+446295791+467384422+492821927+521567024+551541505+580323879
2098+605948204+627290775+644533798+658724268+670306204+678978027+684560021
2088+686789201+685146115+679274773+668613758+652672988+632246982+608753445
2078+583027910+555950249+528799243+502576300+478080515+456064079+436675729
2068+419574598+404605721+391702381+380633305+371269234+363480653+356852470
2058+351076735+346192225+342152729+338794862+336155167+334266930+333038900
2048+332624504+333406097+335676910+339756282+346125655+355320481+368078524
2038+385366367+407752820+434930702+465880042+498954716+531919978+562648041
2028+589800840+612802864+631745400+647169648+659620802+669728165+678185705
2018+685022935+689608210+691593153+691008743+687695769+681546868+672932460
2008+662207659+649182347+633579114+615698293+596295993+576088627+555555662
1998+535069493+515140089+496281553+478442586+461063603+444056688+428102186
1988+413747233+400996550+389771485+380021505+371452869+363660773+356456566
1978+349873898+344003251+338841878+334243605+330157276+326837307+324442545
1968+322458224+319995243+316818118+313596906+310963620+308858426+306990767
1958+305403633+304213245+303197778+302044063+300782180+299724494+299097187
1948+298925068+299250503+300111665+300990862+300774216+299023019+296732322
1938+295089053+294290964+293918934+293677681+293491190+293332272+293184155
1928+293183038+293759100+295155953+296736588+297646067+298151219+298930194
1918+299354532+298274655+296233358+294967558+295242717+296347970+297097670
1908+296904258+296100584+295377212+295036966+294927846+294920413+295194364
1898+296005398+297173925+298096000+298700842+299788281+301537831+302551687
1888+301669652+299810526+298558768+298285055+298460561+298632350+298664042
1878+298663511+298829497+299287980+300446950+303226742+307910664+312484770
1868+313510417+310222415+305603965+302556703+301630014+301873280+302284326
1858+302425083+302331288+302190184+302147232+302469371+303590076+305805671
1848+309261471+313836163+317964382+318582224+315013515+310593750+308221800
1838+307905317+308222862+308618290+310214542+314151547+319169673+321988572
1828+321514233+319938230+318528982+316501490+313888306+312128705+311875131
1818+312358148+312798579+313517594+315333036+318098657+320298397+320579067
1808+319392159+318422463+319066119+321738367+325616015+328784535+329694801
1798+328971246+328992557+331653709+336430894+339728343+338129418+333386324
1788+329911538+329527790+331151871+333283503+335439082+337195498+337849956
1778+337973393+339712745+344809561+352454456+358491711+358999957+355164968
1768+350412207+346750527+345607156+347684814+351255793+353355897+353706214
1758+353995856+354408787+354862804+357244347+363202290+370834442+375445239
1748+375065665+372340323+370413564+370568089+372566287+375028975+376368064
1738+377405319+381272860+388711930+394301101+392446991+386419806+380960589
1728+377094586+375125791+375413125+377457828+381226064+388408923+400214261
1718+413275347+419374595+415388670+407382913+401161876+398880957+401021596
1708+407022600+414577930+420774213+425983407+433489853+443562210+450844229
1698+452081120+449577385+444287669+437742058+434200226+435672932+440760484
1688+448284213+459496535+473695500+482199177+478639916+470696261+466408721
1678+467809913+473639000+480545327+485905750+491042919+497456598+502000276
1668+501170787+498679428+500286885+506349626+512148576+513965740+514105141
1658+517347555+526844839+543371410+561245127+566373618+560484406+558395323
1648+562379857+564408704+558252992+549222284+544228655+544849426+550732559
1638+561159809+572236209+575468845+568765378+561212831+559185485+562294465
1628+567289303+572109477+577023830+581418951+583280165+583822795+587227752
1618+594605159+600991815+601057469+597688324+596239969+597825199+600639631
1608+602831168+604161360+605481775+607163345+608728399+609924060+611291052
1598+613314370+615680864+617677964+618986002+619885613+620793865+621817461
1588+622829999+623805407+624854928+625999874+627335375+629708021+634683268
1578+642707334+650285842+651908202+649454120+650005501+655650184+662017689
1568+664281875+663913067+664979651+669631276+679842339+698498711+723554665
1558+739521214+739555927+737374716+740144877+746824800+755208300+763731092
1548+771911147+781155736+793101280+807184974+820797552+828487230+823045772
1538+809311626+799715219+797181385+796870871+793821540+789478598+788391214
1528+791556475+796659663+802053811+808255733+814491856+817515775+816533556
1518+813926707+810533834+806476505+803718354+804622944+810317060+820674591
1508+832184758+834489296+822626799+809148680+803378254+805092230+810832996
1498+815702273+815045215+809652459+805880524+808114538+814985675+820569793
1488+819850559+814168893+808153132+804699987+804108986+805339835+807860927
1478+812318774+819276914+827676233+833914333+833326188+826415943+819825293
1468+818158553+820704910+823295355+822815524+821866700+825441487+834948109
1458+845530176+847614352+839762607+830844789+825954201+825063891+826272990
1448+826879443+825266604+822535256+820751414+820813151+823118860+828404182
1438+835872839+840874890+839220526+834115727+830711210+829501452+828072797
1428+825581511+823661820+823282173+823642559+824364796+826126008+827828780
1418+826026996+820236650+814138720+810432624+809156296+809075738+809321146
1408+810166930+811916937+813444239+813561414+813446802+815024636+817891394
1398+820098237+820915386+820576384+818862261+816370463+815074728+815883016
1388+816868310+815137563+811278041+809374388+811945425+817791649+824457877
1378+831022675+837670741+843514475+846599471+846681347+846144612+847100906
1368+849553085+852757306+856574572+860411539+862279453+860762111+857038878
1358+853429744+851157576+849976745+849178564+848658454+848693973+848947437
1348+848583535+847476745+846595589+847039316+849017595+851656960+853546479
1338+853747947+852580811+851264717+850880017+851806798+853885701+856706541
1328+859637159+862035656+863823526+865567089+867770271+870331422+872754086
1318+874688278+876229641+877675946+879115953+880528203+882092708+884105700
1308+886610022+889172930+891160876+892463275+893663513+895108573+896347844
1298+896988718+897338412+897704656+897861231+897483196+896383729+894292523
1288+891020120+886896807+882759727+879463376+877333063+876011330+874921969
1278+873795698+872742955+872070151+871974141+872215009+872260048+872007536
1268+872124125+873282985+875289166+877413914+879382086+881250074+882449140
1258+882228558+881075410+880306816+880399018+880800196+880979840+880643987
1248+879326794+876906693+874357406+872979062+872876388+873034794+873001179
1238+873496170+875037460+877159717+879405814+881909989+884700510+887251921
1228+888903648+889380916+888913534+888022272+887341266+887597440+889220386
1218+891760226+894264034+896325727+898114988+899608749+900739267+902041667
1208+904284102+907565439+911170106+914208086+916318260+917888916+919649836
1198+921976564+924536470+926796994+928880218+931388567+934315963+936903771
1188+938739463+940156766+941578245+943261682+945359553+947649737+949765770
1178+951847675+954259282+956828195+959183558+961476378+963832473+965674829
1168+966564919+967113591+968038907+969045439+969669616+970384822+971888030
1158+974183780+976854929+979549586+981892718+983585823+984995510+986977378
1148+989548415+991330280+991292784+990581385+991482973+994965339+999998148
1138+1004752155+1007826605+1008871073+1008629547+1008018699+1007493389
1130+1007732133+1009531940+1012411587+1014950255+1016831499+1018900515
1121+1021255658+1022699180+1021986243+1019171702+1015925370+1014379247
1113+1015765866+1020282886+1026819123+1032148605+1032925841+1030051613
1104+1028114565+1029554572+1032521807+1034020035+1033436943+1032647697
1095+1033096770+1034347759+1035299805+1035351509+1034663179+1034320369
1087+1035550047+1038118228+1040862172+1043826039+1047747371+1051908765
1078+1055147773+1058263454+1062528988+1067039051+1069598957+1069122934
1070+1066602355+1064168485+1063036575+1062705922+1062669085+1063492605
1061+1065259896+1066897489+1067540047+1067196871+1065959284+1064017549
1053+1062570658+1062921744+1064655713+1066379649+1067799736+1069643630
1044+1072012687+1073741823+1073416077+1071089935+1068621645+1067695816
1035+1067741881+1067256044+1066335196+1065946614+1066376354+1066926270
1027+1066884746+1067145753+1068718021+1070058795+1068798433+1065265975
1018+1061362512+1057646602+1054465009+1053734277+1056605869+1060638371
1010+1061777970+1058957716+1054938030+1052753523+1053254519+1055762722
1001+1058712967+1059425683+1056323477+1051912354+1050204822+1051613924
993+1053152650+1053032839+1052586476+1053455108+1054756555+1054027801
984+1050634268+1046841682+1045044365+1045360005+1046061517+1045289261
975+1042236488+1037482335+1032329347+1027726423+1023929297+1020657846
967+1017522318+1014541241+1011922309+1009253869+1005841076+1001917327+998226976
957+994697521+990988642+987561861+984959918+982940189+981214129+979932015
947+978788315+977060131+974919272+973166408+971788358+970586583+970504926
937+972169836+973804206+972801775+969192274+965654617+964439879+965457323
927+967041821+967917777+968039859+967842053+967623375+967733812+968455610
917+969413076+969551415+968130083+965593466+963164723+961581030+960456590
907+959029400+957474415+957046287+958251578+959745924+960038496+959277078
897+958333820+957418244+956420280+955341465+954062574+952475513+950525356
887+948218914+946494905+947049801+949958156+952680496+952850326+951001306
877+949257523+948652461+948792485+949043826+949004059+948421920+947622860
867+947596129+948803031+950282511+950787682+950276579+949399378+948515586
857+947982001+948027992+947937987+946796703+945038567+944089304+944595499
847+945494304+945011543+942952560+941261213+941315700+941947419+941588717
837+940815070+941030306+942396272+944309446+946635295+949585467+952874347
827+955447948+956304497+955730706+954934356+954389053+954014240+954646618
817+957163609+960422829+962289133+962637582+963279115+965257833+968002802
807+970391633+971240345+969599970+965793615+961579859+958530015+956905677
797+956184466+955872634+955881642+956635150+958492739+960552015+960767983
787+958335212+954831388+952267747+951356639+951745440+952736227+953844263
777+955321253+957573062+959986060+961384835+961156930+959249689+956136424
767+952902103+950447215+949208090+950024287+953726575+959059279+962480421
757+961361547+956725374+952132117+950675706+953185593+958393140+964069899
747+967989620+968799592+966842624+963750963+961138988+960154938+961444741
737+964427649+967172105+968183032+968006244+968050624+968310093+967337908
727+964590229+961752325+960820199+961914393+963777694+965161457+964915682
717+962537324+959645667+958607790+958861840+957215898+953378566+951637712
707+954384805+957661456+956187175+950646705+945754945+943685343+943480799
697+943614892+942686573+939721681+935689765+933205217+933275596+934174620
687+934420102+934232402+933305329+930398731+926251838+923366112+922042987
677+919996381+916046707+912011495+909686745+907972915+905288218+903866520
667+907513955+913248496+915482510+912912424+907746328+903418838+901843934
657+902002633+901148428+897728238+893174015+890782840+892328451+895494151
647+895732895+890955600+884034663+880327175+882563532+888300343+891807096
637+889618927+883505399+876472706+869717718+865002526+864843168+868366764
627+870125853+866470068+860327173+856093130+854528039+853150062+851272260
617+852372606+858105902+863547066+861991350+853573942+846090419+846843195
607+854882640+862453092+865026986+865490706+868588298+875260238
##END=
