##TITLE=<SNM>
##JCAMP-DX=4.24
##DATA TYPE=INFRARED SPECTRUM
##DATE=2/5/2025
##SAMPLING PROCEDURE=Instrument type and / or accessory
##ORIGIN=Admin
##XUNITS=1/CM
##YUNITS=ABSORBANCE
##RESOLUTION=4
##FIRSTX=4497.3318
##LASTX=599.83466
##DELTAX=-1.4281778
##MAXY=1.7995319
##MINY=0.25952113
##XFACTOR=1
##YFACTOR=1.6759447e-09
##NPOINTS=2730
##FIRSTY=0.28217265
##XYDATA=(X++(Y..Y))
4497+168366323+168709701+169005369+168439996+166965230+165454508+164765725
4487+165113904+166222086+167596061+168683046+169158387+168989241+168199026
4477+166981359+165996338+165919607+166618971+167266517+167314316+167014630
4467+166907099+167097744+167301762+167487819+167895890+168252889+167824902
4457+166661773+165846450+166020682+166553158+166559916+165905488+164983737
4447+164337418+164511685+165496208+166419381+166419524+165613625+164792292
4437+164480619+164556764+164526943+164104166+163668124+163893676+164747925
4427+165326546+164959571+164039669+163382574+163140111+162792163+161996027
4417+161060939+160679133+161372931+163018284+164752672+165552649+165134372
4407+164233284+163817176+163994982+164038798+163691988+163688040+164416870
4397+165075459+164885720+164186392+163596550+163080540+162483851+162152743
4387+162431713+163027975+163324372+163142423+162794350+162379131+161531159
4377+160178345+159054995+158931354+159627660+160313918+160585242+160651019
4367+160614992+160269249+159551089+158665241+157866633+157476149+157762802
4357+158433803+158666023+158053064+157183166+156959748+157589405+158501891
4347+159159929+159539744+159704604+159486450+158890401+158280643+157899726
4337+157645740+157451716+157423104+157453708+157160423+156476245+155996458
4327+156376663+157433631+158148929+157732198+156496748+155423367+154980923
4317+154850649+154860447+155402579+156571612+157719448+158330345+158583086
4307+158715334+158586642+158109772+157585831+157494430+158050307+158817067
4297+158934271+158028382+156670269+155773004+155886491+157056076+158822828
4287+160344415+160926273+160418070+159110103+157599879+156623821+156466713
4277+156647756+156646636+156609986+156894540+157426607+157943755+158359917
4267+158625675+158735855+158876336+159054231+158867533+158191091+157633310
4257+157757022+158337991+158824215+159076103+159372980+160025185+161067234
4247+162071068+162365349+161797735+161101590+161041094+161381325+161330431
4237+160809585+160427779+160363371+160234893+159947761+159783683+159776872
4227+159734230+159687800+159749825+159764229+159613132+159654262+160312531
4217+161250997+161556677+161004925+160516549+160857882+161510763+161472762
4207+160701877+160074087+160187485+160805104+161372327+161667159+161856026
4197+162087731+162193767+161905034+161305127+160862363+160963243+161539037
4187+162168427+162447753+162297705+161979489+161773409+161698563+161674432
4177+161834474+162407138+163307337+164166689+164831146+165455113+165961698
4167+165871950+164988236+163810916+162945305+162531615+162473200+162684366
4157+162924855+162904352+162650988+162421684+162364425+162492814+162768548
4147+163100990+163466294+163938185+164407605+164447189+163734470+162619727
4137+162034401+162599810+163832522+164552336+164242406+163607504+163524460
4127+163903990+163972043+163358834+162496512+162041194+162194461+162577831
4117+162647201+162280012+161923510+162021936+162444606+162755602+162851342
4107+162939881+163063095+163103035+163178183+163595216+164399354+165227783
4097+165579412+165184394+164266253+163412857+163005783+162904868+162855930
4087+162890126+163096082+163403842+163720689+163908062+163735768+163252691
4077+162923432+162967871+162960455+162475600+161743766+161341403+161514106
4067+162014574+162449780+162663116+162810407+163109009+163479986+163497093
4057+162897861+162098027+161852416+162364336+163064660+163346440+163211312
4047+163079331+163185243+163326435+163221145+162979678+162974379+163297539
4037+163624112+163609300+163231352+162797071+162720500+163200553+164041181
4027+164784734+165034435+164775025+164423805+164425049+164824673+165366681
4017+165810423+165962889+165656036+164916431+164014561+163299975+163076485
4007+163465902+164221245+164844021+165032390+164944598+164965617+165283157
3997+165759032+166144217+166300951+166232328+166015116+165737871+165513297
3987+165523682+165855039+166224397+166188281+165777312+165593673+166112724
3977+167122586+167957115+168165329+167891320+167594443+167522584+167645620
3967+167960653+168538066+169310480+170027271+170379291+170132880+169294689
3957+168217538+167454637+167453819+168396109+170176483+172246248+173635818
3947+173839747+173606530+173957021+174711013+174819041+173968260+172881773
3937+172253876+172429815+173618640+175449676+176641133+176236210+175059353
3927+174792634+175918136+177333811+177975489+178226452+179048497+180231186
3917+180289264+178356637+175528772+173523913+172884387+173197126+174510588
3907+177719049+183229015+189497720+193673242+194382671+192480380+189043362
3897+185061367+182348448+182569394+185289337+187546902+187038894+185709891
3887+186500123+188802037+190112280+190655710+191961668+192347066+189701507
3878+186503324+186323633+189248215+193332104+197241601+199483766+198525508
3868+196066202+195278761+196138772+195906534+193413601+190493748+189430058
3858+191775006+198546509+208398244+213893540+208568119+198345034+190526361
3848+187271488+188312381+192368796+197703232+203113723+208100656+211523946
3838+211612075+208714931+205411992+203025202+200951952+198780365+197217666
3828+196756283+197323720+199784040+205326885+211966070+214661579+212864988
3818+210652804+208564438+204427807+199295521+196390179+197339173+201716684
3808+206950881+210092320+212061632+215682289+219657990+219851391+217010973
3798+215012515+214198045+213002908+211868995+212357460+214648314+217958223
3788+222074067+227109776+232570574+238141196+244666342+252750719+261276901
3778+269138839+277443345+288072153+301676135+317314335+332246644+343124566
3768+349125629+351641946+351957583+352076085+354301304+358194618+360675655
3758+360756849+361725670+367373076+378926054+393882192+406169262+412882475
3748+418887592+428576405+439378858+444823580+446391633+451577657+463922271
3738+482627793+503446718+519515287+526651081+527993830+530134795+537041196
3728+548685717+561989941+572407157+577457323+578291958+577034849+574850636
3718+572458334+571502921+574115299+579798163+583041851+578173207+567702360
3708+558616406+555082083+557346529+561889044+563297054+559983979+555768697
3698+554079262+555321860+558941184+564909136+572895959+580409735+583485913
3688+581499050+577912019+574963484+573015457+572824225+575513244+581588993
3678+590148801+597131986+597670081+594142302+591979819+590202860+583814994
3668+573231264+563959235+559246650+558301337+557968095+556515131+555362831
3658+555760446+556336560+556510650+559115985+566091950+574508076+577747390
3648+573084986+565335451+559528537+556943082+556306828+555630172+553954927
3638+552060319+551570485+553546252+557939181+564042742+570167712+572812489
3628+570465567+567278107+566898275+569232891+573125992+577406039+580209648
3618+581097416+582690826+586322313+589645559+590624409+590795654+591839232
3608+592504614+591496352+590037981+590174586+593045519+598070114+602621129
3598+604383792+604016834+603747537+604394959+605511338+607305013+609905227
3588+611620304+610663113+608246769+607099947+608385828+611203912+613461565
3578+613551260+611910869+610406762+610308177+611837321+615514437+621945549
3568+628933322+631078449+626149238+618133145+611387070+607197039+605420719
3558+605982430+608184887+610023658+609340387+605967066+602343723+601072353
3548+602045121+602808342+601930460+600715922+600501253+600525010+599789744
3538+598893866+598561976+598112365+597037384+596496123+597515730+598998356
3528+598998427+597155814+594572778+592134811+590111707+588616314+587632840
3518+586976705+586459344+585989889+585413525+584251623+581984723+579051089
3508+577209614+577841601+579784008+580040039+577266802+573354532+570877728
3498+570607506+571565053+572203335+571632093+570113440+568317489+566478895
3488+564783165+564073185+565065230+566902650+567526279+565896130+563118412
3478+560820641+559181140+557331414+555215984+554028973+554578414+556094506
3468+557202634+557444652+557202172+556692279+555661149+553820457+551388144
3458+549237718+548286253+548466780+548640834+548009275+547226173+547331160
3448+547919722+547346169+544838957+541360363+538334652+536627613+536194220
3438+535676183+533508828+530320515+528448312+528656295+529470303+529919237
3428+530585117+531673364+532230523+531559201+530035996+528280269+526379010
3418+524265820+522353608+521345523+521476508+522231158+522827366+522769360
3408+521962146+520624127+519204558+518158703+517625978+517394807+517240065
3398+517028027+516553877+515712201+514776384+514052533+513378901+512483557
3388+511532234+510820297+510356959+509983600+509530824+508926507+508396947
3378+508248642+508235839+507824816+507279074+507423965+508271155+509102873
3368+509713841+510332989+510709193+510396756+509561054+508774823+508429205
3358+508572211+508916407+509013143+508593336+507669860+506430178+505115063
3348+503814849+502570437+501662432+501314537+501279790+501298461+501705145
3338+502917051+504536708+505575840+505479958+504508790+503277394+502367148
3328+502163006+502405629+502033017+500265019+497721745+495774536+495212790
3318+496003111+497591044+498969749+499222402+498376848+497132969+495863377
3308+494613559+493661347+493152877+492571854+491506155+490626033+490964112
3298+492401499+493667855+493794750+492969682+492002711+491507471+491654852
3288+492348899+493334293+494258800+495015832+495958655+497386511+498901358
3278+499618842+498982517+497316199+495650024+494720218+494270643+493767863
3268+493228487+492765754+492037315+490804959+489394993+488275662+487823526
3258+488359275+489621896+490517987+490245418+489358041+488994498+489418892
3248+489817645+489258033+487596907+485585327+484189195+483785605+483948777
3238+483953827+483434545+482577256+481768832+481106651+480233428+478697918
3228+476608450+474812250+474154087+474620093+475400989+475733734+475504625
3218+475059461+474691472+474428185+474062508+473204436+471583535+469563169
3208+467982847+467153760+466477958+465421541+464292181+463654148+463496418
3198+463242414+462311719+460766642+459386407+458718536+458384405+457826037
3188+457133733+456544459+455909806+455165968+454523063+453840574+452605088
3178+450856616+449438967+448953614+448910119+448322375+446968423+445459052
3168+444195186+443089227+442203628+441712087+441199527+439885621+437684373
3158+435378351+433800341+433327720+433808272+434471733+434341104+433174934
3148+431631812+430324308+429194414+427950677+426647050+425576336+424802232
3138+424050961+423124676+422252200+421775312+421601151+421357283+420962869
3128+420568242+420056891+419145792+417963120+417060806+416762417+416831093
3118+416907201+416968764+417082927+416978722+416318319+415255038+414306703
3108+413728633+413277315+412581241+411607050+410681262+410016485+409388162
3098+408533113+407691258+407349765+407543380+407737172+407355669+406272116
3088+404901804+403914881+403681113+403936219+404146407+404108460+403887389
3078+403327955+402185186+400702525+399512136+398953021+398816702+398632867
3068+398026736+397052581+396202084+395786296+395510953+394981998+394248687
3058+393505063+392728007+391929257+391277426+390743135+390047097+389107973
3048+388219706+387653194+387336347+387058622+386775384+386534077+386229677
3038+385623724+384623962+383474188+382573367+382036196+381547891+380792388
3028+379876488+379150112+378738129+378445502+378083844+377690319+377304156
3018+376693224+375654981+374538175+373984040+374082092+374212899+373783703
3008+372757232+371476650+370326947+369555261+369124643+368714545+368031736
2998+367125261+366254172+365479393+364582982+363444624+362341581+361734561
2988+361756007+362039103+362154724+362016199+361645222+360915610+359920294
2978+359169343+358964810+358929067+358488206+357531619+356396106+355423160
2968+354650230+353875700+353001304+352204510+351710337+351516331+351353266
2958+350841773+349849231+348750598+348062455+347830288+347687886+347388146
2948+346925946+346338700+345741674+345358996+345232350+345100831+344747708
2938+344210111+343557603+342775071+341908855+341028057+340111943+339281114
2928+338894560+339038562+339207921+338861840+338015647+337004895+335984185
2918+334957892+334087941+333640785+333623216+333715364+333651561+333450228
2908+333173534+332740675+332114628+331438185+330839132+330254233+329570749
2898+328886766+328483035+328431928+328355072+327813385+326889482+326044498
2888+325413757+324711138+323921173+323545004+323861068+324358976+324305806
2878+323639891+322920166+322548300+322371437+322012303+321394685+320840336
2868+320627018+320581958+320305939+319721325+319107868+318624329+318128876
2858+317536899+317048772+316850072+316758777+316384315+315595239+314653305
2848+313901252+313517543+313548627+313902959+314263195+314218063+313586219
2838+312561881+311528368+310730294+310121318+309573406+309145384+308933240
2828+308755309+308326682+307689183+307134372+306770153+306454835+306085033
2818+305732087+305517418+305430534+305293218+304956704+304498451+304101548
2808+303779438+303370940+302803824+302240157+301893969+301733181+301462319
2798+300853130+299996623+299154590+298486470+298014223+297723018+297557802
2788+297383605+297052444+296498860+295761601+294967279+294267969+293710615
2778+293198197+292623612+291961324+291220581+290452772+289808409+289421322
2768+289222497+288987769+288568211+288006696+287440824+286941886+286480397
2758+286007794+285488335+284887681+284235084+283622231+283060076+282474271
2748+281877422+281353713+280871490+280319417+279712824+279183050+278760612
2738+278301648+277681309+276993966+276466878+276192139+276035957+275795787
2728+275383894+274885951+274455421+274131941+273828805+273482991+273088097
2718+272644426+272204347+271823217+271387032+270719996+269890856+269166437
2708+268701765+268450215+268262522+267991216+267620719+267241954+266820920
2698+266207179+265442215+264793922+264443929+264348580+264361774+264332700
2688+264160851+263863778+263548407+263306727+263155132+263009209+262705806
2678+262148683+261456130+260881687+260535357+260247922+259822265+259361718
2668+259137731+259152846+259122332+258910383+258664737+258474412+258203462
2658+257735464+257168028+256698608+256425684+256284029+256135280+255912662
2648+255651349+255376860+255052047+254667822+254306537+254060198+253907251
2638+253693809+253270499+252701604+252291631+252277636+252502886+252555984
2628+252262183+251854326+251599558+251451964+251207776+250861446+250628603
2618+250631217+250702880+250589429+250287412+250037907+249970281+249946488
2608+249832183+249692555+249602061+249508507+249420680+249455818+249563917
2598+249495526+249170642+248790525+248501579+248245210+247995581+247864293
2588+247910367+248036711+248104711+248055579+247919401+247740972+247524294
2578+247294918+247133792+247038692+246881620+246635832+246486353+246594007
2568+246895419+247193523+247333240+247304397+247251903+247325771+247494117
2558+247598642+247587617+247575134+247653465+247753367+247734393+247538857
2548+247210950+246825001+246436384+246049066+245631499+245205557+244850941
2538+244583191+244331837+244062771+243831067+243725404+243800854+243984333
2528+244054325+243856887+243519697+243308691+243304974+243360100+243341055
2518+243277785+243251040+243249315+243193336+243046347+242869394+242784697
2508+242841014+242912125+242823943+242582262+242364090+242299522+242341150
2498+242322888+242140511+241902814+241821940+241915208+241946968+241712578
2488+241265066+240833807+240588961+240495622+240395418+240223248+240076722
2478+240056343+240100852+240007850+239619785+238999321+238379071+237921957
2468+237622270+237441832+237381194+237379167+237301084+237092425+236837319
2458+236620214+236415129+236163562+235907139+235772402+235817498+235929688
2448+235913399+235693786+235413144+235283226+235345269+235425112+235321832
2438+234979467+234495501+234070520+233925611+234114424+234402944+234468027
2428+234226258+233857433+233545779+233349354+233293251+233408605+233630796
2418+233799018+233847706+233896003+234047296+234208849+234244912+234209685
2408+234262178+234418450+234544545+234566506+234557331+234619658+234783754
2398+235035980+235366163+235783890+236391461+237477201+239467763+242769066
2388+247717695+254685854+264128078+276418990+291627335+309496729+329634516
2378+351614845+374878601+398671562+422216991+444921810+466249454+485339254
2368+501054629+512749475+520697355+525273193+526052916+522154196+513239202
2358+499962185+483541737+464786034+444088812+423560985+407655729+400253982
2348+402788365+414357489+431205497+447035462+457132772+461372488+462147054
2338+461693994+460980529+460007653+458839670+457731364+456341882+453680781
2328+449246242+443673842+437811695+431610367+424428482+416125771+407250930
2318+398362610+389710405+381378603+373291629+365139322+356613514+347759869
2308+338917535+330357584+322181236+314504609+307468183+301032305+294964950
2298+289092329+283472824+278306485+273705751+269575574+265740213+262144931
2288+258854084+255906509+253306010+251105545+249339895+247894897+246589917
2278+245384217+244362849+243523253+242726122+241876247+241027386+240286465
2268+239696907+239221352+238789009+238370802+238010602+237745040+237524556
2258+237275762+237000010+236734323+236456207+236098656+235636296+235119610
2248+234654227+234347712+234231166+234222506+234185430+234026633+233755273
2238+233474027+233292006+233220005+233173184+233080716+232964205+232905648
2228+232965432+233140411+233381950+233635598+233860883+234041179+234189573
2218+234332081+234490078+234702951+235049708+235589492+236273848+236967237
2208+237571092+238092561+238603841+239190233+239909354+240729585+241530148
2198+242193219+242670552+243001393+243316853+243749766+244309680+244927885
2188+245569190+246198473+246755347+247242620+247699326+248072543+248270159
2178+248313583+248310027+248306186+248252287+248101831+247890238+247669985
2168+247420516+247108701+246778589+246479755+246177508+245816401+245430202
2158+245132899+244994000+244964730+244974973+245035184+245188166+245482572
2148+246008148+246851977+248154911+250277507+253575947+257943839+262944517
2138+268363775+274293370+280814550+287865184+295266059+302812146+310459361
2128+318321779+326481234+334985063+343889743+353087833+362222119+370863584
2118+378710887+385631513+391463714+395824955+398391062+399284806+398899461
2108+397549670+395483639+392988199+390346054+387682251+384835217+381533843
2098+377665139+373146987+367823398+361748538+355207388+348403841+341470590
2088+334583714+327821529+321140503+314471035+307696083+300796191+294033081
2078+287734252+282061186+277084069+272769632+268932296+265464408+262474777
2068+260096185+258305106+256882781+255542361+254221662+253065557+252073512
2058+251132379+250308004+249702940+249258594+248950264+248845704+248921012
2048+249133832+249578250+250396152+251651127+253264346+255074701+257144875
2038+259834837+263347093+267461656+271799940+276044243+279989554+283640174
2028+287098549+290334235+293267086+295910600+298268707+300256673+301692530
2018+302278140+301830629+300544285+298762453+296622394+294119379+291296600
2008+288223392+284930607+281467449+277983379+274698115+271746397+269072457
1998+266573372+264368300+262763776+261787914+260920666+259604288+257883752
1988+256178046+254738988+253672079+253046956+252707419+252352892+251927803
1978+251614691+251475846+251362358+251143119+250945130+251142959+251928586
1968+252866732+253204295+252747216+252048475+251648602+251586701+251720816
1958+252068871+252615306+253121607+253384822+253489525+253668896+254080274
1948+254824521+256066657+257852526+259602137+260187818+259182774+257592067
1938+256645848+256550605+256789583+257007560+257243034+257613175+258090010
1928+258684458+259731930+261493082+263432697+264731986+265561411+266612973
1918+267554658+267460429+266607514+266265807+267044587+268458537+269670799
1908+270243250+270345535+270409640+270649454+270988813+271355842+271875639
1898+272715271+273716242+274407586+274743976+275376674+276516793+277173283
1888+276464335+274985603+273818420+273209177+272858117+272589478+272370203
1878+272186653+272049711+272043985+272633436+274695377+278457866+282190730
1868+283061375+280482002+276842317+274381055+273458966+273338348+273328942
1858+273205549+273092329+273165219+273439708+273909519+274733716+276194913
1848+278695724+282404493+286055131+286908686+284181168+280622643+278763190
1838+278653846+279042890+279416213+280740949+284026532+288302666+290921570
1828+290898399+289836434+288706274+286999252+284912932+283636404+283599452
1818+284125740+284631614+285405522+287037022+289311551+291002337+291147708
1808+290257415+289693161+290462321+292820534+296132720+298898026+299839889
1798+299425203+299639730+302159354+306614841+309906826+308976309+305227921
1788+302476379+302357699+303991902+306101535+308261599+310156136+311248189
1778+311954897+313912739+318433808+324794111+329701485+330214223+327352465
1768+323752560+321010798+320376002+322430296+325654317+327593025+328158079
1758+328843733+329752200+330720701+333280833+338785838+345618797+349947958
1748+350250366+348637502+347564085+348097984+350177316+352745877+354443172
1738+355879279+359666397+366406247+371403635+369843194+364592407+359874024
1728+356697731+355256290+355587434+357051601+359669491+365002184+373990726
1718+383724706+387775430+384090988+377526757+372461262+370454660+371915697
1708+376526354+382455896+387223322+391089288+396838658+404787854+410591248
1698+411476669+409051221+403969117+397749011+394203164+394972715+398723593
1688+404399344+413023027+423943555+430138020+426739127+419984339+416230688
1678+417050848+421399392+426511370+430215302+433624615+438005665+440793768
1668+439167710+436173509+436485875+440492890+444714290+446380216+447078602
1658+450340748+458728245+473151053+489324112+495502608+492198460+491779328
1648+497049072+501920668+500500032+495961571+494049288+496641215+503755527
1638+514902141+527165561+533799357+532315807+529542819+531257719+537846027
1628+546849328+556270480+566025586+575658598+583325765+589255093+596620102
1618+607163963+617719028+623269129+624796211+626619191+630285638+634778682
1608+638608229+641241091+643298160+645543508+647951885+650259614+653019087
1598+657200939+663022826+669750051+676431042+682549540+688085557+693219763
1588+698074928+702558085+706340330+709165598+711436482+714586386+720469231
1578+729481210+738328026+742237950+743084036+746957755+755886512+767123496
1568+777015491+785523943+794661822+805553187+819633150+839791281+865385492
1558+883379291+885725501+882774334+880622308+878667168+876287954+874246819
1548+873821464+875912318+879974957+884531093+888681719+889849027+882779526
1538+870187381+860625001+855675945+851381282+844964395+838800873+836242056
1528+837323653+839904804+842611286+845717871+848700905+849501113+847846709
1518+845525039+843095394+840561046+839283558+840885326+845988235+854393905
1508+863622331+865813479+856157990+843518259+835766341+833848758+836315391
1498+839997770+840401858+836713788+833665030+835140472+840269201+844545726
1488+844066526+839280428+833203684+828367155+825869937+825564506+827060362
1478+830473516+835870617+842224910+846588355+845202253+838670990+832729961
1468+831427364+834276816+837555109+837794531+836219152+837016017+842368520
1458+849628862+851202320+844409584+836070278+831259712+830396412+831583209
1448+831832305+829159610+824604968+820684019+818754771+819100674+821864344
1438+826008070+827916620+825011687+820347505+817867358+817714500+817648279
1428+816462762+815132922+814705362+815131856+816398176+818860683+821339408
1418+820856295+816870121+812223722+808876860+806563227+804396406+802494685
1408+801926004+802966701+804167653+804345549+804672389+806696738+809745068
1398+812018370+812960553+812734219+811144757+808970396+808008012+808704584
1388+809211881+807509180+804584829+803693290+806564081+812065245+817918927
1378+822876661+827099412+830882867+833813620+835459986+836163031+836634620
1368+837553686+839621068+842962808+846331791+847821031+846928497+845108219
1358+843948238+843811527+844066313+843988995+843364904+842405437+841509203
1348+841078229+841202564+841752965+842987703+845394801+848519453+850724115
1338+850828391+849460782+848348173+848940185+851609181+855370941+858593468
1328+860609850+862402957+865377383+869785712+874554668+878459754+881321583
1318+884008575+887334097+891143515+894541447+896943707+898810077+901068869
1308+903994216+907229191+910690286+914589398+918558501+921570769+922863123
1298+922507546+921291087+920357796+920430063+921141573+921717011+922099475
1288+922417425+921762677+918999789+914607678+910312588+907251739+905518310
1278+904896566+905169775+905969272+906843739+907526797+908144344+909064619
1268+910411672+912134715+914512080+917664260+920715222+922666947+923903820
1258+925403374+927024845+927902655+927753212+927018657+926500904+927079970
1248+928931545+930992099+931838968+930829070+928274236+925054910+922128852
1238+920118871+919191626+919060463+918997726+918171058+916257387+913757395
1228+911684180+910700102+910484437+910299856+910031911+910010785+910078358
1218+909675978+908676820+907370739+905997937+905113512+905857812+908868159
1208+913210195+917182783+919801847+920960121+921096690+921342229+922773784
1198+925000710+926693310+927648296+929053106+931767411+935383996+938804263
1188+941204603+942651593+943705236+944402519+944450745+944463620+945873124
1178+949419362+954517149+959895615+964146107+966115614+965809401+964874189
1168+965133670+966667936+967867608+967453847+966178777+966014326+968032984
1158+971527084+974743493+976065437+975313384+974556849+976700696+982242759
1148+988210035+991628737+993075158+994644775+996232246+996779730+997060194
1138+998287322+1000027721+1001590937+1003715792+1007384870+1012183416
1130+1016440665+1018545106+1018296436+1017116965+1016681154+1017678889
1121+1020075601+1023478015+1026614119+1027682273+1026325689+1024333917
1113+1023616433+1024395516+1025782187+1026911228+1026850981+1025061787
1104+1022758681+1022317109+1024862055+1029295919+1033695996+1036432566
1095+1036633222+1034635618+1031619794+1029300898+1029557534+1033142537
1087+1039196662+1046246247+1052435447+1055620560+1055536413+1054591172
1078+1054639682+1054798586+1053590805+1051588222+1050885106+1052841739
1070+1056931194+1061501627+1065331814+1068030258+1069125867+1068160140
1061+1065616403+1062859420+1061299619+1061570978+1063104532+1064826651
1053+1066573168+1068738495+1070415874+1069932833+1067652631+1065622876
1044+1064152556+1061970513+1059790817+1059732207+1061077623+1060610302
1035+1057614109+1055126280+1056270258+1061729313+1069149411+1073741823
1027+1072382536+1067473100+1063884042+1063481662+1064771099+1066248532
1018+1067634422+1068188663+1066558231+1062784094+1058822246+1056748533
1010+1056740851+1057263085+1057353846+1058155406+1061410368+1066205072
1001+1068289952+1064384723+1056670006+1050247287+1047376994+1046530480
993+1045929933+1045839030+1047074195+1048779314+1049062623+1047406513
984+1045350440+1044623425+1045248227+1045752465+1045041524+1043595815
975+1042127629+1039809373+1035568626+1030654352+1027472156+1026421287
967+1025912710+1024764678+1022985016+1020658580+1017475316+1013369644
958+1008859529+1004830108+1002129459+1000664972+998871581+995338644+990948383
948+987823090+986533297+985821859+984410576+981966918+979064617+976867495
938+976185717+976556374+976687323+975804534+974306900+973081194+972434911
928+971799510+970865863+970441504+971396845+973400993+974990669+974753736
918+972589547+969929442+968635025+969618250+972211350+974622715+975294534
908+974027218+971674606+968970614+966308518+964443073+964056697+964397977
898+963783417+961673855+958927470+956374841+954541760+954126790+955296943
888+957170213+959086658+961061856+962408766+962289624+961731470+962061227
878+962057599+959864389+956336645+953682799+952711240+953150607+954442748
868+955117483+953700653+950726155+948223317+947178139+946884658+946518767
858+946252031+947095628+949679411+952824407+953935878+952054358+949597683
848+949209174+950577138+952067161+953331205+954436133+954257313+951655819
838+947608615+944438084+943209747+943289697+943884340+944646423+945095535
828+945059757+945317744+946140642+946324939+945661015+946388885+949835470
818+953647305+954869241+954025359+953367268+953232193+952807265+952664223
808+954158158+957282171+960722354+963194321+963625296+961389265+957651618
798+955004672+955134910+957319869+959008059+958249249+955636089+953176356
788+952009902+952280692+954139380+957514409+961374470+964580282+967096776
778+968916698+969054476+966813253+963389359+960863831+959866309+959624966
768+959801226+960823571+962656581+964490232+965475732+965157427+964171927
758+964608662+968089888+973409386+977584766+978853789+976632269+970578428
748+962636167+957477848+958085295+962481034+966498220+968850192+970854980
738+972604270+973503491+974327385+974956953+973307387+968877221+964511571
728+963364321+966009773+970292700+972718007+971602837+969247522+968537008
718+969115790+969646630+971039063+974333645+977835640+979013333+977273929
708+973258449+967565093+961448943+957049079+955647328+956574075+958493081
698+960446656+961470282+961294805+961069538+961497169+961308675+958937428
688+954451995+949646905+945953571+942444748+937938758+933277635+930740158
678+931572943+934059634+935226871+934718437+933668848+931038048+925130379
668+917024876+910862847+908647444+909341953+912090330+915206092+915940576
658+913695797+911213444+911596477+915236606+919696930+921215548+917773942
648+911203273+904359324+898546400+894951509+894936572+897425468+898398521
638+894963601+889111697+884856866+883447576+883322245+883101388+882523673
628+881137428+878628402+875946958+874031936+872122533+869315332+867082787
618+867756313+869991419+868300028+860684394+853505638+854364102+864151891
608+876573397+883019518+879528761+869710101+859791718+852254113+845287893
##END=
