##TITLE=<SNM>
##JCAMP-DX=4.24
##DATA TYPE=INFRARED SPECTRUM
##DATE=3/5/2025
##SAMPLING PROCEDURE=Instrument type and / or accessory
##ORIGIN=Admin
##XUNITS=1/CM
##YUNITS=ABSORBANCE
##RESOLUTION=4
##FIRSTX=4497.3318
##LASTX=599.83466
##DELTAX=-1.4281778
##MAXY=1.7141429
##MINY=0.17636853
##XFACTOR=1
##YFACTOR=1.59642e-09
##NPOINTS=2730
##FIRSTY=0.19965923
##XYDATA=(X++(Y..Y))
4497+125066855+124808701+124855913+125181310+125395621+124979096+123821255
4487+122447293+121620963+121803566+123031627+125025384+127064392+128145730
4477+127926285+127179351+126697851+126327604+125679163+125007929+124763291
4467+124912133+125152766+125374815+125622039+125841764+125915764+125924417
4457+126187480+126820688+127344117+127064289+125939286+124806368+124556372
4447+125161167+125710825+125384177+124177333+122717702+121675483+121382373
4437+121661939+121931191+121719391+121160212+120758967+120686562+120687197
4427+120601192+120431041+120013078+119227174+118420128+118074486+118184227
4417+118326927+118162693+117703082+117288983+117367856+118043973+118787817
4407+118873850+118194812+117339649+116824368+116622500+116427921+116024678
4397+115497431+115280217+115699533+116371888+116560026+116186037+115900235
4387+116062761+116215784+115742928+114690432+113621658+112803205+111969417
4377+111026317+110477528+110779757+111710358+112757450+113728010+114619054
4367+115270538+115482310+115236132+114640056+113874089+113244653+113067827
4357+113430467+114136966+114850876+115306903+115543794+115885123+116467012
4347+116895980+116655244+115772507+114853695+114485156+114750702+115262034
4337+115448595+114899273+113761072+112816217+112750729+113262994+113402175
4327+112913031+112552277+112880072+113545911+113997010+114134968+114063198
4317+113850427+113677774+113687939+113697768+113466189+113092572+112812138
4307+112631700+112473375+112436963+112699886+113380800+114547601+115991523
4297+116969047+116785585+115806129+115221095+115645396+116593601+117427100
4287+118094909+118717895+119061120+118816753+118075709+117260085+116820803
4277+117020273+117701532+118289450+118350776+118152883+118353230+119129772
4267+119895767+119982434+119395319+118626916+117908451+117174762+116671476
4257+116870358+117713629+118560242+118913837+118814121+118685385+118999935
4247+119767022+120385882+120360942+119858486+119329289+119119729+119522832
4237+120490480+121326947+121425721+121114428+121011968+120959323+120416498
4227+119603787+119386395+120054773+120935624+121336216+121335992+121431088
4217+121786204+122178778+122454340+122721576+123119265+123522760+123560852
4207+123048167+122357405+122070484+122309232+122772643+123275219+123776601
4197+124073995+123937176+123424191+122820751+122440199+122498901+122938696
4187+123471282+123963106+124527726+125114646+125380220+125202937+125047011
4177+125506678+126551389+127472815+127639243+127118044+126471284+126144319
4167+126201323+126493359+126871717+127190216+127274783+127111501+126945578
4157+126923083+126820464+126472787+126224098+126531713+127301889+127968765
4147+128146327+127931036+127592796+127257356+126973114+126816534+126797436
4137+126887147+127148548+127543400+127795813+127823069+127939801+128265720
4127+128469988+128426547+128458684+128683319+128785630+128612156+128407776
4117+128390330+128565336+128966170+129662822+130412043+130625141+129986230
4107+128971407+128446046+128858137+130034693+131470428+132552784+132863712
4097+132529449+132071153+131890482+132051971+132358980+132504769+132403634
4087+132342654+132519078+132632404+132311292+131749098+131493362+131684525
4077+131916263+131903755+131850541+131941941+131925821+131562593+131120157
4067+131009473+131236992+131526545+131693887+131685337+131490889+131169599
4057+130819701+130485642+130197872+130141643+130645638+131758180+132934512
4047+133598858+133926634+134442344+134993150+134943110+134253534+133526714
4037+133114315+132902001+132836177+133087918+133702961+134381458+134681475
4027+134451911+134048034+133982032+134352736+134787239+134947077+134868269
4017+134772398+134745413+134672775+134389214+133890399+133450492+133464474
4007+134094004+135121092+136192172+137098076+137772325+138119937+138012408
3997+137552880+137138492+137023683+137051667+137045655+137108810+137326687
3987+137600578+137921186+138351162+138696225+138641910+138205951+137751800
3977+137599420+137777058+138115578+138501749+138954285+139421961+139709872
3967+139782342+139901875+140232545+140513940+140379818+139881405+139453007
3957+139407690+139642806+139830291+139814787+139758783+139848568+139972207
3947+139922624+139804511+139894473+140201966+140459672+140496607+140430325
3937+140559771+141133277+142084124+142976596+143348775+143178418+142902959
3927+142919117+143193866+143411864+143452253+143516332+143737251+143931252
3917+143780412+143186380+142472227+142137982+142341074+142795066+143289457
3907+144023603+145144453+146205937+146567391+146309396+146027814+145838369
3897+145409681+144844445+144802890+145618999+146557338+146595160+146074718
3887+146105987+146762558+147185356+147204771+147389381+147653732+147490143
3878+147124003+147121240+147613642+148571303+149957643+151137493+151179067
3868+150254505+149362444+148949316+148875035+148916376+148849021+148621614
3858+148688493+149804862+152221641+154569739+154884980+153631297+152229640
3848+151323401+151028984+151226727+151810184+153012193+155125109+157557812
3838+158756909+158071991+156684401+155806742+155628171+155913375+156521511
3828+157236737+157890610+158899684+160722748+162526173+162764230+161905809
3818+161703035+162057227+161695717+160856375+160809686+161979511+163803303
3808+165291926+165888189+166269543+167326202+168616437+169043305+168899578
3798+169111780+169523601+169728447+170223192+171588306+173426510+174954280
3788+176141467+177524278+179219054+181020350+183163668+185979451+189121929
3778+192118365+195268516+199155912+203955437+209475947+215222642+220591716
3768+225566013+230734665+236539100+243134247+250662767+259081463+267900649
3758+276618559+285486431+295369425+307072943+320622936+334300806+345794270
3748+355453469+365747650+377825840+389100027+397212377+404421111+413708364
3738+425624178+438740322+451368403+462414726+470919445+476083784+478120562
3728+478446808+478815430+480246984+482803821+485973387+489126823+492285075
3718+496263609+501814493+509087893+517319086+524464646+529072113+532811283
3708+538027669+545188202+553771178+562461198+568740851+571444831+572719908
3698+574954196+578357002+582232002+586626651+592026060+598074490+602988451
3688+605172521+605067605+604106080+603215979+602517713+601957778+602349624
3678+604587272+606988640+606327636+603286209+601303046+601884338+604416981
3668+607368725+609019743+608713658+607648412+607974808+610798152+614980468
3658+617792388+617837192+617602196+620478932+626648667+633307323+637485868
3648+639154957+640255187+641673225+643170939+644704870+646695126+649037764
3638+650801612+651265630+650490152+649094067+648090464+648528196+650946627
3628+655025708+659768482+664279994+668385808+672788222+677964845+682362630
3618+684012752+683878415+684581759+687277301+690823965+693107088+693311692
3608+692754259+692696462+693211705+694266609+695567933+696385228+696900097
3598+698574861+702062085+706128173+709017789+710016166+709523101+708831555
3588+709591053+711890306+713698510+713277878+710631620+706759756+703048738
3578+701227391+702679704+707076668+711947729+714509906+714207107+712503221
3568+710822334+709704257+709031903+708923851+710190527+713317753+717131297
3558+719415989+719306145+717874367+716402714+715361251+715056436+715984396
3548+717818064+718868413+717743839+715434431+714265277+714870874+715428830
3538+714093231+711501932+710114286+710871394+711832435+711350720+710799484
3528+712335954+715669799+718753864+720309674+720616430+720741209+721090155
3518+720667805+718739453+716421009+715021788+714558742+715091533+716992928
3508+719522472+721161766+721212992+719976932+718168205+716753602+716473802
3498+717475091+719315629+720584396+719638066+716968884+715305844+716340213
3488+719081006+721968682+724509875+725891174+724721049+721542075+719007229
3478+718654773+719668682+720804457+721424540+720721719+718273568+715481101
3468+714564790+716045628+718203227+718979601+718099954+717089555+717265559
3458+718319567+719046582+719127528+718926732+717592029+713925590+709177440
3448+706634530+708252467+712984338+718254303+722034394+723386720+722170448
3438+719161578+716103350+714413129+713517428+711721844+709030110+707295011
3428+707472583+708729179+709970317+711085631+712678702+715248346+718615122
3418+721768185+723462513+723260522+722106602+721423644+721502797+721338069
3408+720129488+718400139+717370549+717574854+718125044+717307301+714635207
3398+711741856+710136091+709784531+710519461+712705958+716111415+719468484
3388+721511534+721906554+721592480+722188518+724078489+725466061+724208271
3378+720221709+715786663+713595760+714188215+715656284+716433031+717296548
3368+719324216+721326271+721118829+718615421+716163313+716047346+718540375
3358+722079720+724746289+725709121+725341357+724233062+722415748+719576312
3348+716052199+713414454+713268095+715365507+717779831+718988935+719236326
3338+719704824+720920274+722378038+723347292+723741117+723912342+723801005
3328+723216391+722861769+723904949+726249081+727836701+726584586+723059727
3318+720119258+720027037+722487285+725248389+726472278+726466229+726824062
3308+728136587+729161921+728532951+726612588+724817303+723790775+723018358
3298+721904911+720508005+719180097+718331589+718813005+721375928+725141532
3288+727872843+728374122+727328552+725987800+725682538+727195560+729370034
3278+730119526+729228305+728181316+727455795+726091222+723814073+722041413
3268+722439569+724783327+726678898+725998927+723356925+721468597+722042682
3258+723993810+724975012+724334841+723789655+724850458+726562782+726862817
3248+725503696+724195203+723781067+722977662+720718508+718305827+717778935
3238+719076974+720168692+719499847+717413710+715624473+715690185+717562533
3228+719783230+721305586+722463464+723724614+724378152+723336465+720737027
3218+717882432+715824970+714757446+714341966+713966511+713213211+712421156
3208+712428249+713710308+715695338+716733739+715332577+712190491+710028935
3198+710130639+710645061+709636230+707878132+706956444+706722270+706266691
3188+705860470+706535588+708174060+709138834+708423020+707041646+706016985
3178+704597976+702232862+700387993+700327135+700756355+699712502+697572751
3168+696150008+695837950+695639918+695243031+695157232+695248034+694800669
3158+693943424+693764060+695003033+696973426+697696409+695584510+691397602
3148+687650292+685887937+685597759+685709693+686024514+686808505+687719365
3138+687827939+686682830+684956020+683636849+682767806+681579461+680003639
3128+678937759+678705078+678598818+678177439+677884273+678096718+678478446
3118+678534226+678127558+677359547+676462054+675704796+674867041+673279122
3108+670950299+669023813+668559795+669238423+669697063+669059506+667796713
3098+666825219+666018602+664338462+661757917+659865855+659907224+661190328
3088+662133969+662076621+661255816+659979881+658676092+657938175+657860963
3078+657938473+657598786+656321880+653950717+651521982+650666380+651628838
3068+652929117+653279109+652811806+652210316+651659977+650923254+649917187
3058+648994752+648666192+649070097+649680996+649498794+647861293+645312334
3048+643259277+642576543+643015022+643947836+644921496+645453465+645057699
3038+643638914+641660605+639842395+638502241+637261402+635732773+634170691
3028+632943965+631893989+630710797+629516106+628729875+628575526+628815301
3018+628954043+628817466+628662819+628458364+627525401+625513826+623327366
3008+622192114+622020217+621620120+620503611+619434109+619069966+619040172
2998+618552185+617356224+615921048+614762312+613766362+612504540+611126041
2988+610330924+610463095+611170807+611800934+611736417+610601837+608541649
2978+606224886+604382370+603316750+602827605+602612996+602603288+602681620
2968+602364186+601219039+599432528+597542781+595872647+594634235+594111711
2958+594208264+594204306+593485505+592257322+591094703+590142848+589226835
2948+588362235+587636303+586820651+585637608+584381386+583756561+584019858
2938+584649537+584824981+584035576+582396469+580541109+579052281+578118907
2928+577632040+577031931+575468356+572840804+570232442+568778823+568685482
2918+569566584+570891169+571900373+571785004+570242635+567687254+564864358
2908+562435958+560911959+560533181+560892432+561073215+560592807+559796832
2898+559107638+558470716+557696694+556799686+555832262+554683046+553220465
2888+551661407+550527238+549933850+549296330+548143680+546697938+545331536
2878+544182134+543463855+543347254+543413825+542951861+541910958+540957049
2868+540492883+540202778+539694181+538989493+538150805+537030151+535671366
2858+534463794+533669834+533069539+532188324+530789029+529035261+527185838
2848+525401567+524005819+523475305+523746928+523991145+523537433+522499181
2838+521117285+519324389+517454692+516463670+516786444+517572376+517612139
2828+516637994+515269912+514060771+513011655+511916017+510882059+510220569
2818+509846420+509212821+508006182+506549837+505381131+504662405+503994418
2808+502753504+500799166+498712245+497171295+496435991+496506371+497268781
2798+498235720+498566446+497746501+496110604+494419823+493006378+491603088
2788+489977645+488386068+487265788+486674976+486126541+484994313+483194248
2778+481382199+480300189+480041111+480098721+479977042+479529602+478801467
2768+477807981+476537870+475077567+473668788+472588570+471899078+471355086
2758+470684001+469856140+468896332+467651311+466024264+464268107+462821543
2748+461883876+461202673+460384706+459435464+458715543+458324182+457903214
2738+457109329+455921395+454483532+452931792+451389610+450008871+448916817
2728+448054831+447190977+446216160+445262588+444407919+443446506+442141522
2718+440650081+439446130+438677596+437906001+436780121+435565193+434633350
2708+433920560+433228156+432570997+431985487+431387730+430711642+429941391
2698+429033145+427917868+426584658+425163708+423857045+422760585+421909202
2688+421446454+421445073+421561413+421186481+420044322+418459688+416924227
2678+415586313+414387029+413464333+413007373+412857691+412646217+412201055
2668+411611363+411087010+410777603+410521438+409916065+408788653+407374536
2658+406002459+404846709+403939321+403206743+402507805+401736770+400905922
2648+400108938+399401151+398775691+398246671+397775224+397154954+396264815
2638+395345555+394706803+394337770+394041169+393666423+393069301+392169941
2628+391110109+390148882+389469620+389101669+388869437+388519968+388019846
2618+387501915+386933094+386190174+385381952+384713555+384164821+383618290
2608+383117758+382737822+382368789+381813148+381032629+380223586+379636284
2598+379320119+379101252+378833700+378522388+378176205+377773046+377395164
2588+377151170+376930549+376460969+375668129+374830001+374280819+374016440
2578+373711886+373135374+372389803+371724355+371303723+371167333+371195298
2568+371120961+370757715+370191732+369650689+369255744+369000027+368908814
2558+369078770+369495519+369899238+369970700+369630229+369051850+368457827
2548+368016436+367822398+367825199+367853761+367807165+367717707+367565449
2538+367201867+366592685+365993771+365713039+365786629+366017779+366201959
2528+366193857+365902521+365403183+364994237+364966944+365283819+365543942
2518+365322574+364619380+363941051+363790697+364111529+364425491+364418509
2508+364116271+363643032+363150415+362829358+362690504+362489261+362049587
2498+361482484+360989829+360632781+360354438+360104321+359873955+359651243
2488+359420952+359219372+359086828+358970600+358806095+358638305+358524765
2478+358423098+358281966+358103087+357863499+357533445+357183043+356937444
2468+356834656+356816996+356828496+356835366+356767301+356531559+356114287
2458+355628316+355254952+355131368+355221647+355300763+355177441+354913883
2448+354696846+354542311+354297496+353919838+353582017+353443985+353431925
2438+353331378+353041498+352659397+352367202+352282747+352347899+352364513
2428+352219163+352003694+351835456+351679688+351443199+351147532+350917166
2418+350807397+350720104+350582594+350539620+350781934+351238372+351637685
2408+351810926+351773104+351607778+351397425+351197040+351034813+350945841
2398+350934453+350911678+350792649+350645730+350630012+350790484+350965517
2388+350844621+350068061+348327959+345438827+341332453+336009546+329532793
2378+322074241+313928661+305422710+296824071+288420216+280611113+273685408
2368+267552113+262049823+257460632+254335087+253007440+253637231+256387751
2358+261276137+268208525+277426165+289497242+303964143+318010206+327626431
2348+330191931+326105083+318886567+312733858+308977121+306236439+303184894
2338+299567702+295700543+291997029+288780737+286379742+285202991+285391129
2328+286454117+287546152+288197971+288785964+290230455+293117888+297117797
2318+301278085+304810094+307595486+310060456+312668631+315546039+318490689
2308+321221887+323617767+325749603+327696437+329396478+330733794+331696178
2298+332413449+333100365+333920908+334828183+335623487+336220758+336732939
2288+337285780+337872149+338378356+338667826+338672792+338448885+338113753
2278+337745504+337381884+337064450+336823667+336656997+336540097+336413302
2268+336197348+335921693+335773169+335883461+336149445+336376862+336464640
2258+336373613+336135332+335950106+336039228+336374024+336737905+336998439
2248+337156073+337231418+337258076+337318412+337462493+337604409+337604969
2238+337516594+337630134+338122116+338740931+339046492+338948969+338824266
2228+339059560+339623041+340176368+340505974+340661592+340741156+340782151
2218+340842711+340991123+341248745+341643354+342197576+342815755+343352280
2208+343815364+344339456+344992694+345770449+346675074+347616363+348364735
2198+348825840+349240984+349906543+350807957+351709035+352476299+353147608
2188+353785426+354414135+355057964+355728900+356366420+356859635+357167175
2178+357369912+357595610+357936455+358411449+358955628+359512351+360147034
2168+360955554+361909276+362963023+364217565+365809255+367787153+370204911
2158+373118461+376415231+379862916+383344054+386840873+390248122+393408988
2148+396271312+398906854+401504612+404335984+407489046+410696359+413698209
2138+416645622+419849985+423323059+426856580+430363069+433887853+437470024
2128+441212741+445345474+449937708+454548833+458429359+461133787+462684369
2118+463202487+462775022+461596236+459909898+457969561+456198805+455091742
2108+454932353+455913144+458378955+462538085+467914010+473246849+476973810
2098+477896767+475577689+470316312+462948935+454586244+446188382+438154177
2088+430323268+422418210+414451322+406705915+399484449+393029874+387563856
2078+383186718+379779581+377109353+374949888+373085717+371363424+369781031
2068+368446178+367431710+366654253+365895054+365033739+364220104+363674394
2058+363393213+363174459+362849819+362446884+362189076+362287233+362697635
2048+363216388+363814817+364736280+366281523+368650110+372025100+376711645
2038+383046818+391127209+400730403+411466012+422736914+433545628+442712135
2028+449407194+453285442+454236439+452381714+448266192+442712807+436434610
2018+429897222+423433052+417300429+411643323+406436308+401460032+396457920
2008+391434488+386660762+382321782+378356166+374688944+371402963+368604709
1998+366258487+364215399+362357090+360670080+359176099+357838260+356585884
1988+355388504+354270875+353309685+352586703+352054658+351511002+350806128
1978+350002386+349250131+348617652+348110847+347742859+347511112+347363147
1968+347200211+346924631+346553693+346242009+346094231+346051406+346038637
1958+346052564+346019558+345780306+345293738+344702254+344205119+343959371
1948+344005892+344216544+344392809+344397924+344172935+343762197+343341340
1938+343084764+343013228+343022189+343025026+343018642+342983769+342802426
1928+342447655+342186450+342312273+342743584+343193040+343589740+343942943
1918+344022693+343653137+343108100+342798058+342830242+343057472+343296201
1908+343415603+343372516+343239748+343162424+343251434+343490313+343746665
1898+343892576+343884586+343753572+343625919+343688345+343975537+344262132
1888+344316419+344156283+343932227+343759247+343679459+343586566+343292915
1878+342843011+342560187+342659502+343074385+343705035+344486561+345142525
1868+345276152+344897113+344429212+344153035+344034044+343968369+343937379
1858+343971094+344098598+344309362+344530992+344708862+344889832+345197372
1848+345773250+346649536+347519923+347844750+347544005+347156341+347090143
1838+347295569+347554907+347829293+348312016+349109224+349910538+350251159
1828+350193623+350187239+350306006+350306529+350224613+350328968+350664025
1818+351057290+351430206+351869021+352453374+353154889+353865028+354473500
1808+354960255+355439170+356096926+357048072+358195980+359232477+359895050
1798+360324494+361024589+362354850+364078337+365435255+365993174+366276483
1788+366971575+368171942+369624890+371196381+372896346+374614644+376135843
1778+377450870+378905311+380946942+383616013+386158102+387620421+388022908
1768+388098775+388481773+389567106+391363474+393333121+394912303+396284828
1758+397940288+399832537+401692489+403657357+405923791+408108757+409565961
1748+410335241+411036606+412047154+413365131+414876920+416406221+417797676
1738+419319845+421592067+424739641+427736488+429464754+430383903+431353978
1728+432599111+434193639+436232507+438623234+441345024+444732933+449005902
1718+453506474+456859100+458631722+459765630+461080956+462812135+465061245
1708+467984315+471488900+475120243+478745163+482912022+487978988+493230732
1698+497737764+501430263+504328878+506665766+509324756+512901288+517249378
1688+522174205+528080718+535216758+542019570+546447373+549280425+552380769
1678+556608972+561877965+567462265+572695677+577769588+583144542+588533348
1668+593279818+597628319+602435237+608006693+613785852+618993427+623508971
1658+627798704+632494733+638265005+645186286+651595012+656474437+661368423
1648+666995846+672062402+675206504+677339236+679776484+682502717+685210729
1638+688068908+690970099+692791819+692829902+692010442+691307621+691032227
1628+691199196+691614377+691896939+691659181+690935003+690456947+690860106
1618+691674041+691380203+689168467+686075814+683114586+680279929+677215727
1608+673889573+670775415+668437556+667052822+666512937+666818722+668037757
1598+669894872+671698446+672761265+672773288+671782827+670037348+667898642
1588+665771809+664061650+663048787+662575958+662092825+661409717+661056066
1578+661485659+662311766+662906909+663701652+665515232+668286119+671274827
1568+674138681+677380754+681411373+686167289+691727880+698670517+707354824
1558+716452969+724654964+733023778+742393135+752300509+762129179+771597551
1548+780365866+788219587+795146542+800797413+804724385+807125791+808686529
1538+810038705+811427994+812673762+813601125+814584641+816270755+818821954
1528+822003691+825486286+828860604+831570632+833036685+833621822+835004390
1518+837965096+841356141+843937060+845860932+848043546+851107374+855001341
1508+858587133+860072302+859913100+860548491+862420018+864704187+866944747
1498+868817618+869715932+869535224+868999745+868682385+868790511+869556879
1488+871074755+873082559+875312964+877511632+879180497+879883019+879743978
1478+879398467+879684165+881264692+883689096+885196966+885188976+885399927
1468+886978437+889012900+889984394+889969982+890627029+892779998+895516908
1458+896910230+895751456+893570335+892360560+892179627+892243025+891854128
1448+890816026+889758060+889514776+890076466+890764203+891083952+890901078
1438+890138668+889019023+888370713+888698602+889532250+890180709+890496725
1428+890871956+891464336+891840389+891600166+890900780+890104841+889400900
1418+888966453+888889316+888940318+888930760+888971008+889039782+888824500
1408+888454048+888643418+889555473+890170777+889426513+887522653+885651201
1398+884733621+884362646+883260698+881063448+879051238+878400762+878290321
1388+876487942+872388774+868919322+869394316+873846911+879623904+884267512
1378+887338211+889857749+892731236+895802084+898198636+899594944+900604745
1368+901861490+903397063+904849227+905878219+906611134+907635571+908944288
1358+909578858+909251716+909358946+911211506+913999045+915839881+916409486
1348+917089681+918683350+920385518+921339016+922005323+923292683+925328789
1338+927720263+930119876+931951303+932706022+932924515+933718064+935297395
1328+936901667+938007871+938869597+939867226+940893680+941713364+942537977
1318+943598631+944516958+944895176+944982991+944973732+944521289+943783969
1308+943935032+945714636+948149346+949525119+949473893+949333807+950349508
1298+952174588+953245770+952213119+949064536+945167508+942066866+940137692
1288+938640948+936922501+934964354+932907340+930736076+928419499+926000845
1278+923539552+921058396+918587096+916163289+913683851+910964638+908231834
1268+906161379+904967359+903981976+902516222+900399395+897506493+893859842
1258+890251648+887536617+885427556+883046611+880317914+877893659+876216356
1248+875354407+875076550+874705649+873672923+872348002+871623078+871752187
1238+872220536+872603234+872997731+873686887+874817808+876440823+878502243
1228+880673730+882536371+884110102+885757535+887506076+889023951+890195345
1218+891255252+892458083+893876345+895560218+897710872+900378113+902934166
1208+904431059+904922257+905814449+908224591+911553135+914334177+915995649
1198+917181006+918693505+920733867+923058658+925367320+927414552+929109477
1188+930837781+933375763+936900174+940467298+943039779+944453187+944984634
1178+945016071+945614574+948065787+952224021+956354701+959160236+961194699
1168+963756352+967095500+970297398+972628611+974155821+974868947+974490430
1158+973748555+974344818+976853827+979826779+981471225+981304406+980005023
1148+978779342+979026659+981658355+986317496+991457006+995494271+997831009
1138+998418237+997323682+995396673+994299504+995464327+999238369+1004527226
1128+1009389700+1012942785+1015915886+1018203191+1017803244+1014097751
1120+1010043610+1008943903+1010730750+1012635730+1012661269+1011581051
1111+1011887135+1015430513+1021625823+1027564035+1030689693+1031295887
1103+1031228458+1030956947+1029447733+1026516897+1024071435+1024561513
1094+1028374535+1032973862+1035403344+1035617357+1035635204+1036411802
1085+1037918551+1040631492+1044501041+1048207131+1051150512+1053891156
1077+1055963851+1056397253+1056295250+1057492704+1059280448+1059374386
1068+1057665796+1056443326+1056886883+1058013622+1059088016+1060403304
1060+1061692307+1062177606+1062108907+1062082398+1061572607+1059897171
1051+1057546170+1055330252+1053786763+1053839333+1055787847+1057654222
1043+1057208947+1055535827+1055594295+1058137505+1061421394+1063840870
1034+1064986651+1064613735+1062511544+1059435021+1056960286+1056479841
1025+1058254368+1060808330+1061889817+1061227394+1061167730+1063407917
1017+1066920604+1069809101+1071863651+1073614207+1073741823+1070221668
1008+1063908524+1058189776+1055094211+1053977030+1053776085+1054467108
1000+1055794568+1056118947+1053957242+1050403036+1048178083+1048077125
991+1048103709+1046582174+1044154110+1041628823+1038638174+1035431795
983+1033403380+1033057421+1032978193+1031278937+1027866535+1024733783
974+1023502801+1023223300+1021558916+1017724912+1012754236+1007533257
965+1002010973+995714332+988847637+982887098+979101332+976721507+973745270
955+969654465+966041567+964566852+965019220+964988978+962088235+956989869
945+952924079+951977600+953255478+954762078+955582733+955867460+955819072
935+955215342+953971964+952690801+952039056+951985665+952090132+951916667
925+951102658+949783114+948793623+948764874+949340677+949865030+950248326
915+950595032+950700843+950404392+949982864+949891987+950280958+950853998
905+951000431+950171114+948297049+945704406+942873482+940530844+939257672
895+938631017+937568646+935927336+934870266+935332790+937046234+939023273
885+940037705+938925825+935854903+932922573+931822194+931574653+930131973
875+927456070+925220662+924505669+925285628+927194267+929425269+930763481
865+931104662+931766040+933283467+934432982+934086350+932571088+930796860
855+929381660+929016285+930492419+933378153+935535079+935482584+934115771
845+932538755+930133914+926376972+923179106+923102790+925938567+928829603
835+929534664+928423158+926917977+925560573+924792712+925913403+929353209
825+933224401+935277756+935417544+934984814+934735183+934628774+934495184
815+934453293+935025138+936471178+938180963+939253117+939529257+939558827
805+939725572+940024487+940580128+941493751+942149080+941882573+940990680
795+940313994+940441536+941699774+943680771+944927957+944434668+942863849
785+941568872+941200511+941476427+941666768+941462986+941594560+942355476
776+942334045+940897712+940340204+943096679+948335953+952754796+954103388
766+952600148+949052290+943843334+938243838+934827105+935475490+939549120
756+944408607+947515149+948116265+947347433+946847424+947237963+948085276
746+948796834+948914668+947949297+945743310+943140811+941932006+943621406
736+947844456+952100213+953788194+952982996+952329160+953650348+955562795
726+954673814+949274517+941573352+935871406+935154396+938759305+942806874
716+944347450+944830509+947009987+949557602+948630164+944441986+941215445
706+940586550+939896722+937251360+934625339+934417076+935600418+934751611
696+930117934+923261171+916209810+909450645+903211800+897977828+893505743
686+889579816+887067298+886377992+886581028+887067895+888003248+889298075
676+891011071+892538804+889783897+878019781+859942148+848726653+855484774
666+871246353+881827277+884503479+882835660+880273484+878524869+877889253
656+876974062+873785455+869032750+865538283+864669016+865668065+866903005
646+866536510+863335657+857584052+851127387+846221453+843451313+841366670
636+839128499+838471452+841272507+846081441+849005333+847569074+842978185
626+838457638+835423828+832880320+830799859+831255737+835229678+840829249
616+844927297+844294967+837345236+827205031+819965047+818401621+820818782
606+824881883+829113148+831240653+829720164+825560809
##END=
