##TITLE=<SNM>
##JCAMP-DX=4.24
##DATA TYPE=INFRARED SPECTRUM
##DATE=2/5/2025
##SAMPLING PROCEDURE=Instrument type and / or accessory
##ORIGIN=Admin
##XUNITS=1/CM
##YUNITS=ABSORBANCE
##RESOLUTION=4
##FIRSTX=4497.3318
##LASTX=599.83466
##DELTAX=-1.4281778
##MAXY=1.7385854
##MINY=0.19319005
##XFACTOR=1
##YFACTOR=1.6191838e-09
##NPOINTS=2730
##FIRSTY=0.20901683
##XYDATA=(X++(Y..Y))
4497+129087773+130101222+131228990+131777390+131767119+131558591+131427165
4487+131442193+131409523+131209066+131146652+131463130+131801170+131751180
4477+131475057+131315911+131361254+131742042+132723244+134162667+135354698
4467+135651344+135112635+134543620+134754357+135574205+135923952+135180166
4457+133953311+133143521+132879389+132780329+132644320+132444691+132128968
4447+131785148+131640193+131617315+131278271+130516217+129904124+129955375
4437+130418989+130705594+130631999+130336411+129784165+128814208+127629475
4427+126881216+127043343+127797253+128271487+127912519+126992184+126265939
4417+126240465+126841625+127751560+128754887+129531251+129555528+128708771
4407+127616076+126926706+126658957+126520205+126403798+126327791+126178300
4397+125706551+124806186+123812965+123292791+123352573+123473738+123259807
4387+122985019+123097146+123495503+123667992+123366598+122795181+122211360
4377+121752292+121600555+121837943+122161314+122235895+122211084+122402025
4367+122696922+122756042+122540280+122257181+122000926+121706379+121326778
4357+120934487+120682604+120675960+120916569+121386201+122029446+122599997
4347+122735050+122290339+121461748+120547230+119766485+119313233+119348305
4337+119844359+120574617+121323290+121984223+122412719+122398537+121900219
4327+121215874+120813478+120886761+121102955+121025623+120775958+120883328
4317+121525772+122405807+123194255+123601225+123350548+122625950+122163054
4307+122418369+122982718+123116804+122607949+121962357+121938881+122857172
4297+124188517+124986075+124881687+124449225+124411604+124766016+124960823
4287+124686485+124171187+123720854+123257074+122491035+121451662+120625924
4277+120469787+120938904+121677013+122481924+123272968+123783746+123747073
4267+123350493+123144477+123426297+123839249+123710942+122939133+122332065
4257+122669700+123727802+124733613+125384063+125866184+126312634+126723028
4247+127084499+127311709+127289658+126986948+126441419+125805684+125418556
4237+125578216+126192095+126774325+126840861+126311327+125527518+124963887
4227+124980038+125639406+126570094+127276756+127743149+128309743+128898810
4217+128967372+128353079+127538827+126982604+126692189+126490784+126289360
4207+126096532+126118177+126720543+127858047+128773587+128814705+128301387
4197+128022595+128184206+128444344+128644894+128894494+129130972+129090976
4187+128660382+128011441+127477517+127342087+127581500+127866035+128053700
4177+128509022+129595266+131083023+132360807+133004125+132998484+132674441
4167+132436942+132339226+132101313+131676729+131403992+131481710+131724979
4157+131892104+131906111+131786906+131649801+131678035+131883922+132041982
4147+132023521+132005943+132166883+132365362+132342603+132057342+131607440
4137+131038849+130457889+130162983+130443873+131234723+132008796+132134646
4127+131500631+130688311+130337681+130468629+130615424+130480611+130180128
4117+129912352+129749543+129835498+130420139+131441466+132350960+132657011
4107+132461983+132228488+132234902+132483435+132873591+133201463+133222344
4097+132958921+132786762+133008819+133469092+133724334+133517112+133043532
4087+132797511+133118462+133881436+134663322+135142563+135283919+135253108
4077+135251258+135331765+135296950+134909389+134230161+133590294+133243419
4067+133206082+133384204+133668886+133963222+134277234+134723021+135292735
4057+135750238+135822628+135393682+134534141+133534579+132868318+132897593
4047+133555783+134390015+134948869+135119647+135075391+134930362+134556081
4037+133808779+132878625+132301945+132581151+133761762+135295468+136322538
4027+136290678+135471685+134804145+135027987+135972543+136792428+136851943
4017+136256480+135566650+135244135+135396516+135792599+136086889+136176332
4007+136216631+136269078+136307629+136514814+137019224+137467220+137454005
3997+137179860+137106955+137259410+137394711+137543963+137887599+138369931
3987+138768849+138932853+138799559+138410617+137978560+137760249+137879418
3977+138366075+139178764+140013235+140328001+139846396+138893483+138076175
3967+137862392+138489992+139820251+141115741+141458751+140727554+139784709
3957+139466547+139785703+140342735+141252891+143119871+145770725+147647801
3947+147576119+146634922+146636026+147432453+147366423+145968412+144493540
3937+144144023+145311658+147889846+150994301+152730591+151805848+149456812
3927+148198888+148895031+150145270+150624133+150949731+152311132+154365888
3917+155266648+153573004+149961848+146609126+145102761+145580180+147835521
3907+152349582+159274762+166790297+171834104+172931640+170561971+165459210
3897+159203863+154857506+154826382+158404132+161567274+161210846+159782393
3887+161082576+164243141+165725892+165728634+166674764+166954698+163772708
3878+159780773+159512196+163371370+168855130+174127076+177438605+176714853
3868+173668551+172462182+173520440+173269165+169932604+166204534+165365728
3858+169016512+177909940+190595950+198153506+191484286+177656805+166463687
3848+161126327+161678150+166664291+173730929+181046596+187877713+192738014
3838+192959619+188619410+183274633+179209130+176158907+173796803+172726563
3828+172958935+173909188+176642592+183066206+191047426+194055904+191151289
3818+187849129+185077404+179557348+172227509+167696340+168472382+173881672
3808+180549382+184899954+187919752+192584105+197068541+196836850+193127222
3798+189965479+187044079+182842060+179028311+178155252+180340109+184028883
3788+188161088+192418066+196369582+200088578+204678609+210347696+215153737
3778+217790603+220104042+224832042+233363797+245492628+258903771+270196501
3768+278450366+285079516+290763936+296472430+304725245+316634882+329595598
3758+340479813+350625993+364531882+385368464+411573125+434650941+447725000
3748+456225557+467802528+481870168+490758718+493345465+496892809+505731406
3738+519035280+532978386+542923133+545617701+542070247+537298809+535775952
3728+538607864+543868932+548233013+548972962+545083860+538013836+531495286
3718+528869188+531222144+538637350+550407029+561831784+564995368+558697760
3708+549989439+545054705+545777132+550307307+554314169+555003171+554051740
3698+554245957+556440403+560854401+568775177+581233894+595012158+601658776
3688+597118146+588201067+582043564+580471343+583101859+589129049+597417829
3678+605796540+608962258+603148097+594994047+591504681+590467958+586017958
3668+577916549+570349238+565248852+562140044+560484004+560647447+563126299
3658+566891862+569665758+571696540+576775759+587322081+600023166+605898950
3648+600005238+588740871+580166065+576765231+576739610+577187975+577400267
3638+579273349+583930855+589738390+594959812+600627537+607622907+612084981
3628+610060052+605889231+605436781+609548629+616623439+624735303+631056727
3618+633561826+634236655+635684895+637411650+638510622+640273747+643346995
3608+645403803+644798916+643531495+644454434+648525053+654807531+661329211
3598+666126637+668185948+667330227+664722719+663934510+668506945+677370059
3588+683610719+681678923+674628262+668374644+665667818+667037870+671605593
3578+676456323+678202883+676237515+673451103+673719017+678393052+684450096
3568+686123843+680882542+673174353+668311991+667075492+667607197+668900387
3558+671313898+674578935+677307995+678325834+677146098+674328395+671648589
3548+670500584+670248352+669008171+665943758+662155482+659646408+659846663
3538+662455791+665387535+666616304+666344856+666354280+667141384+667474234
3528+667230321+667875848+669037620+667984074+664061952+660414886+659710534
3518+660988188+661629593+660867152+660285235+661421019+663727261+665428102
3508+665621804+664415637+662237867+659958349+658570407+658071389+657356289
3498+655524694+652757644+650392871+650418197+653929503+659605694+664101487
3488+665000204+663401185+662144586+662091651+661922318+660886368+659722166
3478+659326148+659986399+661128735+661119900+658788184+655598538+654118567
3468+654631130+655053285+653946215+652119406+650803246+650021222+649626234
3458+650463328+652951567+655298818+654981355+652130375+649810439+650406344
3448+653036234+654866430+654003273+650656221+646474577+643411195+642410731
3438+642880814+644021751+645942650+648623708+650864648+651234824+649512413
3428+646666586+643976767+642390043+642158866+642727752+642993310+642076261
3418+640182381+638518352+638309042+639805725+642008381+643539225+644077999
3408+644345030+644498607+643609094+641178943+638397463+637201309+638177993
3398+639955401+640796913+640651949+640377114+639569911+637609255+635543612
3388+634843383+635413373+636250909+637206831+638863645+640936281+641905161
3378+640849038+638785678+637335745+637098310+637912803+639367079+640536434
3368+640649520+640185326+639890907+639261209+637583487+635739965+635392979
3358+636970427+639432015+641176293+640758703+638022206+634748704+633008328
3348+633217196+634595494+636552764+638376849+638709699+637275963+635994406
3338+636756037+639054770+640649593+640192026+638304183+635993081+633506020
3328+631168782+629891937+630111922+631070863+631633638+631346140+630617860
3318+630290900+631030518+632954877+635575049+638026697+639776865+641181225
3308+642697419+643791900+643635156+642587573+641811954+641623553+641393628
3298+640889678+640464431+639973218+638799445+637058112+635642193+635244481
3288+636145186+638018231+639432015+639043359+637438302+636357221+636421494
3278+636953788+637283104+637196229+637288553+638888897+642127944+644541971
3268+643744192+640984946+639405290+639694186+639976310+639302585+638918494
3258+639762509+640636415+639995378+638298293+637195567+637216549+637701136
3248+638423305+639566819+640522446+640454271+639678505+639058009+638617081
3238+637972805+637390079+637360703+637780723+638160250+638098038+637485789
3228+636711200+636225214+635711914+634539099+632737689+630780199+629290804
3218+629174922+630801182+633011788+634029185+633252020+631360791+629275932
3208+627806195+627450375+627856185+628199858+628226509+628251394+628397462
3198+628419254+628082355+627315055+626167345+624948000+624208971+624131078
3188+624028300+623110073+621656459+620639504+620194821+619330118+617340896
3178+614897199+613377287+613330610+614079136+614707214+614874486+614565085
3168+613714812+612400419+610950891+609544470+607801002+605412227+603277048
3158+602862403+604048139+604987827+604578446+603467952+602290646+600763372
3148+598854399+597228066+596128247+594982562+593490369+592451658+592960504
3138+594946597+597023099+597747145+596631571+594219900+591747453+590358885
3128+590146704+590167465+589618605+588686832+588033648+587925900+588216675
3118+588706158+589136963+589230722+588945874+588298065+586986838+584992536
3108+583290997+582879848+583409162+583772491+583608901+583198121+582420404
3098+580873436+578731667+576772446+575519934+574705294+573816553+572935101
3088+572559697+572798530+573205776+573276160+572844066+572200122+571881555
3078+572142254+572762087+573343231+573383208+572354694+570431438+568752795
3068+568192597+568282086+567987373+567062520+565984236+564965808+563753052
3058+562364411+561428183+561393543+561826741+562019707+561898119+561708981
3048+561261058+560264275+558959270+557716070+556501695+555348720+554815469
3038+555319234+556345908+556882768+556470920+555410233+554179218+553108076
3028+552358188+551796591+551080680+550119457+549199169+548522499+547932705
3018+547138570+545968110+544455082+542836037+541334126+540000960+538991698
3008+538692972+539176823+539765734+539548104+538322280+536833953+535959016
2998+535710170+535308777+534274778+532985564+532012157+531452732+531084248
2988+530690733+530191789+529742468+529544827+529470173+529149434+528415596
2978+527453232+526515973+525604225+524456441+522886356+521142225+519770701
2968+518963387+518223585+517057543+515830762+515328248+515658410+516281077
2958+516805384+517029014+516617424+515421823+513728455+511897780+510213837
2948+509030235+508588534+508724110+508901726+508565526+507621274+506566954
2938+505912961+505641954+505433527+505044945+504335329+503331772+502380415
2928+501862256+501652945+501129633+499903661+498353711+497107604+496247171
2918+495511161+494867401+494319425+493642203+492782837+492007439+491428504
2908+490888589+490310575+489726559+489089683+488385515+487798003+487476086
2898+487122033+486156392+484508082+482855539+481835417+481414956+481237929
2888+481148146+481194418+481392611+481506911+481087922+479955231+478510158
2878+477324384+476613149+476239070+476017243+475895176+475803148+475413534
2868+474402726+472934167+471412709+469997563+468852540+468369757+468555103
2858+468720865+468293704+467471224+466737570+466172734+465579442+464908957
2848+464099435+462752721+460655752+458521750+457431761+457561264+458016402
2838+457867646+456979789+455871283+455002862+454322622+453591508+452910089
2828+452464817+451964327+450895026+449295601+447843717+447161047+447288489
2818+447774622+448082514+447857154+446956412+445521940+444015649+442925990
2808+442356148+441951368+441285705+440336262+439432134+438757746+438260422
2798+438002852+438057517+438055051+437462201+436349131+435348151+434853772
2788+434622890+434144819+433235684+432178862+431249960+430311302+429104031
2778+427746679+426620798+425869033+425275079+424602311+423789292+422768765
2768+421397904+419788283+418452208+417784042+417538398+417102513+416200814
2758+415123451+414304836+413838618+413461999+412941631+412329455+411818511
2748+411493870+411252534+410856037+410103425+409042479+407906623+406802534
2738+405681439+404654102+403959101+403515595+402928893+402074681+401226506
2728+400541112+399949625+399559827+399530415+399511236+398814136+397249940
2718+395415143+394097879+393576922+393483052+393264392+392734637+392101184
2708+391552545+391023821+390389705+389736300+389309618+389162224+388976253
2698+388362347+387254835+385955093+384866355+384148824+383546330+382680265
2688+381582545+380732125+380464100+380522814+380344757+379729673+379023996
2678+378549937+378121266+377364200+376255510+375077725+374103766+373519162
2668+373371216+373451392+373420249+373084712+372454793+371629773+370718135
2658+369787650+368885767+368136431+367697122+367552858+367466645+367200645
2648+366712193+366094643+365425556+364750911+364156294+363752214+363546990
2638+363352919+362886223+362038122+361032025+360228503+359789121+359608118
2628+359505488+359351174+359035883+358483415+357743135+356984339+356318934
2618+355664682+354883615+354060288+353495268+353341838+353378244+353251318
2608+352841937+352295543+351808784+351486757+351283705+350965579+350274185
2598+349274936+348392048+347950972+347841274+347747772+347533897+347276290
2588+347067900+346890542+346638199+346246082+345775889+345319242+344875147
2578+344404438+343928060+343476861+342985832+342327237+341494412+340708817
2568+340248710+340165847+340258833+340290712+340146263+339837047+339433224
2558+338974736+338487499+338084633+337870832+337718174+337373398+336818648
2548+336275309+335845792+335416018+334936842+334574175+334495177+334634877
2538+334746784+334608446+334173260+333638536+333344448+333431581+333611074
2528+333460626+332936503+332403914+332162688+332130698+332061456+331900626
2518+331749257+331586697+331281456+330865412+330546146+330411636+330324172
2508+330140888+329881477+329606973+329283841+328909947+328633308+328520554
2498+328350227+327925716+327421987+327121458+327035613+327028067+327006753
2488+326827297+326347201+325688348+325153440+324857880+324665392+324448977
2478+324249127+324178412+324250084+324346862+324362728+324310234+324229433
2468+324066800+323736968+323272186+322817379+322463841+322158195+321807970
2458+321424688+321128466+321038204+321154013+321335457+321436726+321438456
2448+321367667+321182064+320886283+320641523+320574968+320589840+320486436
2438+320148690+319583044+318953972+318549671+318505386+318630619+318687898
2428+318693788+318731593+318670376+318349563+317888719+317569343+317521598
2418+317691336+317986344+318313083+318563033+318676118+318666547+318558579
2408+318392522+318309365+318475827+318842985+319105672+318997336+318552763
2398+318046089+317751376+317760137+317945262+318097330+318093612+317896450
2388+317472234+316822915+316007539+315029567+313795203+312244038+310412812
2378+308347353+306087640+303759568+301530445+299436366+297391282+295423945
2368+293809041+292863555+292558001+292427173+292139748+292136803+293321196
2358+296114658+300183180+305081102+310780964+317235020+323617073+328588103
2348+331277665+331913437+331698494+331564242+330962337+328890768+325549311
2338+321984776+318771129+315696372+312444845+309170864+306349572+304246069
2328+302748962+301660537+300870690+300271417+299791284+299588894+299983772
2318+301032643+302291947+303179547+303538901+303679650+303897777+304209166
2308+304588803+305162087+305980187+306811484+307345048+307488466+307370448
2298+307200177+307185931+307424028+307818426+308211500+308538847+308776171
2288+308876740+308882077+308950031+309132322+309242094+309104382+308844971
2278+308736690+308821338+308887415+308784840+308595886+308504575+308570744
2268+308646484+308578217+308462665+308522079+308756568+308945393+308951688
2258+308834443+308728058+308751212+308964830+309311300+309603694+309646211
2248+309430827+309196522+309221848+309576159+310104036+310584795+310877410
2238+310979599+310989722+311043835+311297098+311851554+312634167+313451972
2228+314179626+314769273+315176298+315480619+315957917+316807491+317918500
2218+319072763+320228387+321450714+322744713+324118888+325665341+327430417
2208+329306333+331124161+332808141+334445997+336222779+338237364+340400558
2198+342544977+344573587+346510978+348502814+350708819+353073666+355251804
2188+356899967+358061114+359125998+360340889+361539877+362518218+363410198
2178+364417803+365407666+366067513+366288014+366180745+365844508+365306913
2168+364662269+364046191+363392602+362425048+360983471+359165239+357158936
2158+355121860+353117582+351056541+348781477+346173416+343208100+340067045
2148+336962765+333825023+330818367+329087157+329918030+333178612+337509563
2138+341886087+346202682+350675872+355400817+360272788+365091123+369854389
2128+374728789+379682223+384575875+389527579+394749406+400224717+405844587
2118+411618772+417567847+423567649+429440157+435242429+441389698+448332722
2108+456267265+465462087+476626290+490521725+507445462+527342355+549689683
2098+572541623+592605862+607625006+618098772+625854374+632076333+636929493
2088+639743440+639429659+635159594+626559462+613799957+597664945+578852225
2078+557791571+535564838+513720246+493119663+474069398+456967530+441974817
2068+428842338+417407607+407597958+399211406+392189495+386524457+381801978
2058+377526097+373653156+370306987+367474818+365152893+363278302+361701848
2048+360525683+360019487+360188636+360901860+362256009+364574179+368392198
2038+374476298+383573791+396258789+412970896+433758077+457938877+484211713
2028+510886236+536021264+557936535+575854403+590013483+601274353+610318248
2018+617052956+621175333+622989332+623007811+621204929+617181170+610728439
2008+602019639+591362699+578888889+564665316+549091900+532871964+516544096
1998+500366309+484730866+470230654+457010158+444468762+432031358+419876520
1988+408583108+398550455+389931217+382661638+376491104+371187961+366607906
1978+362573582+358937964+355671640+352730656+350107834+348063174+346832417
1968+346004967+344700587+342597102+340305142+338504874+337234876+336235774
1958+335501973+335121378+334886778+334441948+333709324+332969781+332535957
1948+332526386+333080215+334394829+335985455+336418543+334893183+332504630
1938+330794256+330052356+329718954+329470439+329332727+329274712+329168179
1928+329142890+329768134+331369436+333198932+334234073+334728746+335464167
1918+335845130+334657626+332407116+330891033+330976362+331977783+332620108
1908+332244078+331236877+330360542+329893477+329638484+329497569+329711297
1898+330526047+331678653+332495169+332925496+333854767+335530465+336557507
1888+335712203+333840521+332513354+332139828+332245440+332432406+332542619
1878+332504372+332349433+332357826+333334215+336379007+341563250+346553606
1868+347787197+344572998+339963715+336857300+335806146+335899574+336157402
1858+336130971+335911206+335843105+336136346+336825053+337968125+339760810
1848+342682578+347047764+351373157+352231491+348612991+343977792+341515027
1838+341346945+341941820+342516816+344082190+347895129+352888209+355818297
1828+355483312+354022667+352681770+350567315+347648786+345477899+344903087
1818+345298738+345885771+346835435+348783170+351484364+353455990+353506127
1808+352234252+351290699+351943883+354590448+358448187+361507005+362114506
1798+361106385+361225581+364449351+369926503+373486473+371421640+365887578
1788+361837462+361250612+362896051+365080006+367280600+369148233+369991806
1778+370320423+372274932+377631894+385470359+391324350+391155790+386485289
1768+381088129+377120103+376033095+378402507+382234551+384402971+384774878
1758+385200236+385783220+386345038+388842700+394983859+402793647+407527243
1748+407257193+404587915+402571011+402520542+404317461+406619691+407830459
1738+408941616+413385652+421937892+428467670+426491332+419698389+413747693
1728+410014562+408655112+409657306+412225536+416320709+423851614+436176889
1718+449861100+456428941+452619683+444727584+438854377+437232092+440217103
1708+447150703+455721681+462921171+469057470+477720697+489605008+499016945
1698+501609876+499349684+493725360+487070497+484100468+486673963+492956514
1688+501563383+514122486+530409493+541136043+538574918+530674646+526496169
1678+528564278+535714403+544318659+551171863+557346519+564581349+569854785
1668+569460902+567054863+568555853+574339167+579615328+580772314+580310477
1658+583136609+592502716+609068644+626435554+630085639+623209612+621315217
1648+625980048+628263983+621466954+611362518+605453346+605618998+611616775
1638+622495615+633616381+635596032+626667982+617075006+613627421+615855513
1628+620200710+624147570+627659538+630031526+629409853+627540489+628979747
1618+634570241+638734510+636213876+630769450+628201624+629451155+632189418
1608+633932297+634161339+634009160+634358869+634898453+634982310+634839113
1598+635342916+636738367+638187490+638771689+638495087+637925024+637414006
1588+637124373+637299522+638045839+639126405+640496310+643089315+648395771
1578+656341689+662834140+662754995+659144888+659151219+664016011+668672302
1568+668536541+665827580+664786108+667529820+676177586+693098230+713803836
1558+720820484+710966182+699992810+694115554+692645006+694289525+697748779
1548+702781579+711148326+724441193+741754763+760037287+772855285+770718302
1538+757651237+748378852+747675310+750810696+751210837+748939124+749191356
1528+754108126+761595814+769452942+777767122+785637134+789714160+789471351
1518+787602797+784613479+780314628+777222091+778540165+785756772+798654799
1508+813201614+817550013+805597823+791207898+784745191+785810370+790754159
1498+795306863+795813095+792691109+790872471+794197510+801533682+807095463
1488+806053623+800338337+794923360+792461846+792737786+794307650+796746341
1478+801330335+809101397+818761334+826067320+825981623+819066133+812248710
1468+810530863+813413133+816367185+815709289+814246031+817659417+827580642
1458+838570211+840007775+830590427+820197058+814253688+812913306+814601115
1448+816376830+815528103+812393159+809450813+808488559+810411520+815894157
1438+823895513+829651144+828783422+824222031+821293820+821153127+821735264
1428+821475669+821084510+821709496+823458486+826289956+830336943+833802749
1418+832910585+827355135+821083332+816828728+814831261+814453427+815051394
1408+816098461+817017940+817049524+816171937+815922575+817676940+820603015
1398+822674253+823237543+822691481+820966271+818833116+818462424+820599776
1388+822689861+821456159+817796872+816003708+818431797+823950877+830305358
1378+836520913+842890855+848939432+852616905+853036188+852414957+853055551
1368+854774356+856710642+859238932+862226189+863484260+861374738+857376269
1358+853902879+851766411+850526599+849558455+848401763+846859875+845091449
1348+843457826+842375935+842382929+843921431+846751723+849700474+851298610
1338+851084293+850109745+849710708+850212523+851096515+851955475+852878341
1328+854113736+855777985+857820363+860040909+862182530+864052630+865512576
1318+866471369+866982976+867239258+867465796+867910185+868798079+870131098
1308+871537814+872585103+873391643+874519034+876160239+877909597+879302766
1298+880008517+879668158+878245097+876287975+874341528+872449047+870463654
1288+868384391+866200141+863717939+860683712+857051885+853208908+849863402
1278+847568129+846388908+846063200+846250791+846575690+846752753+846819014
1268+847085235+847794814+848938107+850285778+851303911+851410223+850800992
1258+850465786+850956852+851775393+852218678+852175608+851975942+852177302
1248+853398046+855650838+858121555+860185504+862091311+864076042+865612114
1238+866301594+866774181+867903632+869798985+872169795+875028579+878383951
1228+881725702+884334241+885945556+886899711+887577411+887948471+888031445
1218+888475392+890004617+892431822+894897974+896947494+898723135+900441497
1208+902257042+904329017+906669494+909115694+911510506+913782367+915946443
1198+918124288+920476103+923008590+925645400+928572212+932190565+936537419
1188+940846135+943874032+944935014+944584789+943994405+943805636+944147836
1178+945579437+948834534+953454234+957761184+960414854+961163086+960266651
1168+958618819+958220224+960738943+965211471+968776080+970450784+972062614
1158+974669828+976742906+977067584+977088935+978757454+981899319+984951143
1148+987093574+988679195+990015969+990670478+990390931+990106967+991115677
1138+993606787+996670243+999124247+1000198187+1000088121+999948900+1000957020
1128+1003137662+1005504423+1007274027+1008446548+1009297337+1010167930
1120+1011912207+1015352908+1019871009+1023715974+1026369055+1028940930
1111+1031623976+1032868795+1031635535+1029115564+1027219034+1026371117
1103+1025534906+1024039916+1022651164+1022668612+1024627428+1028199840
1094+1032825578+1037698395+1041409587+1042462250+1041413195+1041140936
1085+1043125446+1045361158+1045364103+1043567111+1042281284+1043011036
1077+1045832051+1049990136+1054502126+1058713955+1061885637+1062820871
1068+1060948194+1057258794+1053148050+1049442085+1046991026+1046866382
1060+1049313392+1052831839+1055355343+1056320616+1057088357+1059488101
1051+1063324600+1065401801+1062681944+1057139525+1054757230+1058654173
1043+1065537636+1069743133+1069303382+1066301990+1063344551+1062211051
1034+1063873975+1067768636+1071757239+1073741823+1073230216+1070935900
1025+1067645685+1064193426+1061650926+1060535758+1059958332+1058679278
1017+1057270795+1057510585+1059132428+1059556792+1057790059+1055878583
1008+1055720808+1056591254+1056395122+1054070105+1050491361+1047280954
1000+1045116509+1044048827+1044348915+1045633269+1046323486+1045363072
991+1043296473+1040969395+1038454136+1035722499+1033286974+1031511627
983+1030023705+1028330374+1026533382+1024927221+1023249351+1021031014
974+1018538284+1016363385+1014037558+1010161009+1004487983+998996953+995888366
964+994958359+993950607+991480111+988463700+986209067+984223600+980902831
954+975753412+970151653+966034577+964060448+963400049+963225415+963305812
944+962879534+960796295+957600465+955459212+955231937+955466353+955164057
934+955617869+958223022+961987149+964384611+964030778+961768562+959349308
924+957739613+956948312+956747174+956746805+956287913+955039560+953484273
914+952592992+952867238+953628868+953527195+951936127+949605441+947869703
904+947520583+948209842+948601811+947656712+945927674+944882079+945272208
894+946731859+948222431+948330142+946071018+942089850+938494173+937439522
884+939927172+944839009+948786826+948759438+945543067+942600500+941950776
874+942885568+943528150+942547491+940214891+938273230+937958418+938144095
864+936910467+934724671+933969299+935469590+937517931+938594963+939299315
854+940849449+943077062+944646706+944563512+943014409+940999640+939241741
844+937695951+936315077+935704521+936435230+938124806+939755115+940560993
834+940611278+940663477+941249075+941768633+941194962+940050491+940335044
824+942983045+946267371+947321285+945029693+941319237+939827560+942703130
814+947739685+950175578+948980013+948176196+950128386+951934801+950397625
804+946907744+944829438+945105451+946277162+947118674+947711193+948178110
794+948221253+947941707+947741599+947826118+948516629+950095697+951432766
784+950685712+948534740+948013784+950276147+952827996+952858256+950398877
774+947060365+943987485+941735208+940805127+941315114+942474310+943254935
764+943471682+943576079+943557600+943167397+943205976+944849022+947812351
754+950537730+952244534+953428025+954059416+952837494+949077343+944699714
744+943024421+945415110+949731263+952245123+951175158+948463915+947936111
734+951587816+957749699+962752534+963839653+960558198+954869564+950264441
724+948784838+949161199+948821723+946980484+944862421+943995731+945186142
714+948137176+951677047+954476638+955327058+953855480+951310110+949088239
704+947241993+945476143+944001547+942688774+940803876+937809699+933932929
694+929909354+926535135+924554012+924323939+925136296+925701795+925462226
684+923952879+919934090+913281288+906667801+902957934+902304235+903357928
674+904878171+904706188+900098267+891452783+885369308+888226030+894632269
664+896332152+892913391+888172212+884724002+883229821+884184124+887154005
654+889541159+888775479+884763537+879390231+873815050+867572034+861659365
644+859646952+862673596+866701515+867763527+866642837+865473997+864349699
634+863315516+862845580+861759566+859067023+857245588+859006725+861609301
624+858781807+849690388+841813897+841943915+848534137+854637049+856093313
614+854667234+854383712+856827114+859684278+859896092+857081261+853494713
604+851907988+852356721+851565788+846770055
##END=
