##TITLE=<SNM>
##JCAMP-DX=4.24
##DATA TYPE=INFRARED SPECTRUM
##DATE=3/5/2025
##SAMPLING PROCEDURE=Instrument type and / or accessory
##ORIGIN=Admin
##XUNITS=1/CM
##YUNITS=ABSORBANCE
##RESOLUTION=4
##FIRSTX=4497.3318
##LASTX=599.83466
##DELTAX=-1.4281778
##MAXY=1.7287906
##MINY=0.18079007
##XFACTOR=1
##YFACTOR=1.6100618e-09
##NPOINTS=2730
##FIRSTY=0.20309702
##XYDATA=(X++(Y..Y))
4497+126142376+126384673+126671440+126675086+126664267+126756901+126667942
4487+126286847+125923245+126029484+126884870+128255595+129293009+129144503
4477+127839165+126437769+126157749+127234701+128602982+128847139+127602116
4467+125895887+125053662+125467315+126571634+127656563+128215946+127850947
4457+126677048+125706187+125870353+126659020+126682907+125600208+124503201
4447+124322607+124746709+124879093+124410928+123864493+123822475+124232510
4437+124655038+124893726+124959260+124692762+123997228+123256465+122950050
4427+122973077+122872983+122597369+122402791+122181189+121523906+120416802
4417+119382766+118947002+119258008+120101742+121019739+121479353+121137639
4407+120062649+118760754+117882980+117704385+117933142+118105535+118003156
4397+117689309+117369992+117193499+117051823+116743501+116366414+116253993
4387+116550747+117108130+117601303+117576592+116811118+115795611+115307575
4377+115459829+115752982+115894741+115907365+115772917+115650843+115944256
4367+116572857+116843298+116494078+116035158+115753112+115352600+114754578
4357+114333928+114259776+114381832+114705748+115362013+116240861+116973109
4347+117158913+116590691+115441800+114227125+113438060+113194514+113208896
4337+113078687+112716242+112414315+112366902+112377073+112287660+112415463
4327+113195319+114481230+115495942+115588205+114928183+114309069+114279054
4317+114676530+115046453+115173867+115092858+114889951+114695956+114685183
4307+114924463+115336025+115784643+116048365+115878138+115306446+114709756
4297+114399157+114387024+114650236+115281466+116225969+117150306+117710447
4287+117806459+117587902+117328113+117252638+117416332+117748884+118111718
4277+118233356+117865636+117143651+116472662+116006838+115617229+115372887
4267+115607474+116433300+117461580+118079334+118009755+117627707+117573232
4257+118028802+118638523+119053546+119185013+119090973+118983809+119094620
4247+119318304+119312798+119011574+118691489+118596348+118809824+119306439
4237+119798640+119776484+119047197+118108432+117763858+118405953+119712272
4227+120981590+121728479+121926083+121770395+121451430+121139925+120931973
4217+120787641+120722310+120916518+121405053+121830599+121750543+121127958
4207+120439745+120295404+120859007+121702269+122387881+122945228+123478725
4197+123683437+123220815+122397118+121946926+122144261+122543699+122694093
4187+122675824+122732631+122833613+122808541+122582829+122280542+122298330
4177+122936602+123849657+124411974+124627144+125013125+125690231+126218425
4167+126250623+125945457+125738395+125812953+125875915+125568426+124967895
4157+124450910+124228817+124277498+124531669+124877714+125076309+124936780
4147+124568069+124282588+124223412+124267170+124298239+124329493+124330872
4137+124229863+124135341+124289983+124729421+125224176+125629407+126057619
4127+126608885+127130563+127321966+126988341+126235426+125452775+124971523
4117+124756436+124607699+124531438+124678926+125067007+125574960+126077554
4107+126376862+126208800+125671832+125473849+126249975+127635767+128532005
4097+128327506+127355294+126232261+125344445+124895465+124946664+125416227
4087+126191086+127094200+127778174+127928337+127579228+127102437+126916606
4077+127190795+127712084+128056066+127924922+127314951+126444581+125612073
4067+125071478+124935345+125127720+125406324+125477357+125214255+124837511
4057+124766700+125135467+125547741+125562947+125308184+125272571+125644243
4047+126210058+126716336+126956522+126754402+126233779+125831028+125783476
4037+125904245+125978183+126013574+126085541+126298786+126781982+127407196
4027+127789947+127828299+127853371+128029929+128085506+127861636+127680469
4017+127907069+128404906+128661937+128363656+127677267+127021428+126758132
4007+127073469+127873547+128792581+129519702+130006775+130209867+129954345
3997+129275896+128559085+128125469+127983238+128072965+128383425+128760623
3987+128955441+128941485+128912470+128965372+129062327+129283088+129825043
3977+130694405+131561462+131984787+131753411+131040404+130235420+129658036
3967+129535426+130110385+131355214+132641116+133240527+133178768+133023080
3957+132982941+132894009+132878507+133355956+134425013+135556227+135993129
3947+135596042+135123878+135257104+135689212+135691665+135209829+134727643
3937+134547808+134873419+135929121+137435404+138463619+138427700+137940562
3927+138069688+138967712+139679433+139503957+139092275+139456905+140455522
3917+140911526+140020924+138192113+136472076+135591840+135679272+136783008
3907+139355090+143601980+148372039+151620765+152424814+151271268+148651290
3897+145217482+142546889+142183777+143976494+145663482+145412754+144655230
3887+145549756+147506842+148615214+149242011+150552883+151054894+149111062
3878+146837417+147068728+149649482+152848740+155815281+157822215+157689053
3868+156275237+155802935+156292581+155678436+153184374+150479880+149482336
3858+151356516+156976417+165696815+171569351+167900326+158807042+151196487
3848+147663085+148111463+151201642+155411929+159953092+164393560+167447848
3838+167454604+164901568+162180424+160405884+158912475+157224599+155966101
3828+155619759+156139503+158329298+163340801+169440528+171992990+170390742
3818+168432027+166779376+163371268+158973392+156536229+157546915+161509861
3808+166144722+168926689+170548558+173306537+176276512+176490303+174673893
3798+173581189+173080641+171868455+170571085+170615287+172190696+174762297
3788+178192709+182417387+186855912+191291753+196614299+203267181+209685948
3778+214198013+217763418+222674727+230132777+239719576+249627173+257754176
3768+263699123+268493096+273059303+278731208+287336493+299236159+312244430
3758+324006233+335378141+349407093+368027647+389718685+408858853+421754398
3748+432236379+444931645+459166132+469645892+475337251+481417136+491287657
3738+504795958+519935105+533957393+543825618+547878023+547626398+546459598
3728+546867004+548914882+550626840+550193223+547590118+543896586+540248366
3718+537257142+535256169+535126191+537542123+540884816+542114031+540924945
3708+539279994+538575946+539908670+543669875+547941846+550104819+550244311
3698+550114815+550952802+553817935+559666148+568048794+576278584+580927494
3688+581525998+580936712+581267524+583029755+586784000+592727873+599766171
3678+606044076+608760352+605637855+599220013+593282952+587577785+580471703
3668+573177189+568187842+566543076+567872579+570846921+574185283+577393815
3658+579578741+579347143+578150098+580013875+586500167+594587170+598916486
3648+597818766+594531492+591602980+589514417+588139454+587531399+588213013
3638+590665261+594338839+597930270+601328863+606248686+613256036+618689068
3628+618644533+615798317+614694230+616849281+622029614+628577285+633196134
3618+634313475+634541741+636881855+641416373+645969623+648290265+648008542
3608+646696180+646112003+646783177+648375634+650177698+651385960+652521885
3598+655405454+660348896+664831586+666405458+665973656+666261820+668073658
3588+669544170+669463762+669221133+669723792+670003812+669335303+668575946
3578+668908239+670270578+671403838+671285892+670674320+671591233+674605632
3568+676846903+674379069+667718339+661699537+660012309+662320734+665314772
3558+666330307+665714737+664886894+663830636+662054560+660485944+660317207
3548+661065827+661562785+661735076+661934837+661966082+661969710+662492360
3538+662929863+661471864+657455331+652825449+650397153+650960303+652743931
3528+653618198+653168478+652362032+651861816+651635401+651358121+650522355
3518+648789666+646862030+646642278+649324607+653113910+654224365+651192123
3508+646779919+644577816+645311406+646754375+646452662+644282469+641807602
3498+640042483+639176805+639610607+641692025+644490004+646145321+645747058
3488+644069530+642352463+641025737+640205446+640697813+642828468+644805933
3478+644383904+641852470+639591208+639114686+640179310+641977524+643552211
3468+643955508+643399022+642884368+642041050+639476668+635662413+633097143
3458+633167629+634907277+636845724+638303649+638983857+638809640+637985054
3448+636770055+635574602+634921049+634614078+633598765+631395181+629257196
3438+628710483+629151911+628451787+625986470+623313915+621508593+619834470
3428+617644768+615691403+614577505+613768986+613252371+614162547+616431805
3418+618003493+617702150+616763024+616526169+616754768+616690835+615981233
3408+614510758+612666528+611532565+611904654+613414815+614963958+615516298
3398+614614970+612789027+611204863+610484896+610243636+609948845+609575090
3388+609011200+607762031+606025344+605224970+606534259+609098494+610454318
3378+609188045+606616222+605053715+605127422+605624120+605412661+604624652
3368+604431074+606379701+610996699+616217014+618467170+616505438+612807352
3358+610321934+609644725+609699848+609797840+610245080+611298820+612304323
3348+612176715+610622167+608734660+608036905+608603128+608740435+607429998
3338+606055627+606310288+607658930+608317740+607671369+606300774+604739858
3328+603403285+602688278+602370646+601705543+600633922+600275605+601696473
3318+604463466+606892503+607675552+606849374+605261397+603639103+602190543
3308+600945113+600418280+601139802+602369646+602651851+601734159+600406619
3298+598925482+597356607+596758029+597871001+599375979+599428548+598336011
3288+598065690+599653408+602323334+604778581+606399395+607163342+607118992
3278+606493241+605789378+605074002+603776003+601874280+600359751+599771169
3268+599442171+598889905+598602703+598720020+598342119+596921695+595181158
3258+594052378+593624129+593561825+593809896+594371269+594923646+595197373
3248+595311876+595365851+595133550+594574028+594182578+594427836+595337346
3238+596734854+598191965+598693699+597313626+594506281+591938493+590869871
3228+590964939+590710574+589125225+586956476+585800598+586085060+586493096
3218+585662365+583919718+582714899+582632862+582755399+582193360+581351300
3208+580961109+580705300+579777317+578243574+576843030+575804875+574893366
3198+574229966+574088771+574104135+573564160+572464922+571521465+571271727
3188+571729555+572517638+572825794+571844391+569735023+567458731+565555861
3178+563971253+562831404+562303497+561955582+561215032+560146891+559208210
3168+558662533+558545809+558636101+558235618+556634757+554067192+551734888
3158+550755929+551207537+552027199+551831215+550141765+547793988+545947981
3148+545095297+545171743+545892413+546621487+546621265+545753958+544287925
3138+542193476+539464651+536737232+534800414+533866842+533733051+534097662
3128+534415183+534030581+532784596+531164634+529813400+529159551+529537230
3118+531040394+532808511+533135324+531107215+527698257+524697074+523112207
3108+522800979+523013178+522980045+522305095+521121747+519933328+519199923
3098+518972878+519000977+519147539+519361775+519308429+518647361+517601395
3088+516661640+515979507+515460597+515043417+514510550+513502752+512110648
3078+511052206+510874843+511199102+511122359+510298218+509185875+508233829
3068+507346198+506324221+505437960+505278737+506089477+507351825+508205916
3058+508275366+507695076+506458604+504567359+502691883+501677533+501446675
3048+501187683+500419664+499132253+497403488+495673317+494663668+494418262
3038+494182369+493580127+493018643+492686609+492094658+490857631+489192801
3028+487476290+485892126+484601568+483813003+483546532+483531317+483368428
3018+482744381+481663986+480512957+479717432+479282816+478792559+477856913
3008+476445670+474922663+473854967+473573910+473863111+474193663+474138207
2998+473535335+472577625+471716723+471182745+470793664+470386998+469972336
2988+469368538+468316871+467001399+465836450+464835760+463764213+462676378
2978+461767164+460984226+460263408+459803581+459684931+459571724+459142661
2968+458430505+457527030+456443230+455391266+454743711+454635501+454857140
2958+455038613+454810236+453983984+452695463+451306950+450188277+449535686
2948+449223829+448880060+448252051+447395480+446442213+445451925+444594429
2938+444110835+443912481+443568343+442838084+441863271+440795611+439700261
2928+438792009+438250294+437850292+437162052+436037825+434742381+433687123
2918+433032793+432592031+432269290+432287874+432679399+432956902+432630088
2908+431760930+430822323+430183578+429748518+429029254+427744139+426287324
2898+425336647+425108419+425207299+425057516+424340437+423118551+421651926
2888+420195037+418999621+418275471+417970499+417792248+417580085+417431746
2878+417420677+417474541+417498234+417304841+416587984+415354918+414197078
2868+413701712+413724109+413563590+412804011+411730984+410866194+410271022
2858+409544429+408496205+407479411+406903970+406744858+406683034+406449289
2848+405943632+405290708+404818702+404707049+404669141+404270953+403509597
2838+402789075+402349461+402007951+401448577+400530923+399389964+398388755
2828+397826494+397616035+397409351+397014976+396505061+395997590+395538134
2818+395102999+394549660+393673098+392492823+391411651+390872194+390828177
2808+390727335+390107766+389070870+388045858+387224789+386438445+385599829
2798+385003583+384905591+384974522+384571411+383532627+382297488+381313161
2788+380640468+380063732+379350318+378437365+377449114+376513357+375659858
2778+374947481+374443415+373961376+373123463+371852674+370524356+369500232
2768+368771307+368139633+367528616+367031177+366736053+366525038+366103786
2758+365338803+364455022+363719988+363035857+362050234+360657426+359213680
2748+358205956+357828202+357915644+358111332+357983576+357199268+355818455
2738+354301409+353071453+352179935+351461560+350852061+350417186+350130872
2728+349800505+349304140+348783563+348449086+348246772+347842512+346934927
2718+345584286+344236792+343310549+342745511+342157076+341405161+340696226
2708+340121897+339474933+338623212+337792444+337344649+337331470+337321289
2698+336748551+335514930+334147001+333239194+332885171+332784402+332650611
2688+332273376+331474409+330363176+329428086+329048185+329040670+328885038
2678+328290199+327421041+326637029+326087022+325600726+324994781+324355222
2668+323882808+323583575+323294670+322933243+322538386+322120022+321653162
2658+321194631+320791223+320285565+319488634+318566019+317941823+317745246
2648+317603681+317089435+316226756+315446668+315084389+315055958+315063732
2638+314904102+314448162+313621688+312627328+311900032+311647036+311674616
2628+311702751+311570479+311176400+310519922+309772912+309121266+308586529
2618+308099678+307678130+307436926+307415435+307441979+307254416+306760976
2608+306099186+305457257+304960429+304693403+304647220+304609867+304296807
2598+303702949+303182372+303032052+303103038+302985740+302511698+301896683
2588+301420826+301141288+300947580+300761073+300585875+300427984+300273277
2578+300127103+299988019+299808990+299550386+299220925+298843061+298471380
2568+298228472+298194192+298299902+298450981+298682561+299076010+299570710
2558+299952183+300028630+299799031+299457502+299216983+299082063+298804912
2548+298169296+297325663+296673628+296401604+296352257+296302576+296129451
2538+295771060+295277730+294853405+294702419+294870657+295230085+295564210
2528+295736612+295776261+295723470+295514769+295122578+294651109+294215197
2518+293853789+293598202+293522847+293667652+293924756+294077149+293999962
2508+293746986+293445790+293228593+293198940+293301338+293309223+293063835
2498+292638456+292215834+291879655+291561208+291178531+290767886+290390855
2488+290015378+289613118+289219409+288829865+288452445+288215202+288161541
2478+288074525+287745010+287235465+286737989+286379431+286196126+286098670
2468+285907147+285574392+285263886+285090983+284944161+284687149+284382419
2458+284170552+284054902+283933050+283733438+283453159+283170399+283003623
2448+282960384+282922050+282845196+282795256+282730785+282484083+282006876
2438+281439969+280925093+280526109+280321591+280370643+280536030+280520722
2428+280195242+279773731+279562735+279630130+279812787+279968272+280096083
2418+280232651+280353854+280428950+280481000+280542527+280603000+280616919
2408+280537141+280379065+280253919+280249957+280296936+280265747+280183099
2398+280227579+280490810+280825194+280993247+280942622+280831895+280773847
2388+280684314+280398667+279766234+278557991+276429779+273145208+268856726
2378+264085002+259369234+254934263+250676859+246452625+242371492+238739562
2368+235707412+233213534+231317550+230254962+230196267+231332117+234014335
2358+238396867+244158675+251050651+259457267+269490788+279562124+287016380
2348+290171103+289419669+286843274+284352062+282019962+279021760+275235567
2338+271147141+267164741+263430524+259999686+257066843+254915605+253649129
2328+253099010+252922091+252788652+252729771+253228136+254662424+256742547
2318+258722733+260099788+260976646+261806526+262919369+264352139+265994424
2308+267687946+269211008+270359057+271104734+271638231+272202417+272863485
2298+273503563+274050516+274575831+275135612+275667462+276072887+276319700
2288+276474666+276641757+276834927+276965109+276957094+276794557+276504356
2278+276199107+276035571+276036348+276049305+275941392+275762289+275665833
2268+275691117+275705259+275611876+275497576+275471348+275497225+275486563
2258+275416021+275281397+275043562+274663884+274167204+273694253+273461823
2248+273570180+273871431+274133404+274291776+274422624+274542162+274594564
2238+274588381+274610482+274742033+275033585+275512236+276158219+276875039
2228+277510193+277984938+278415852+278990682+279731621+280533828+281394341
2218+282428239+283676482+285015610+286281790+287471838+288764506+290288531
2208+291964875+293662358+295409928+297365219+299598568+301953360+304175066
2198+306159417+307971903+309713495+311517318+313520994+315688780+317809143
2188+319707718+321344192+322765764+324039588+325180770+326194306+327163233
2178+328122054+328924798+329403171+329532964+329388585+329060439+328590543
2168+327965496+327232646+326496686+325752841+324880648+323769193+322384309
2158+320835647+319322265+317926645+316638937+315514933+314603165+313915221
2148+313490267+313306795+313599180+315438561+320049451+327317422+335877616
2138+344612175+353150861+361292247+368955667+376403259+383944438+391633809
2128+399351648+407053976+414882024+422821798+430378970+436967622+442316619
2118+446241231+448648463+449912588+450679904+451504785+453151699+456819576
2108+463521880+473431753+486101919+500921175+516697401+531094888+541476582
2098+546285012+545350439+539839886+531834660+522800127+512897436+501891028
2088+489488887+475200277+459020902+441654107+423903599+406640868+390736775
2078+376506878+364001045+353562488+345268727+338558834+332969836+328417400
2068+324730272+321672375+319116063+316863279+314773273+312911162+311256918
2058+309766896+308668362+308114264+307939621+308074412+308618589+309573911
2048+311039203+313404454+317201717+323113531+331861380+343792550+358949763
2038+377396138+398859021+422316178+446305090+469213683+489342066+505264854
2028+515957703+520824550+520392969+516403647+510681228+504320249+497557677
2018+489984512+481329065+471959500+462290887+452260736+441644667+430430761
2008+418862536+407329479+396129826+385372859+375189555+365809328+357331837
1998+349671342+342807853+336852059+331739213+327087009+322600950+318428674
1988+314854532+311930425+309593217+307779547+306299594+304922539+303598589
1978+302378259+301255217+300237349+299388515+298757749+298393748+298303049
1968+298265363+297910507+297152853+296317143+295691004+295234786+294856496
1958+294660623+294725538+294893461+294949287+294833174+294628582+294472117
1948+294500585+294858588+295606894+296366158+296303908+295071583+293438664
1938+292397233+292154492+292284766+292365192+292283822+292199397+292307367
1928+292685916+293409510+294469544+295491632+296111978+296608806+297311466
1918+297655234+296915240+295604080+294954433+295443820+296499560+297237740
1908+297269392+296893583+296587815+296472350+296391868+296338874+296555701
1898+297211586+298065510+298638118+298917694+299495337+300542117+301203852
1888+300709263+299510201+298534869+298110304+298060401+298150471+298211758
1878+298207130+298237005+298466993+299287266+301306342+304534476+307471280
1868+307937493+305647689+302579611+300521516+299790480+299807583+299949555
1858+299944224+299879735+299952091+300224651+300729161+301617181+303089711
1848+305389177+308564002+311558706+312227548+310008027+307082569+305482505
1838+305359561+305785903+306235697+307332695+309898595+313243750+315283224
1828+315248462+314473373+313739708+312513529+310804681+309609802+309501092
1818+310101299+310852844+311757874+313176633+314984546+316290911+316411930
1808+315832158+315647798+316560418+318661382+321444590+323763566+324579230
1798+324255267+324475093+326644063+330394718+333158490+332529630+329721877
1788+327813158+328061008+329650428+331495621+333305090+334917759+335975683
1778+336835215+338785064+342860199+348432242+352697883+353174073+350826147
1768+348006659+346077061+346017458+348245106+351394517+353323893+354005729
1758+354853230+356051016+357384628+359973850+364861244+370712937+374446747
1748+374909128+373870307+373313265+374010909+375758813+377606116+378582928
1738+379479185+382527975+388036048+391965435+390485149+386117370+382317553
1728+379845906+378842106+379391966+381045542+383881726+389211399+397719987
1718+406756223+410856902+408478879+403769812+400336457+399423578+401329336
1708+405757088+411192526+415660445+419483363+424983143+432290947+437707432
1698+439169985+438316820+435590363+431736423+429678180+431026970+435008111
1688+440906894+449558491+460327823+467096799+465427896+460598884+458375864
1678+460347221+465600040+471545320+476054220+480068827+484985059+488913262
1668+489329405+488469391+490231288+494879791+499183526+500796010+501583761
1658+504985019+513130515+526339027+540332513+545129577+541968209+541578350
1648+546177394+550399758+549119677+545120655+543448198+545746406+552031308
1638+561820496+572231991+576996922+574258916+570462653+570604847+574844648
1628+581118999+587969976+595498827+603333909+609983200+615839779+623643542
1618+634394697+644124764+647340774+645017762+641442954+638307129+635524921
1608+633116097+631609823+631723697+633913584+638029256+643466324+649651790
1598+656139044+662280308+667219160+670447090+672233680+673333547+674414756
1588+675802862+677446406+679012134+680261489+681547493+683948542+688715102
1578+696008802+703256449+706518660+706902855+709491078+716467145+725634506
1568+733594568+740547609+748951467+759876172+773976980+793803168+820689681
1558+844851810+855710842+860080546+864719239+869611445+873155601+874730362
1548+875102414+876113803+879070894+883846487+889201074+891188683+884302575
1538+872226989+863727470+860154290+857601310+853086783+848339104+846585758
1528+848533163+852685930+857292933+861442886+864014154+863906203+862571036
1518+862139530+861931181+860485324+858748637+859122096+863206153+871143706
1508+880254279+882956302+875211327+865407516+860454523+860674571+863985648
1498+867099779+866815317+863635956+861478277+862643522+865876783+867889640
1488+866627254+863191567+859783571+857664466+856918734+856961973+857542522
1478+859232268+862709417+867733637+872243203+872513302+867368693+861068613
1468+858182970+859497258+862289535+863461666+863711107+866117784+871751428
1458+877526416+877286155+870209541+862406149+857717183+856416889+857093543
1448+857329657+855447481+852119596+848986733+846941077+846602639+848594987
1438+852073765+853815339+851623527+847939953+845791825+845045574+843861523
1428+841805797+840372304+840602495+842201764+844846702+848478151+851535789
1418+851029872+846605378+841126478+836837699+834163145+832479916+831196873
1408+830446624+830311056+829964178+828956713+828528390+829822687+831885595
1398+832818057+832168873+830603145+828396747+826081362+824893831+825181329
1388+825431067+823953372+821604373+821069877+823651733+828303456+833228758
1378+837746469+842331186+847066131+851005958+853567230+855417421+857252803
1368+859132313+861361516+864594185+868488551+871156515+871020726+868920501
1358+866919491+865725741+864561533+863155954+862402447+862760875+863583536
1348+864350666+865296308+866765932+868991432+872254458+876417960+880482248
1338+883374555+885215046+887085005+889631099+892544433+895272074+897663276
1328+899892182+902220821+904836513+907651299+910595285+914134851+918737412
1318+923884612+928451189+931947738+934681746+936949301+938769209+940243201
1308+941588734+942843789+943954466+945097869+946458209+947710970+948361931
1298+948457221+948172388+947020545+944409147+940799835+937477874+935180555
1288+933464377+931570133+929553574+928008059+927017771+926178229+925327359
1278+924570150+923958652+923629766+923797022+924329372+924614722+924011517
1268+922481328+920954249+920830454+922602606+925169358+926911375+927205019
1258+926586413+925786853+925119306+924649743+924201356+922879072+919469817
1248+914049927+908394292+904105736+901082082+898234052+895037885+891812694
1238+888949708+886525039+884596662+883477100+883373592+883792364+883850115
1228+883415647+883391880+884658190+887147051+890022402+892422193+893893964
1218+894357752+893979850+893152303+892477649+892595965+893880266+896285240
1208+899479334+902965665+906090013+908424871+910365020+912746449+915639348
1198+918254299+920216142+921927359+923673005+925519272+927772981+930387785
1188+932681032+934478728+936287234+938098257+939657617+941656036+944712268
1178+947928278+950405218+952876014+955937724+958403189+959271310+959598864
1168+960704358+962041598+962334427+961812221+961906326+963536247+966789574
1158+971291958+975960489+979361155+981197500+982426863+983565527+984029241
1148+983528433+983399974+985347305+988835116+991090825+990531525+989191398
1138+990216929+994281661+999446928+1003071121+1003632938+1002035743+1000972230
1128+1002114966+1004481587+1006053386+1006609946+1007785927+1010169355
1120+1011972308+1011822747+1011569973+1013955548+1018495915+1021948262
1111+1022534290+1021941524+1022929294+1026452201+1031011448+1034131132
1103+1034850877+1034541093+1034995921+1036231134+1036733275+1036028560
1094+1035947930+1038297152+1042045363+1044132186+1043184471+1041040415
1085+1040105584+1040938536+1042794649+1045032811+1047087944+1048109329
1077+1047834936+1047409057+1048584519+1052193312+1057178513+1061254425
1068+1062880052+1062639495+1063009919+1065883122+1070156278+1072789296
1060+1072282713+1069371452+1064960433+1059986413+1056531623+1056765887
1051+1060948491+1067056141+1071811891+1072619003+1069918239+1067128182
1043+1066869264+1068200507+1069032348+1069221373+1069370564+1069445048
1034+1069635776+1070357001+1071202911+1071624718+1072154549+1073320312
1025+1073741823+1071554898+1067220807+1062661930+1058919198+1056397833
1017+1055606047+1056736122+1059037884+1061157433+1062276624+1062359475
1008+1062036290+1062369471+1063280758+1063011770+1060924947+1058909572
1000+1058141776+1057468232+1056479943+1056209104+1055625890+1052089508
991+1046144154+1041551663+1040378496+1041107496+1041314512+1040448834
983+1039697252+1039650903+1038947299+1036391431+1033257013+1031444954
974+1030561654+1028682292+1025008047+1020162116+1014817969+1009271692
965+1003794494+998887332+995262324+993367487+992728372+991787617+988616328
955+982836009+976992165+974107559+973794665+972802748+969573337+965745607
945+962921640+960895752+959227774+958281763+958506771+959686157+960775140
935+960641128+959145145+956985763+955014443+954225322+955229085+957209512
925+958432360+958170036+957258527+956733878+956979914+957751635+958436877
915+958760655+958973520+959048523+958492185+957137323+955035100+951715730
905+947061859+942717847+941081632+942715478+945746683+948102124+949273588
895+949542354+948943961+947618938+946136357+945038563+944661550+945180646
885+946206399+946671519+945801029+944002666+942476920+941917620+941440061
875+939438681+935943983+932907669+931774187+932181038+933169401+934355007
865+935639530+936786931+937678523+938453650+939028054+938785276+937414273
855+936167140+937161648+940820345+944806817+945887211+942895469+937715987
845+933456603+931898057+932367027+932975712+932736488+931763970+930224230
835+928659094+928581500+930929389+934472730+937332829+939200419+940339157
825+939936823+937715321+935562898+935620872+937894202+940804944+943101227
815+944365759+944679024+944810815+946316719+950226930+955025253+957208254
805+955616686+953237108+953049638+954717393+956133042+955969857+953858157
795+950063375+946126657+944096994+944199243+944767353+945144810+946600959
785+949250191+950560333+948729393+945771042+945157397+947663362+951071876
776+952979374+952829442+951732833+951123704+951300290+951556469+952017222
766+953278941+953962628+951677821+947462565+945707886+948681859+953919462
756+957501897+958449686+958500551+958525651+957483017+955372575+954782031
746+957410828+960751595+960867765+958462199+958287908+961631637+964083182
736+962434603+959002322+956551369+954582196+952627313+952498039+955032212
726+957655827+957234908+953852678+950349170+949344963+951498644+955318526
716+958014033+957610144+954703474+951483096+949262038+947843428+946621542
706+945058257+942709406+939834573+937347933+935432291+933009696+929568826
696+926430632+925165581+925366601+925117677+923605777+921774763+920241168
686+918288876+915177041+911072696+906730979+903242723+901146201+899817402
676+899038129+899379750+899443351+895676556+887647933+882096103+885783601
666+893573962+898429740+900885876+902922648+902588800+897358453+889855441
656+884943689+883237358+881277366+877005913+871992059+868318333+866211075
646+864885163+864070869+864669113+867522845+871089139+871721960+867316791
636+859957936+854442829+854963110+861613252+868398962+868236296+862135236
626+858021192+859959565+864026074+864139208+859035765+852851187+850660930
616+853823113+857930937+856269993+846930193+834963890+826723438+824251902
606+825579517+828597248+832858187+838133403+843479623
##END=
