##TITLE=<SNM>
##JCAMP-DX=4.24
##DATA TYPE=INFRARED SPECTRUM
##DATE=3/5/2025
##SAMPLING PROCEDURE=Instrument type and / or accessory
##ORIGIN=Admin
##XUNITS=1/CM
##YUNITS=ABSORBANCE
##RESOLUTION=4
##FIRSTX=4497.3318
##LASTX=599.83466
##DELTAX=-1.4281778
##MAXY=1.7340711
##MINY=0.17782691
##XFACTOR=1
##YFACTOR=1.6149796e-09
##NPOINTS=2730
##FIRSTY=0.20088156
##XYDATA=(X++(Y..Y))
4497+124386436+124368766+124370676+124527007+124896763+125111518+124788957
4487+124131821+123730638+123912388+124482976+124953693+124911019+124318092
4477+123576670+123233191+123513586+124151428+124717735+125052918+125236228
4467+125279003+125189429+125195556+125477547+125780104+125688112+125170431
4457+124513406+123850679+123119000+122431840+122134007+122372641+122867919
4447+123238257+123314941+122995037+122180713+121107115+120341010+120254038
4437+120765214+121533035+122122123+122225325+121933830+121505484+120967919
4427+120358080+119970349+119912432+119897992+119747604+119561065+119341355
4417+118994832+118595402+118248288+117957385+117874168+118251444+118913857
4407+119183198+118615332+117565032+116760036+116491821+116485740+116393656
4397+116145713+115893967+115741494+115554807+115189720+114850882+114830685
4387+114941231+114690077+113904550+112805854+111730577+111001287+110721991
4377+110690878+110777490+111034347+111237743+111016640+110610549+110726733
4367+111547451+112522000+113063117+112949525+112266859+111375076+110733192
4357+110524370+110622617+110907616+111367002+111959827+112552347+112948289
4347+112959481+112555198+112007345+111803828+112204283+112793177+112771281
4337+111919579+110906915+110397280+110323419+110275587+110139897+110110934
4327+110374904+110883940+111340014+111501686+111463183+111404039+111300006
4317+111177510+111279227+111610360+111755711+111522290+111336083+111692590
4307+112583091+113595635+114216703+114115743+113586030+113482754+114217026
4297+115016135+114740345+113371709+112110003+111983134+112853059+113863693
4287+114475119+114779079+114952119+114889533+114523339+114061185+113678695
4277+113359271+113212103+113517032+114240554+114914206+115246188+115447499
4267+115700056+115829186+115759680+115716720+115753277+115634260+115313341
4257+115071847+115151327+115498551+115831382+115938939+115978578+116243268
4247+116652515+116933593+117212852+117820006+118613044+119035403+118802831
4237+118205799+117760890+117736300+118053095+118535566+119043412+119385460
4227+119429758+119271665+119040865+118762916+118575048+118678278+118967936
4217+119140376+119212254+119497741+120046360+120438215+120197560+119263278
4207+118072508+117277948+117272568+117824158+118316872+118553798+118994260
4197+119859895+120520380+120379929+119906822+120065017+121018592+121970867
4187+122194599+121835445+121612589+121890474+122254851+122117629+121525229
4177+121109957+121364571+122203134+123176548+123905376+124262289+124305858
4167+124167815+123941434+123621244+123186882+122736806+122495201+122646198
4157+123075957+123359294+123243304+123031908+123156525+123535204+123732696
4147+123578146+123258482+122918519+122450137+121702827+120825742+120279199
4137+120415092+121120291+121952146+122570086+122998534+123494892+124150182
4127+124695286+124810012+124536132+124289849+124508645+125223080+125933906
4117+126103652+125793437+125521642+125520415+125489514+125113917+124507833
4107+124058772+124067741+124670512+125878868+127378055+128402483+128277865
4097+127163826+125907148+125129123+124818224+124763002+124903775+125198924
4087+125548686+125929450+126329083+126583042+126476814+125976691+125351545
4077+125116002+125605449+126478096+126988682+126810696+126195607+125472333
4067+124882000+124654106+124777506+124953158+125035747+125216307+125623248
4057+126034082+126103366+125742265+125233801+125003490+125228265+125674604
4047+126015001+126212991+126369755+126344085+125946630+125404202+125147272
4037+125206176+125229409+125046183+124904495+125126392+125629540+125937671
4027+125793612+125575813+125877890+126837435+127985384+128603730+128322726
4017+127502663+126758740+126182745+125496868+124774166+124438143+124690599
4007+125374566+126271276+127263199+128306044+129324134+130065188+130167541
3997+129543641+128613483+127958552+127784082+127871358+127967890+128066091
3987+128341743+128876226+129451363+129718831+129603698+129399720+129464769
3977+129900332+130435249+130632528+130389382+130099253+130136354+130455741
3967+130826882+131108485+131237052+131269770+131386850+131591317+131586214
3957+131194359+130684124+130531355+131106732+132558622+134494136+135850916
3947+135904819+135328031+135263886+135687361+135624683+134732540+133701412
3937+133324339+134041578+135905779+138232345+139611297+139184131+137870146
3927+137393413+138207802+139052538+138861284+138372953+138899944+140327290
3917+141060400+139825895+137243255+135150248+134672888+135559827+137355851
3907+140476941+145319925+150689892+154277897+155010240+153331048+149704133
3897+145169620+142099241+142457934+145646657+148368668+148203239+147202238
3887+148362319+150927335+152018059+151695221+151831658+151500654+149101860
3878+146690517+147248012+150676559+154930576+158549731+160268452+159133495
3868+156973048+156461733+157151920+156299396+153097341+149856348+149082696
3858+152012726+158977838+168230201+173017991+167989233+158786178+151784749
3848+148661564+149170997+152401259+156958451+161648030+165877043+168730683
3838+168796268+166315594+163403843+161270044+159607477+158176357+157433966
3828+157536144+158276210+160479248+165349673+171047248+172761448+170173503
3818+167546215+165554878+161783757+156813682+153885488+154940301+159602550
3808+165075341+168253065+170124582+173515354+177034786+176807381+173919896
3798+172046736+171172733+169646466+167932949+167490116+168527176+170595483
3788+173729436+177830250+181932799+185522520+189638578+194959716+199984082
3778+203100263+205326183+208990956+215506305+224647301+234230280+241687635
3768+247217171+252746355+258952920+266316954+276385284+289650161+303873301
3758+316480894+328189018+342123690+360678204+383057540+403749286+418142643
3748+429583004+442706230+455947043+463419567+465785809+469938626+479570010
3738+493470468+507494271+518186815+525187220+529273050+530694943+530394481
3728+530099295+530534729+530859144+530483612+529733101+528211594+525360205
3718+522664011+523067519+528199046+536217467+541899282+541597933+538038292
3708+535764429+537088111+543094896+552695019+560969983+563439270+561924038
3698+561153191+563341207+567844201+573137161+578554793+583660669+586236065
3688+584522419+581198025+580092945+582196074+586410452+591685364+598204571
3678+606057130+611852915+610525246+604808074+601528559+600820270+597605638
3668+590632840+584079494+580755543+580024075+580721735+583383716+588272724
3658+592654256+593216798+591849749+594371777+603778321+617110628+625148720
3648+620999815+610224082+601468621+597947880+598779034+601218980+602938162
3638+604004453+606080713+610108267+615850832+622842674+629593474+632189834
3628+628682822+623908559+623487889+629064444+638693502+647437817+650504746
3618+649234394+649521017+653249620+656823065+657041114+655707282+656828159
3608+661272101+665914383+667846189+667766912+668097159+669328684+670252180
3598+671586603+675629805+681724171+685979664+686785499+686706739+688021158
3588+689971639+690712517+689790793+687723316+685432992+684307760+684660742
3578+684898426+683802646+682315648+682222715+684717137+689981973+695890695
3568+697734513+693183539+685959808+679918441+674815628+670001800+667127529
3558+667486342+669893440+672626283+675210980+677429260+678824728+679835104
3548+681158307+682079589+681004182+677296763+671975237+667356945+665916155
3538+668126463+671374533+672743944+672492974+672532834+672914530+672230932
3528+670577334+669565186+669295836+668005186+665349110+663497172+664093005
3518+666281685+668200352+668899820+668390277+667212489+666378235+666484676
3508+667060652+667259805+666489105+664421037+661292917+658672789+658660905
3498+661661547+665976092+669405820+670351092+668324213+664995242+663271447
3488+664322938+666759710+668644938+668913033+667128562+663816642+660831944
3478+659823561+660642461+661792790+661991130+660985183+659308555+657964610
3468+657891608+658998386+660365139+661491035+662462880+663163382+663233654
3458+662547915+660980311+658129143+654028661+649983097+648202021+650060233
3448+654518939+659108001+662379912+664189038+664297545+662713260+660567982
3438+658893569+657686919+656852591+656603910+656977264+658045364+659788130
3428+661103434+660377909+657684188+654898568+653281139+652299625+651047579
3418+649867060+649741723+650586459+651190263+651017906+650918846+651565463
3408+652142621+651150625+648347953+645577317+645016620+646605409+648002943
3398+647448594+645909483+645593778+647053833+648647050+648843250+648175817
3388+647992978+648184749+647704805+646620688+646005073+646305573+646954774
3378+647312923+647179392+646637001+645819208+644373399+641520164+637491060
3368+634220551+633489785+634851003+636176494+636001996+634777114+634074472
3358+634961651+637094306+639441615+641603796+643725158+645495309+646404928
3348+646613897+646386105+645197023+642561099+639503029+638211123+640028220
3338+644184654+648496763+650718144+649555710+645777798+641974346+640197404
3328+640478047+642014723+644371184+646801756+648064283+647841067+646960679
3318+645900994+644384618+642380991+640540495+639725949+640449629+642274993
3308+643662784+643238349+641404570+639799911+639262688+639308970+639424416
3298+639693618+640085427+640236968+640082474+639833350+639463612+638892138
3288+638297486+637836809+637515124+637483384+637908557+638472206+638685678
3278+638629579+638654454+638723988+638602489+638279623+637777388+636860461
3268+635647390+635084331+636033515+638098925+639877048+640331673+639511074
3258+638139818+637083898+636913165+637286225+637021082+635531870+633888754
3248+633601319+634721310+635902051+636261824+636273043+636533831+636765831
3238+636378082+635431629+634634283+634372462+634190435+633441879+632118972
3228+630850244+629987940+629277621+628581991+628020630+627474770+626768954
3218+626312631+626777221+628007934+629028201+629213771+628620301+627171908
3208+624677339+621758262+619605307+618675205+618457747+618382640+618332003
3198+618377621+618346102+617703139+616103979+614097289+612701821+612329758
3188+612584234+612812617+612565449+611993495+611890228+612582832+613040225
3178+612192352+610678744+609833012+609585917+608854819+607376383+605771430
3168+604276608+602720482+601302833+600228940+598991288+597007037+594708262
3158+593244996+593178193+593949963+594429279+593846253+592458204+591125110
3148+590326250+589921672+589699526+589685944+589869226+590009696+589700855
3138+588651099+587204182+586319660+586579783+587360411+587406877+586188270
3128+584223543+582081550+579670466+576923635+574736763+574378761+575890450
3118+577677394+578023585+576747033+575092144+574177690+573923915+573551224
3108+572635036+571342466+570019005+568988957+568536510+568594270+568665759
3098+568299195+567457006+566518341+565997578+565959896+565707228+564461051
3088+562396600+560665054+560337723+561403423+562671966+562692044+561040365
3078+558802745+557593549+557889842+558453491+557870871+556419157+555432844
3068+555256390+555017046+554087054+552712993+551421272+550618906+550488291
3058+550713130+550523611+549309617+547248599+545318085+544443897+544491988
3048+544446887+543761074+542934497+542524567+542302716+541804984+541161614
3038+540788186+540624944+540254911+539495690+538426520+537076338+535391074
3028+533385269+531293433+529674344+529046476+529169156+529118519+528365277
3018+527316517+526576340+526185011+525740609+524853762+523403044+521736049
3008+520674925+520780075+521406872+521119179+519428342+517457083+516479001
2998+516544622+516843461+516696201+515904538+514705786+513688139+513361768
2988+513622223+513879762+513708143+513068871+511976708+510407813+508599868
2978+507083234+506259720+506050344+505982398+505601292+504765931+503538724
2968+502008582+500440461+499321430+498845436+498578891+498075622+497542310
2958+497363642+497269823+496563933+495043091+493261167+491929955+491243109
2948+490720279+489756000+488412203+487400018+487210241+487689778+488401758
2938+488812537+488332335+486833158+484993990+483664476+483116771+483176487
2928+483530982+483593983+482677499+480729492+478548894+476984722+476094812
2918+475311970+474425750+474011797+474517428+475310235+475258159+474100375
2908+472652536+471727120+471385063+471166756+470655257+469765309+468637826
2898+467363525+465924360+464403038+463042226+462072670+461536147+461212101
2888+460807817+460292332+459794636+459204930+458403413+457745170+457604258
2878+457590270+456933688+455546525+454125997+453329130+453188181+453189325
2868+452783086+451911001+450970048+450282169+449793700+449274191+448653815
2858+448084372+447698800+447403542+446984458+446349652+445563857+444725801
2848+443915758+443190123+442519737+441791998+440982250+440269717+439826754
2838+439525553+439065540+438358875+437554737+436766765+436038435+435456368
2828+435036141+434609492+434033147+433404909+432882080+432393980+431733522
2818+430842837+429845415+428890695+428040830+427175241+426073999+424805973
2808+423804713+423295760+423006775+422665862+422284867+421798022+421023816
2798+420054260+419124969+418214464+417281705+416615268+416412278+416263799
2788+415548092+414216769+412824402+411850047+411258791+410671854+409760758
2778+408515208+407273940+406440608+406077034+405842931+405338148+404454512
2768+403458973+402734813+402333704+401866789+400980902+399777721+398612740
2758+397713861+397127256+396754639+396310680+395486797+394289707+393072612
2748+392154505+391481794+390709434+389617419+388408555+387490632+386976254
2738+386576694+385989941+385162441+384172622+383138183+382232291+381542677
2728+380952713+380312370+379584889+378728158+377664672+376453889+375285956
2718+374291265+373496170+372858300+372241615+371532181+370817470+370250979
2708+369808681+369378415+368892899+368195054+367102670+365796481+364774738
2698+364252461+363940299+363521363+363028835+362649058+362402553+362120470
2688+361606757+360787524+359782610+358827706+358062136+357402011+356663901
2678+355790709+354863855+353915151+352898205+351884950+351091110+350613122
2668+350319229+350075308+349862722+349603891+349120441+348353949+347432888
2658+346496512+345632879+344945996+344472733+344090853+343719417+343525912
2648+343681292+343949571+343795446+342946171+341665005+340439459+339547224
2638+338953421+338499940+338109903+337807226+337576628+337285503+336818071
2628+336244789+335768278+335478629+335244046+334894053+334391670+333753357
2618+332986275+332229083+331733011+331572058+331560469+331501417+331318025
2608+330974306+330476943+329904731+329316575+328736059+328253754+327967574
2598+327794294+327512949+327026547+326464152+325987051+325564240+325037092
2588+324425906+324006417+323929982+323949764+323758326+323418446+323173639
2578+323006190+322670444+322045270+321292360+320760377+320711032+320986693
2568+321088410+320756871+320267627+320019757+320105419+320379862+320676376
2558+320853199+320840983+320742551+320758975+320928195+321016957+320754509
2548+320133395+319417613+318904601+318714307+318720322+318655070+318362506
2538+317934048+317562206+317360544+317335632+317370583+317256724+316933600
2528+316645759+316684069+317058236+317532237+317814689+317660823+317056243
2518+316364378+316014053+316003940+315978954+315768028+315518793+315307757
2508+314980905+314462910+313927532+313544027+313270433+313007247+312791117
2498+312730884+312848213+313033783+313088148+312802706+312107408+311192659
2488+310428086+310084515+310110683+310201807+310073259+309631330+308935238
2478+308132005+307457763+307153830+307253407+307498361+307565034+307353979
2468+307011903+306731518+306579552+306458477+306229227+305917083+305711177
2458+305699754+305746294+305680839+305457014+305104309+304699398+304382493
2448+304270535+304342855+304445623+304398179+304113531+303650509+303160749
2438+302785530+302570397+302444819+302307967+302150502+302062736+302129003
2428+302304516+302367849+302104829+301621693+301292424+301291390+301400581
2418+301375281+301245791+301160572+301168009+301241787+301346198+301416137
2408+301403404+301364430+301397536+301524460+301727802+302014867+302322914
2398+302476634+302354470+302026050+301694400+301557622+301672238+301885710
2388+301927747+301550406+300605190+299104075+297168118+294789973+291781930
2378+288100347+284038137+279964985+276066644+272416155+269088698+266134983
2368+263588928+261540514+260102160+259276856+259012728+259519097+261371367
2358+265081573+270638346+277665896+285862044+294767995+303188392+309529834
2348+312714165+312707817+310622071+308038795+305714923+303331187+300306001
2338+296399688+291926349+287533320+283756313+280873884+278946452+277760619
2328+276942032+276248210+275658726+275338628+275611392+276721639+278490074
2318+280337768+281723270+282542245+283113719+283822986+284841334+286137668
2308+287569084+288923363+290027207+290862956+291532547+292132347+292672155
2298+293080498+293324732+293518274+293793954+294101725+294306800+294448395
2288+294697225+295087594+295480676+295755747+295869366+295789775+295548789
2278+295310884+295223542+295210846+295059729+294737657+294469082+294398183
2268+294343062+294075096+293688344+293451989+293421946+293416096+293285020
2258+293070201+292934769+292967580+293085739+293182879+293248980+293247153
2248+293086015+292823050+292663795+292695702+292816001+292924158+293046414
2238+293284835+293700191+294228981+294728098+295128321+295516218+296019911
2228+296614304+297125047+297491795+297918408+298657939+299738661+300963468
2218+302103519+303074016+303977841+305004124+306313819+307993953+310001142
2208+312143909+314215446+316136475+317965493+319838357+321885055+324156999
2198+326609494+329074832+331288905+333138001+334852459+336772343+338988520
2188+341316452+343493101+345341422+346837573+348069061+349157311+350203266
2178+351210653+352087719+352785416+353323636+353657500+353667761+353312121
2168+352719278+352087129+351451252+350645896+349581156+348390229+347253998
2158+346269015+345438304+344662917+343849294+342989426+342096674+341282903
2148+340736637+340449572+340627281+342435114+347131318+354368189+362516782
2138+370497778+378209942+385718008+393055340+400266744+407235778+413957679
2128+420748635+427826139+435071203+442157049+448569777+453829668+457816881
2118+460597003+462203728+462780775+462584538+462043661+462179590+464480691
2108+469938995+478557493+489965597+503838560+519058936+533011139+542704674
2098+546398917+543896118+536451422+526388333+515492061+504093220+491933350
2088+478806987+464577794+449554540+434350218+419270089+404684556+391431010
2078+380089782+370597834+362732837+356241311+350794928+346299795+342768572
2068+339971289+337719645+335990202+334499883+332850862+331020957+329219693
2058+327660320+326560001+325879909+325351395+325005130+325147334+325915783
2048+327357421+329605302+332822480+337421581+344135141+353530797+365851215
2038+381299236+399849506+420871463+443256740+465552592+485899623+502334990
2028+513311204+518209292+517702480+513232260+506172471+497746519+488904547
2018+479845634+470307921+460342932+450350779+440630892+431144001+421554950
2008+411626426+401594007+391944317+382979370+374758808+367220404+360257940
1998+353885477+348364689+343988767+340638833+337679083+334515052+331162091
1988+327996140+325246209+323010988+321363554+320178163+319162620+318149919
1978+317156963+316243358+315441730+314727130+314092803+313701806+313704796
1968+313828140+313512435+312639981+311735382+311256398+311100870+310999744
1958+310972802+311079021+311094928+310796311+310295441+309865987+309637493
1948+309636312+310032107+311029381+312240681+312546200+311320764+309407468
1938+308072916+307660476+307711907+307764371+307696885+307611869+307614970
1928+307820673+308532210+309898539+311312977+312017797+312324054+312964102
1918+313481469+312792741+311167820+310050819+310247498+311267544+312035513
1908+311941879+311283636+310740101+310633439+310813214+311014064+311183801
1898+311520286+312094712+312590083+312875413+313453678+314528716+315191425
1888+314588949+313274050+312289103+311871164+311732651+311727779+311825731
1878+311945311+312034516+312221452+313045335+315335326+319172844+322751382
1868+323336290+320521992+316792798+314360049+313504942+313446481+313530409
1858+313578757+313670952+313836850+313967724+314111515+314643682+315995119
1848+318472526+322008953+325250417+325716668+322959872+319662568+318036983
1838+317957706+318216205+318394763+319467254+322402940+326272640+328626850
1828+328670622+327930298+327095010+325438386+323197334+321756987+321665530
1818+322228368+322790762+323580137+325159698+327376466+329129196+329451103
1808+328660473+328010682+328623898+330888977+334140442+336778285+337549022
1798+337038888+337235051+339655510+343829696+346833660+345919576+342513727
1788+340222075+340533684+342471616+344670630+346719949+348458397+349517121
1778+350316978+352339243+356775952+362937378+367691896+368238863+365596406
1768+362348004+360028819+359781429+362129218+365631431+367925077+368825395
1758+369674966+370598609+371535245+373997593+379266526+385794037+389951356
1748+390303157+388845538+387869523+388316803+390026352+391885081+392669953
1738+393326498+396662297+403265062+408404745+407136497+402148540+397694337
1728+394864539+393842943+394722409+396998043+400592341+406694605+416005116
1718+425829857+430294615+427424292+421595105+417004752+415364515+417199069
1708+422229285+428765579+434474042+439468864+446275025+455111793+461584348
1698+462959222+461271559+457652348+453341789+451467301+453502779+458330632
1688+464982484+474379690+485986872+493319702+491662782+486740188+484717591
1678+487245672+493285304+500049022+505427385+510603422+516860623+521615214
1668+521919848+520659424+522437326+527522940+532349501+534432220+535744536
1658+539753894+548667429+563205979+579335753+585704451+582287051+580894646
1648+584538068+587963773+586208200+582130859+580557055+582864614+588935359
1638+598288756+607969116+611431876+606841300+601136529+599661969+602655341
1628+607987569+614002326+620467980+626626860+630995511+634622177+640689600
1618+649833401+657438680+658153576+653826113+649200808+645908155+643308031
1608+640529718+637759156+636236358+637013479+640042688+644589823+650054402
1598+655895657+661074130+664365972+665459758+665209526+664593321+663919909
1588+663062477+661970979+660869589+660173811+660392746+662243798+666622783
1578+673550444+680178638+682286491+681475341+683411133+689905058+697752450
1568+703422602+708251046+715228310+725127013+738732028+759135971+786706807
1558+808350173+814426307+816364460+822134484+830480864+838003914+843214127
1548+847292908+852794320+860771921+869597506+876910332+879524185+872760246
1538+859880461+850290007+846810676+846063671+843973828+841221941+841285200
1528+844753976+849209729+853109214+857218111+861270909+863231576+863216665
1518+863036852+862454454+860754206+859406496+860759299+866218046+875932434
1508+886951276+890244447+880775862+868740517+862444563+862073422+865280156
1498+869000788+869934470+867605615+865736036+867624733+872409478+875532284
1488+873502822+868022004+862807584+859798157+859018895+859778375+861802744
1478+865169951+869504352+873954052+877154954+876891952+872731310+868222042
1468+866946524+869320848+872722969+873892933+873108430+873807234+878085684
1458+883424482+883071500+875658729+867905451+863951048+863501442+864473139
1448+864561274+862866857+860504416+858938954+858541018+859180623+861033299
1438+863550529+864118312+860985984+857135733+856203527+857971316+859394464
1428+858778185+857583863+857301669+857604678+858224944+859871381+861784881
1418+860909438+856563817+851898504+849164111+847915461+846675817+844957114
1408+843609700+843309791+843520753+843632730+844267685+846026321+847984995
1398+848880515+848683946+847486819+844746004+841210647+839108256+839311763
1388+839833929+837951505+834203341+832076074+833620721+837898064+843095728
1378+848586806+854430719+859719175+862758940+863338681+863297714+864160386
1368+865983610+868681022+872648195+877177836+879870007+879351090+877185956
1358+875548597+875079579+875402740+876005806+876376799+876260836+876055557
1348+876405660+877452206+879096503+881794505+886097830+891176874+894743307
1338+895433770+894605569+894588075+896195095+898691657+901182314+903341174
1328+905290916+907439294+910249642+913811941+917739845+921534291+924945048
1318+927996992+930701195+932725933+933598719+933499955+933559080+934943254
1308+937691451+940558120+942066967+941794295+940529037+939261269+938342127
1298+937738101+937545814+937793463+938057572+937690343+936470924+934868332
1288+933643820+933095967+932508180+930676910+927340263+923687024+921205889
1278+920212638+919575469+918003363+915759543+914570092+915279821+916360247
1268+915814756+913933662+912746426+913307934+914723553+915514183+914993715
1258+913283797+910777344+907862695+904739889+901346921+897614996+893749392
1248+890228134+887481635+885292438+882716599+879205232+875494713+872712857
1238+871210284+870925359+871926435+873692969+874796721+874240748+872566630
1228+871071660+870575330+871377548+873552278+876649028+879620144+881679945
1218+883043229+884386288+885959354+887674439+889591629+891733659+893713887
1208+895174828+896559814+898773887+901774087+904204068+905149487+905603152
1198+907233277+910392990+914312257+918401963+922217668+924879206+925927744
1188+926452936+928112143+931200478+934631682+937613502+940310250+942774702
1178+944362457+944749394+944717432+945308245+946875923+949380457+952625205
1168+955806251+958087200+959939433+962414293+964984670+965909569+964896240
1158+963679478+964033124+966400068+970062828+973861261+976714791+977801787
1148+976959413+975305298+974755305+976440495+979770499+983030822+984827325
1138+985211014+985521479+986972529+989268832+990886408+991237914+991648766
1128+993260806+995412137+997173209+998903795+1001457490+1004944793+1008873508
1118+1012597683+1015097345+1015810617+1015745586+1015924513+1015808034
1110+1014868889+1014291288+1015505541+1018030374+1019978640+1020146864
1101+1018971290+1017863626+1017929838+1019174355+1020717378+1021414706
1093+1020732436+1019532356+1019716155+1022374592+1026310763+1029227478
1084+1030639038+1032383575+1035837440+1040399855+1044417370+1045997079
1075+1044050953+1040052409+1037403198+1037708791+1038981505+1038775267
1067+1037635124+1037779137+1040266177+1044946474+1051051912+1056370485
1058+1058145434+1056286115+1053625463+1052770688+1054264772+1056827767
1050+1058510005+1058346062+1056989938+1056127856+1057589166+1062062561
1041+1067731384+1071132029+1070658951+1067695806+1063763842+1059296132
1033+1055193952+1053404092+1055356270+1060716623+1067337288+1072157316
1024+1073741823+1073073652+1071122360+1067872666+1064116086+1061643957
1015+1060488535+1058456711+1054894190+1052307796+1052462511+1053450522
1007+1052330235+1049041568+1045827674+1044075386+1044095021+1046057902
998+1048929369+1050507454+1049957166+1048382033+1046271817+1042552071
990+1036988507+1031489752+1028059434+1026923130+1027172329+1028118412
981+1029131888+1028738677+1025667320+1021110220+1017804132+1016537028
973+1015670074+1013919631+1011550105+1008995819+1006073125+1002420034+997740401
963+992055781+986020245+980406192+975357486+970743769+966946666+964305427
953+962218463+959891749+957488193+955432231+953347703+950884875+948683276
943+947548080+947628390+948863753+951042691+953145525+953836726+952852111
933+950967252+948748086+946304375+944156071+943320562+944022762+945289644
923+946320541+947209270+948241421+949472725+950310227+949091398+945046867
913+940632377+939182287+940653119+942102619+941973960+941134539+939958375
903+937769104+935303249+934792082+937006524+940085853+941570267+940660501
893+938570215+937143007+937177036+937892891+938002949+936998478+935040542
883+932429198+929836234+928136429+927300772+926244557+924433365+922720494
873+921927724+921873396+922668602+925266733+929287791+932062265+931668390
863+929376737+927445449+926436697+925834664+925671385+926321398+927291693
853+927307120+925910028+924572653+925338776+928290111+931234950+932099984
843+930875767+928889560+927414151+927261502+928461213+930226936+931584684
833+931831299+930612470+928259921+925941990+924920468+925760554+928214746
823+931204759+933099657+933051899+932107071+932288876+934955877+940082162
813+945861856+949405258+949349971+947645737+946922131+946574316+944300084
803+940285669+936792387+934706678+933439279+933291945+935073463+937806823
793+939311093+939143829+939013399+940343762+942798471+944962866+945550874
783+944011320+940810271+937720976+936924220+938700055+940955317+941693612
773+940927784+940009971+940080095+941173365+942156209+941645558+939454885
763+936762345+934832015+934176983+934743290+936318201+938397562+939846546
753+939596240+938064806+936970650+937265318+938370177+939789561+941792376
743+944050516+945473590+945633030+945005900+944592907+945588077+948193516
733+950968064+951823577+949874203+946183983+942849624+941894166+944377515
723+949122548+952302708+950383599+944468677+939222147+937568697+939065955
713+941984663+944596302+945441850+944282442+942056042+939543979+937247307
703+935725469+934945616+934133507+932801298+931081267+929007590+926336530
693+923127877+920487598+919561149+919359266+917630968+913958316+909824765
683+905691508+900724294+895253810+891031016+889186239+889289284+890040275
673+889914347+887128579+880795644+874087213+873020886+877742519+883839468
663+888230043+888706886+884973041+879592538+875037430+871555442+868711877
653+866584831+865072589+864238999+864765667+867237427+870755142+872259339
643+868852863+861711804+855556024+853380187+853869136+854358233+853971001
633+852929991+851633140+850768179+850152491+848241575+843867978+837820263
623+832431418+829860599+829949767+830071561+827799544+823306662+819384590
613+818020199+818603852+820930492+826043344+832588570+836856242+837148992
603+835138574+833457443+833585512
##END=
