##TITLE=<SNM>
##JCAMP-DX=4.24
##DATA TYPE=INFRARED SPECTRUM
##DATE=3/5/2025
##SAMPLING PROCEDURE=Instrument type and / or accessory
##ORIGIN=Admin
##XUNITS=1/CM
##YUNITS=ABSORBANCE
##RESOLUTION=4
##FIRSTX=4497.3318
##LASTX=599.83466
##DELTAX=-1.4281778
##MAXY=1.7643441
##MINY=0.20551592
##XFACTOR=1
##YFACTOR=1.6431735e-09
##NPOINTS=2730
##FIRSTY=0.22737144
##XYDATA=(X++(Y..Y))
4497+138373362+137153745+137067911+137744541+138358335+138307742+137597767
4487+136800426+136462995+136690506+137349344+138256650+139068936+139332785
4477+138812868+137776535+136930033+136783740+137078023+137184841+136953838
4467+136698641+136548783+136371349+136230587+136428698+137065662+137837838
4457+138341395+138453174+138288707+137909652+137330699+136733101+136375221
4447+136316566+136405999+136407614+136030091+135163194+134301675+134286458
4437+135336403+136707546+137526298+137627258+137380766+137031111+136479781
4427+135591519+134515720+133643219+133221714+133075293+132895038+132746514
4417+132951181+133484456+133945736+134138324+134186378+134116423+133802471
4407+133276769+132718610+132237198+131915628+131890771+132184329+132533449
4397+132522811+132008989+131375588+131107115+131173387+131193075+131055225
4387+130995817+131170721+131333873+130910962+129617410+128070256+127226103
4377+127194136+127252619+126980736+126679498+126685320+126929852+127253971
4367+127639456+127954578+127887815+127399729+126860832+126545837+126422205
4357+126507903+126892980+127404953+127773924+127978374+128067445+127982953
4347+127805963+127770659+127859141+127704549+127029343+126073775+125481727
4337+125651181+126284944+126769884+126854792+126669604+126327730+125909680
4327+125644389+125724609+126012789+126207499+126273436+126467684+126941905
4317+127524784+127865090+127624619+126733746+125641170+125072564+125382943
4307+126259262+127066334+127398886+127357715+127319917+127429501+127469230
4297+127240413+126806584+126366987+126172812+126504520+127403964+128452168
4287+129062244+129032254+128670502+128365128+128162292+127856502+127405361
4277+127023612+126823334+126618448+126250701+125917415+125951304+126367468
4267+126867597+127303367+127825560+128401846+128583389+128158248+127643128
4257+127621808+128009624+128417054+128760543+129158551+129689704+130372065
4247+130977226+131094210+130787576+130705179+131182365+131801065+132076522
4237+132012235+131825052+131611542+131372405+131046637+130551713+130006277
4227+129824916+130346057+131315174+131963437+131816183+131273604+131091598
4217+131446069+131930764+132298184+132644955+132934015+132911924+132517062
4207+132028903+131876552+132392615+133486705+134483699+134637719+133924742
4197+133019132+132379719+131801555+131104122+130745126+131232442+132266762
4187+133073987+133424994+133767503+134389459+134992751+135232977+135243460
4177+135332431+135481581+135517692+135529853+135678187+135814704+135712620
4167+135486968+135490287+135840831+136172984+135973104+135216163+134486029
4157+134293115+134471774+134536795+134452784+134619917+135167320+135773307
4147+136183902+136361446+136189915+135672392+135252501+135269296+135413467
4137+135326700+135201001+135233557+135155812+134820712+134668814+135179481
4127+136206238+137084906+137223999+136539751+135480130+134699865+134614358
4117+135150925+135910767+136556120+136980264+137145982+136951879+136354300
4107+135539792+134882088+134726146+135211167+136177092+137151886+137597032
4097+137334879+136681284+136108615+135864191+135873677+135898597+135837249
4087+135870358+136221301+136858002+137513656+137893492+137892857+137749474
4077+137853146+138242267+138456076+138050250+137131400+136232718+135725388
4067+135531113+135472141+135662788+136303344+137233638+137928133+137867955
4057+136911869+135479287+134361509+134164287+134845633+135784080+136328545
4047+136412810+136564018+137112184+137609520+137412452+136590879+135768854
4037+135270031+134914862+134551894+134384036+134739331+135687264+136881988
4027+137789621+138206120+138507367+139118640+139809608+139908690+139208446
4017+138281498+137790917+137765952+137676455+137077569+136086261+135235316
4007+134953865+135326990+136274687+137620438+138922416+139626206+139581534
3997+139137820+138607792+137963945+137242562+136872439+137249953+138234613
3987+139355846+140266036+140749134+140629330+139996945+139333719+139181159
3977+139688525+140508265+141119030+141254623+140992778+140519256+140037672
3967+139920887+140613206+142129980+143754670+144536459+144227694+143471959
3957+142983773+142926360+143192703+143905199+145270991+146917609+147790264
3947+147359164+146634834+146945739+148023443+148341694+147300627+145890499
3937+145321566+146140681+148161684+150382983+151369974+150601108+149216634
3927+148751283+149474035+150312783+150381314+150134986+150517070+151529408
3917+152035123+150912975+148416047+145999792+144838713+145120553+146841433
3907+150500973+156241559+162551294+166899380+168102665+166591485+162921072
3897+158195518+154709994+154345820+156588829+158492022+158083159+157534676
3887+159536589+162811887+164085870+163601846+163830101+164053405+162219078
3878+159955973+160274786+163266456+167078955+170517831+172427499+171552694
3868+169508975+169247276+170584031+170611128+168120348+165211365+164448702
3858+167306448+174489754+184522627+190111233+184844034+174572006+166501489
3848+162775377+163109697+166205547+170460427+175043460+179910719+184054455
3838+185041474+182293330+178471617+175619312+173404252+171236983+169714559
3828+169469364+170577755+173778673+179893344+186595420+188952711+186986673
3818+185050832+183231396+178650321+172494080+168733906+169327514+173721868
3808+179256099+182869906+185141137+188811423+193127570+194468206+193018149
3798+191800446+190877941+188872962+186626271+186063043+187712209+191031054
3788+195604529+201097462+206902443+212978265+220331751+229390537+238653673
3778+246579238+254027799+262894296+274126699+287527278+301169569+311563968
3768+316809602+317973094+317222148+317183117+320140327+326149096+332880372
3758+338472497+344240224+353178998+366993337+384190998+399793469+410645448
3748+420212053+432660890+446493911+455466056+459331098+465035600+476935138
3738+494663743+513948036+528577708+535536242+537438891+538930809+543235457
3728+551323095+561564870+570311971+574744594+574333137+569979301+563962226
3718+559073891+556954649+557880437+560685550+562044123+558976967+553133571
3708+548187380+546000523+546983116+550253589+553217836+553739603+552580754
3698+551625185+551809603+553726399+558210241+565350182+573085162+577422239
3688+576302893+572541087+570154759+571093859+574946641+580004049+585813999
3678+593272971+600102913+600836012+596584252+593341166+591730378+587958778
3668+580984647+573508010+567588257+564064373+563057477+563728004+564779118
3658+565226197+564863891+565173382+568594791+575801186+583934166+586985435
3648+581831683+572535392+563959469+558022631+554917713+554299566+555912893
3638+559423102+563649361+567018609+569796298+574530468+582107004+587442271
3628+584551153+577368336+573210381+574477217+580596514+589271792+595651282
3618+596476808+595321623+597315212+602658060+608102549+611689696+613588572
3608+613932523+612540106+610430404+610147974+613651472+619951485+625588916
3598+628164305+627954133+626358508+625419951+627293509+632143429+637487983
3588+640125110+639055822+636281724+633871455+632128919+630634209+629582332
3578+629751950+630897559+631216553+630033292+629954650+633823138+640705568
3568+645624047+644084283+637443874+630157422+625128163+623182492+623451936
3558+624525069+625920897+627431858+627541334+624706585+620414343+618199446
3548+619214976+621093394+621423851+620361745+618767716+616405982+613704867
3538+612681067+614223804+616279821+616239339+613952837+611420469+610607494
3528+611874113+613670262+613791127+611491494+608186814+605777452+604895266
3518+604850358+604816442+604833201+605150708+604913620+603007489+600250657
3508+598702261+598676143+598507614+597261344+595839037+595337330+595870849
3498+596872450+597475724+597157383+596301060+595269715+593612968+591045849
3488+588340962+586427177+585079703+583330710+581017076+579202790+578832758
3478+579477530+579893957+579559800+578926962+578316215+577737498+577597516
3468+578300036+579306788+579556970+578551488+576477408+573733199+570996608
3458+569408383+569830795+571714255+573269580+573134350+571362360+568745800
3448+566008992+563920837+563115443+563284408+563300949+562527149+561490436
3438+560819655+560237818+559431735+559077011+559713186+560437616+560188667
3428+559102475+557514612+555495487+553857748+553535126+553613949+552110642
3418+548985591+546285420+545203073+544711341+543363069+541459839+540608305
3408+541450844+542831980+543344388+542956400+542461404+541893460+540623903
3398+538741785+537344978+537218490+537747294+537744283+537071979+536471751
3388+536105347+535534864+534847143+534628519+534796033+534449397+533190142
3378+531887793+531648130+532398024+533096446+533186188+532999340+532663043
3368+531633983+529806748+528376532+528778232+530899070+532987551+533433650
3358+532212990+530504371+529330577+529055257+529682472+530756657+531303199
3348+530679394+529393078+528323318+527333507+525737627+524023313+523686291
3338+525163009+527182461+528330101+528187399+526839961+524481745+521867580
3328+520227881+520161101+520848640+520782549+519519666+518253990+518164248
3318+518828862+518955603+518169471+517205523+516726959+516914568+517745028
3308+518830639+519548903+519845153+520121489+520183736+519407071+517931041
3298+516534815+515593538+515187196+515591108+516522445+516718362+515490955
3288+514003318+514062408+516160829+519049009+520900077+521028378+520464135
3278+520564686+521532479+522646094+523309584+523353476+522778930+521651060
3268+520063197+518238900+516829034+516658981+517654669+518357371+517268821
3258+514630424+512188452+511318563+511880884+512759189+513068317+512765863
3248+512454232+512709058+513398701+513702497+513004982+511696430+510790267
3238+510688191+510578897+509283223+506758581+504462539+503826981+504561096
3228+504961345+503902286+501965938+500456028+499918555+499870746+499551461
3218+498657051+497365366+495888466+494335027+492935718+491978771+491503144
3208+491403681+491634965+491954830+491816589+490957002+489805154+488955759
3198+488509842+488126424+487535628+486812359+486055754+484917871+482935346
3188+480543976+479033486+479033958+479733069+479970047+479379759+478186159
3178+476715353+475310203+474127776+473022831+471837756+470531090+469045267
3168+467515044+466409046+465958848+465704966+464982386+463619822+461999167
3158+460667037+459970284+459866613+459962122+459729279+458793371+457197854
3148+455384439+453733678+452205921+450622956+449132453+448038716+447213262
3138+446198132+445052523+444468691+444754023+445311774+445453497+445166387
3128+444777783+444352505+443698665+442715673+441555228+440488987+439706409
3118+439273587+439119567+438937326+438343990+437330202+436338286+435725181
3108+435376333+434952906+434324167+433673736+433271129+433211205+433314078
3098+433169997+432332319+430736077+428980193+427886565+427739401+428185645
3088+428721740+428877211+428230117+426915000+425831492+425698112+426186725
3078+426461972+426157016+425413216+424403598+423229515+422130119+421471055
3068+421332778+421230848+420596559+419440249+418126909+416813968+415616668
3058+414854368+414550863+414127435+413116113+411782895+410672472+409955006
3048+409480795+409135647+408848719+408438894+407742540+406834345+405974032
3038+405391434+405181625+405272274+405407649+405245902+404506636+403117157
3028+401361925+399811171+398833910+398171872+397302309+396225004+395434011
3018+395081645+394792395+394367662+393960086+393533756+392903421+392239460
3008+391835475+391532877+390944946+390055178+389195772+388613355+388278799
2998+387987301+387504347+386621291+385227531+383584495+382424558+382347294
2988+383037844+383420609+382803768+381605090+380635991+380009791+379273499
2978+378330336+377515983+376912019+376289446+375625848+375108471+374722659
2968+374179853+373208288+371874271+370690067+370253436+370630396+371207191
2958+371241361+370488202+369264821+368049820+367161141+366691718+366464714
2948+366075239+365276738+364306695+363570222+363114475+362686331+362180561
2938+361744148+361422288+360964218+360144460+359122147+358301699+357883205
2928+357645972+357141871+356131020+354907096+354053856+353770737+353622811
2918+353082327+352121281+351109415+350322339+349817404+349655150+349855818
2908+350122904+350026706+349586483+349243221+349131642+348860856+348152495
2898+347260805+346558611+346036010+345447245+344719949+343971034+343271561
2888+342647610+342187219+341927170+341738508+341472039+341124206+340763206
2878+340398216+340012985+339649047+339342350+339004638+338528032+338015588
2868+337688142+337525162+337231161+336622010+335859238+335208589+334696363
2858+334157221+333584453+333172415+332926078+332581582+332066309+331641321
2848+331461329+331389652+331271579+331008483+330457915+329615340+328755970
2838+328119686+327601837+326957827+326199952+325616882+325405948+325393143
2828+325187578+324606140+323851095+323189709+322584258+321860009+321123899
2818+320659409+320466685+320285423+320014710+319732823+319394821+318909184
2808+318392495+317991159+317576074+316931955+316146403+315501776+315053827
2798+314600836+314026907+313411263+312813393+312183638+311498348+310827459
2788+310272682+309900982+309683083+309482052+309122975+308423465+307258341
2778+305834655+304768305+304512826+304780566+304873572+304485802+303833558
2768+303126811+302314870+301343322+300352441+299528384+298908768+298420754
2758+298019490+297684879+297317223+296753125+295923155+294964140+294142350
2748+293621182+293286953+292864904+292223741+291471053+290734725+290004092
2738+289241193+288499533+287859640+287354541+286997803+286776459+286583897
2728+286262346+285751389+285144886+284601373+284218753+283937702+283571623
2718+283006400+282323486+281657475+281046547+280486239+279978129+279486543
2708+278994738+278562315+278194495+277795226+277376496+277095336+276954900
2698+276703412+276146986+275368906+274579563+273913716+273405643+273040453
2688+272785138+272591017+272385506+272114539+271797539+271468769+271084535
2678+270588759+270038263+269544391+269114815+268669569+268195920+267771204
2668+267429919+267109202+266739968+266336074+266001191+265851670+265846337
2658+265712595+265239562+264633277+264302729+264308515+264324149+264111492
2648+263732972+263318232+262887694+262409203+261882412+261374593+260996979
2638+260776868+260560566+260160390+259634524+259282230+259256094+259326140
2628+259190184+258859401+258520619+258186679+257748905+257252150+256879923
2618+256720117+256680470+256612365+256467214+256324621+256256734+256191821
2608+255985712+255630044+255296776+255144624+255162707+255243834+255334809
2598+255446443+255557224+255572604+255393664+255025645+254613789+254356696
2588+254365384+254563241+254697473+254520129+254017642+253419863+252974798
2578+252776216+252755213+252747523+252628435+252440045+252327886+252364686
2568+252513537+252711013+252907981+253094648+253347388+253770180+254318717
2558+254749055+254836367+254616020+254314455+254070856+253819658+253418122
2548+252821522+252165378+251662637+251367801+251132781+250852001+250587908
2538+250395002+250215572+250008048+249818987+249695130+249623361+249554168
2528+249447958+249328634+249287971+249389194+249551321+249565540+249283418
2518+248814195+248469428+248436146+248572736+248626549+248557519+248483647
2508+248405875+248225158+247976916+247824438+247838059+247934693+247993022
2498+247932861+247745288+247501018+247285785+247124438+246975968+246765832
2488+246447346+246080705+245790295+245595848+245362260+244969031+244473636
2478+244064699+243872211+243842140+243781580+243504627+242966809+242320749
2468+241824375+241633609+241682216+241749686+241611228+241196488+240688233
2458+240379305+240355727+240420494+240360461+240132024+239778279+239363902
2448+239024123+238877938+238847921+238730919+238467896+238179934+237950246
2438+237769546+237679677+237753876+237924183+238013127+237935573+237738460
2428+237494353+237263468+237091710+236984611+236943640+237002005+237127440
2418+237180600+237092835+236984484+237001860+237144562+237311006+237411902
2408+237430130+237440704+237522393+237624232+237643603+237638706+237776711
2398+238058851+238294578+238388056+238462672+238660910+239008724+239518865
2388+240243422+241168557+242201371+243268592+244325492+245346354+246433544
2378+247842647+249781027+252232775+255017302+257939490+260841236+263541952
2368+265789605+267388603+268384001+268966237+269229206+269218650+269147734
2358+269289783+269630488+269992522+270717532+272633766+275898254+279616513
2348+282871152+285568422+288220603+290897523+292695304+292756045+291252139
2338+288985189+286524045+284010087+281489327+279062861+276766964+274571964
2328+272475702+270387003+268052710+265392058+262784368+260730473+259311213
2318+258181601+256974199+255568796+254092603+252760255+251673827+250761661
2308+249915912+249104587+248318455+247532014+246770584+246085965+245420571
2298+244642310+243753957+242928323+242299438+241834277+241445383+241147681
2288+241026743+241059608+241060823+240863093+240476284+240022078+239588112
2278+239185524+238815021+238547191+238479213+238572601+238629352+238484291
2268+238132832+237682561+237293540+237099292+237070454+237028068+236848529
2258+236573952+236305741+236074240+235848524+235647004+235566892+235648981
2248+235788509+235865483+235884109+235893722+235858518+235710955+235487742
2238+235324146+235320627+235476171+235749206+236116753+236554727+237011817
2228+237437765+237823595+238194498+238578459+239025066+239630970+240451128
2218+241413679+242421319+243463257+244531602+245561532+246554463+247626327
2208+248863528+250219218+251594442+252995420+254536199+256219499+257840969
2198+259258634+260607776+262090009+263698366+265279808+266744756+268095187
2188+269292577+270243194+270981299+271698112+272474033+273170206+273664930
2178+273990563+274223497+274408186+274541983+274542836+274296390+273758916
2168+272992753+272114266+271188533+270199157+269142057+268043877+266910873
2158+265778523+264688468+263570101+262374017+261252023+260389297+259824274
2148+259468624+259189332+259259160+260786880+264889717+271344312+278855337
2138+286549963+294422006+302620080+311079709+319633215+328148960+336716322
2128+345617878+355034491+364905871+374919519+384563751+393472598+401591939
2118+408793401+414721460+419216148+422592142+425534988+428922445+433631259
2108+440302103+449077788+459499011+470722835+481648668+490906472+497472411
2098+501338360+503009254+502851679+501241726+498437556+494209555+488121165
2088+479831081+469128189+456099184+440934614+423764086+405257474+386684335
2078+369048809+352905781+338706682+326620115+316485675+308159063+301416016
2068+295820427+291082721+287072455+283534007+280343936+277638794+275400791
2058+273503510+272029421+271030251+270450736+270466787+271294055+272898313
2048+275403112+279290916+285001204+292819942+303004259+315701066+331038301
2038+349135161+369535354+390987133+412010878+431161283+447102699+459291124
2028+468145379+474319485+478369416+480699991+481431676+480739058+479005410
2018+476252351+472030372+466052835+458461100+449559617+439557359+428513708
2008+416589177+404225947+391857276+379655248+367719109+356240931+345391818
1998+335293652+326185624+318363077+311746354+305730657+299807712+294129854
1988+289102191+284803764+281118551+277992231+275334754+272998865+270931096
1978+269164329+267711842+266518914+265467690+264533197+263912528+263733879
1968+263667624+263152314+262059139+260837881+259939480+259374294+258926834
1958+258545031+258303990+258184285+258118176+258122946+258259427+258559849
1948+259085534+260011503+261419972+262766648+262944264+261558774+259644862
1938+258408514+258026765+258025985+258094670+258221720+258450827+258745319
1928+259124764+259894428+261291271+262828822+263784300+264350429+265114380
1918+265642005+265055145+263767523+263107679+263640201+264787950+265631196
1908+265736499+265384513+265125299+265205573+265503329+265867666+266350366
1898+267095055+267993964+268648584+269016222+269688037+270857840+271586551
1888+271009811+269657149+268572463+268065623+267926240+267998716+268187794
1878+268384545+268541431+268742806+269429457+271396529+274880022+278386059
1868+279349771+277096206+273682124+271198726+270142189+270033022+270320276
1858+270626684+270768733+270808852+270953441+271421431+272381298+273984269
1848+276561236+280295183+283929123+284725412+281938364+278345595+276475284
1838+276405983+276921510+277457623+278866763+282092166+286196218+288657724
1828+288626402+287716792+286795031+285230257+283162252+281806979+281657747
1818+282089808+282539825+283291823+284925101+287231898+289009202+289279227
1808+288476027+287928288+288711283+291144205+294540549+297302460+298195329
1798+297850525+298274515+300947082+305333528+308445882+307507290+303978581
1788+301504397+301568730+303186808+305055668+306879784+308541465+309583874
1778+310333369+312331383+316929996+323474098+328566329+329063539+326036428
1768+322343035+319659368+319187116+321483666+324995035+327127771+327688895
1758+328262316+329106015+330107725+332766181+338429766+345492769+350065156
1748+350538860+349044657+348119848+348840869+351037919+353530095+354961942
1738+356075485+359593093+366194581+371259244+369835232+364520423+359514886
1728+355972321+354215167+354367881+355849679+358664948+364290227+373611765
1718+383703619+388082520+384624329+378218141+373323458+371485413+373010558
1708+377535498+383327239+388049039+391997221+397901376+405972110+411700806
1698+412298060+409569268+404368142+398251421+394893600+395778470+399528596
1688+405184926+413871594+424905958+431163967+427791709+421123114+417550949
1678+418610153+423149530+428286741+431889122+435286301+439881250+442982976
1668+441503537+438474758+438772206+442839295+447076981+448680731+449364317
1658+452679189+460992887+474949131+490271965+496002766+493072253+493204690
1648+498724593+503285445+501189273+496219177+494311014+497153525+504626789
1638+516184407+528604986+534682749+532210197+528620367+529633684+535299844
1628+543052273+551079042+559530183+568119383+575181951+581066952+589000389
1618+600705498+612507531+618369572+619028600+619380676+621271210+623681987
1608+625370328+626335873+627453405+629385654+632244053+636152661+641501567
1598+648420635+656475590+664921144+672955132+679991946+685941189+691028487
1588+695490709+699623563+703754168+707932074+711982295+716278890+722208473
1578+730838662+740168942+745721999+748112245+752944391+762794696+774962264
1568+785076137+793074069+801918638+813237029+827814285+847383076+871203046
1558+888677225+892851431+891927529+891569649+891740355+891012406+888663803
1548+886276822+886806932+890897780+896107322+899850301+899279129+890208862
1538+875975412+865287900+860296947+857401185+852679095+846970857+843912442
1528+844732092+847843539+851565117+855662204+859143720+859439354+856422945
1518+852702455+849464048+846666735+844960909+845493848+849380981+857313764
1508+866888314+869129836+859018139+846959974+841185355+841434268+844575460
1498+846917389+845717514+842004134+839973872+842031339+846243996+847806830
1488+844383280+838967701+835093990+833422407+832925814+832908475+833852908
1478+836647682+841528435+847712880+852680255+852462176+846666662+840449063
1468+837918582+838831383+840099163+839225973+837825357+839619474+845904253
1458+853027036+853587253+846707507+839445649+835496270+834315040+834217680
1448+833478777+831227388+828073210+825171426+823333055+823403789+826029309
1438+829817196+830544564+826061666+820501281+817926545+817683799+816964338
1428+815172978+814313717+815461212+817627211+820004978+822937957+825345977
1418+823803603+817611323+810499132+805525880+802986185+801831798+801434524
1408+801944465+803074984+803497867+802507294+801390342+801688950+803365104
1398+805555987+807769216+809076607+807943839+804794812+802306989+801991041
1388+802464128+801518535+799588680+799339985+802137661+807063394+812690160
1378+818533556+824626009+830245085+833904634+835314899+836218777+838067741
1368+840409960+842352946+844074224+845775335+846621247+846064004+844986736
1358+844400038+844241448+843890025+843047595+841884937+840774369+840205954
1348+840539531+841496079+842503991+843822265+846323509+849806258+852594794
1338+853476762+853232347+853593492+855516382+858655471+861946693+864713826
1328+867218989+870079492+873519655+877385314+881581720+886233075+891380298
1318+896579683+901089932+904718068+908215182+912462662+917394779+922024370
1308+925488402+927807406+929661955+931762299+934362281+936951454+938537068
1298+938684558+938015083+937271464+936345241+934758830+932660373+930593547
1288+928612618+926333444+923761320+921438253+919678887+918186788+916620907
1278+915258670+914740530+915253954+916322299+917422493+918457683+919482281
1268+920376293+921045477+921702039+922787578+924648439+927125743+929534996
1258+931288051+932289144+932666757+932600230+932430830+932423721+932432209
1248+932067146+931018534+929221660+926901931+924252689+921234611+918072234
1238+915376125+913259386+911035058+908202486+905085452+902345089+900387376
1228+899141143+898147958+897083748+896059948+895146130+894131399+893100199
1218+892682684+893451477+895325977+897693588+899979872+902037775+903939626
1208+905585237+906940147+908423613+910432110+912622413+914282751+915340432
1198+916393106+917680692+918731915+919352202+920337915+922603087+926039696
1188+929726959+932974216+935894862+939070660+942804136+946671826+949769126
1178+951578043+952552148+953488165+954570149+955614045+957029243+959481735
1168+962661088+965323317+966470159+966257447+966016805+967163066+969615196
1158+971717570+972154818+971449650+971334806+973127980+976789198+981028625
1148+984554468+987261822+989562180+991048258+991114567+990440884+990559791
1138+992439224+996076791+1000417060+1003516610+1004178467+1003267842+1002449571
1128+1002458422+1003358310+1005201832+1007783243+1010637942+1012892885
1120+1013165739+1011092892+1008240659+1006575460+1007269964+1011348189
1111+1018912645+1026611534+1029541756+1027603848+1025930088+1028039500
1103+1031878606+1033119616+1030967473+1028753737+1029367277+1032437517
1094+1035716769+1037759001+1038575386+1038708584+1038573282+1038746454
1085+1039711781+1041152080+1042219555+1043195691+1045894266+1051091040
1077+1056796448+1060159711+1060562063+1059558213+1058709037+1058901217
1068+1060601384+1063083548+1064387095+1062859084+1058594701+1053857013
1060+1051921136+1054997325+1062029205+1068300200+1069933913+1068478813
1051+1067633046+1067825444+1066722494+1063617213+1061051473+1061672341
1043+1064566361+1065958634+1064331885+1062416613+1062364668+1063144489
1034+1063601180+1063780011+1063410523+1062570342+1062732488+1064763765
1025+1067613676+1070177602+1072360142+1073741823+1073324743+1070702198
1017+1066369692+1061818961+1058873286+1058064010+1058778320+1061015489
1008+1064904726+1068227289+1067427372+1062503018+1058115230+1058278318
1000+1061779567+1064126139+1062900146+1058957732+1053983682+1049769864
991+1048380058+1050603878+1054394667+1056191033+1054416287+1050870856
983+1048210876+1047090731+1046104366+1043660942+1039398155+1034180198
974+1029495035+1026660141+1025682554+1025237035+1024030849+1021781709
965+1018983525+1016295033+1014247288+1012990535+1011885771+1009641928
957+1005251891+999075862+992813283+987818339+983720671+979596523+975875888
947+973620220+972487017+971005074+968658938+966647104+966636076+969144576
937+972750076+974780120+973529607+969957769+966526166+964595658+963565111
927+962493429+961686330+962010983+963526443+965455282+966928663+967388256
917+966823251+965812872+964861837+963994524+963091153+961949172+960174788
907+957668030+955189928+954043521+954985923+957251821+958859852+958438637
897+956390819+953845029+951473284+949802426+949442514+950292852+951294670
887+951414447+950600383+949566934+948631425+947219565+945030930+943116456
877+942602089+943134012+943793766+944366896+944834470+944861240+944308495
867+943186972+941117680+938070728+935486851+935264998+937443113+939985493
857+941334599+942335764+944709324+948261865+950605027+949571215+945469266
847+941158380+939540409+940867389+942822998+943020837+941599328+940820087
837+941661429+941928479+939663234+936872086+936575147+938379711+939923319
827+940787513+942313710+944868350+947175745+947745757+946764252+946227468
817+947341010+949018615+949716964+949893837+951256364+953669971+954854030
807+953539674+950998746+949027611+948466886+949853645+953208419+956875658
797+958725347+958568571+957547310+955947767+953725543+952263188+953479604
787+957204374+960510396+960457799+957393798+954434339+953926138+955805137
777+958856660+961955339+963940910+963660367+961054435+957578941+955024373
767+954211108+955036634+957288022+960596873+963785367+965150144+964201068
757+963062932+964441421+968046631+970781553+970597208+968230613+965128379
747+962134460+960231376+960275703+961665073+962941051+963760556+965054380
737+967331306+969555416+970059409+967915827+963895495+960385178+959215846
727+959760102+959541007+956996233+953265877+950746133+950673875+952088420
717+952874189+952201305+951473066+952243455+953938834+954669467+953500135
707+951462619+950467693+951033134+951882963+951773996+950367504+947983787
697+945767657+945068655+945441553+944222816+939673390+933217688+927053557
687+922352071+920370924+921971555+925508716+927164991+924986876+921530970
677+920264423+921200150+921647773+919121789+912171453+901385131+892455317
667+892143143+897064740+901007445+903265871+904155892+902222265+897489292
657+892712283+889280028+885819623+882112047+880729931+883389549+888072390
647+890951538+890720545+888737367+886198615+882876560+877461925+870730467
637+867006785+869452095+875089889+877693499+877312983+879103400+883138459
627+884276741+879815389+872666851+867430249+865666820+864672256+862329530
617+861170935+863255825+864421820+859972874+852252221+847056536+847419930
607+852859740+860780698+867373516+869163426+864758371+856057374
##END=
