##TITLE=<SNM>
##JCAMP-DX=4.24
##DATA TYPE=INFRARED SPECTRUM
##DATE=3/5/2025
##SAMPLING PROCEDURE=Instrument type and / or accessory
##ORIGIN=Admin
##XUNITS=1/CM
##YUNITS=ABSORBANCE
##RESOLUTION=4
##FIRSTX=4497.3318
##LASTX=599.83466
##DELTAX=-1.4281778
##MAXY=1.7523762
##MINY=0.18860336
##XFACTOR=1
##YFACTOR=1.6320275e-09
##NPOINTS=2730
##FIRSTY=0.21052183
##XYDATA=(X++(Y..Y))
4497+128994046+129301715+129661574+130080671+130498362+130363606+129311950
4487+127842677+126867060+126986815+128231662+129956077+131098589+131039826
4477+130110802+129078667+128431847+128290663+128533926+128761329+128545704
4467+127949786+127521376+127649704+128180823+128731993+129071427+129080055
4457+128655845+127850291+126959615+126330490+126090249+126133363+126389728
4447+126897565+127350874+126953918+125396115+123713582+123357831+124485169
4437+125826790+126246873+125865120+125573173+125900737+126521773+126745469
4427+126318712+125579254+124903308+124330445+123780097+123272772+122771346
4417+122174131+121721954+121985295+123012819+123878076+123619647+122400704
4407+121226289+120741708+120747278+120778796+120789926+121091149+121779549
4397+122502408+122806854+122570046+122055317+121578597+121160185+120587057
4387+119842248+119299707+119299808+119627062+119625327+118888033+117727013
4377+116874676+116809840+117410716+118082727+118184641+117589171+116939648
4367+117035445+117839665+118492383+118379604+117689441+116898177+116355143
4357+116343621+116881569+117522564+117905468+118292581+119072405+120013983
4347+120436249+119965628+118872292+117731633+116958922+116678617+116786941
4337+116960374+116886536+116722398+116960402+117656489+118265172+118383192
4327+118137656+117767698+117339270+116920529+116654184+116577817+116577580
4317+116615626+116824650+117138537+117068835+116341137+115563834+115643479
4307+116618411+117606372+117903195+117744297+117885774+118612038+119351934
4297+119383032+118743370+118155880+118183600+118747762+119357969+119609312
4287+119461152+119083672+118607929+118185527+118014805+118090707+118239095
4277+118458582+118788110+118963825+118770141+118463120+118274174+117939433
4267+117284423+116791214+117038394+117862336+118473437+118392204+118042799
4257+118185627+118950951+119867412+120636644+121296840+121778919+121878304
4247+121598711+121166612+120792401+120548480+120441188+120586107+121132483
4237+121878524+122247212+121914160+121243573+120857090+120950303+121251608
4227+121539300+121889060+122302332+122452492+122166343+121862354+122090095
4217+122810552+123488306+123716531+123488306+123019265+122505047+122022173
4207+121650719+121655375+122298415+123369865+124223591+124487671+124439435
4197+124496181+124644642+124591037+124240847+123822754+123618789+123701538
4187+123974229+124341100+124667368+124689947+124258250+123617273+123253260
4177+123518254+124386834+125384483+125930448+126030417+126302067+127033261
4167+127713691+127859495+127706286+127617930+127445109+126966290+126402895
4157+126028938+125768291+125592091+125840988+126719731+127778316+128297209
4147+128047646+127366003+126639282+126051664+125686016+125510100+125326304
4137+124987427+124611270+124512816+125000593+126116929+127472327+128487004
4127+128767583+128166470+126864832+125572890+125136920+125767780+127003807
4117+128300241+129292356+129752294+129665062+129214601+128637145+128219902
4107+128249055+128737882+129376037+129855550+130050988+129869401+129231173
4097+128319122+127619464+127488871+127794422+128159431+128421110+128661040
4087+128921094+129095029+129081552+128933246+128792984+128721675+128712746
4077+128829351+129066277+129128702+128695462+127879144+127148515+126837751
4067+126945664+127322615+127832496+128330380+128603144+128459558+127959537
4057+127451720+127219979+127194934+127215688+127347596+127591333+127594228
4047+127181120+126812642+126906074+127101174+126852597+126342506+126170543
4037+126471254+126851547+126991517+126929996+126871479+126972681+127297588
4027+127840312+128567297+129439101+130311416+130846844+130767291+130219810
4017+129636839+129246284+129011768+128920272+128928307+128771418+128273196
4007+127729742+127590055+127913127+128484338+129204914+129985267+130530784
3997+130602239+130277542+129782881+129366596+129376010+129988316+130843430
3987+131417197+131701574+132054439+132504981+132689289+132480795+132280957
3977+132488254+132948293+133158412+132828547+132070563+131270470+130924325
3967+131334192+132329147+133419580+134211437+134638715+134898778+135130454
3957+135150057+134738538+134194527+134263681+135395722+137118804+138222868
3947+137984335+137162411+136993661+137435457+137359190+136367905+135288101
3937+135005531+135867218+137773302+139956286+140997048+140113576+138359551
3927+137558782+138279851+139433914+139974857+140371228+141569346+143223274
3917+143775137+142185606+139127742+136292607+134978953+135510802+137737840
3907+141657820+147045485+152623885+156492826+157682635+156209873+152286204
3897+147166208+143490750+143332784+146146865+148642868+148395944+147599165
3887+149353135+152635910+154080358+153667625+153664210+153331642+150905195
3878+148310327+148488015+151287085+154884897+158473351+161157651+161339493
3868+160012381+159889868+160791647+159928399+156536013+153155935+152358289
3858+155377632+162799764+173234364+179320856+174070276+163429273+155205723
3848+151668510+152325931+155694714+160193420+164977141+169681337+173042478
3838+173120324+170164228+166776974+164392883+162454523+160534095+159326026
3828+159314302+160353513+163094112+168450112+174313511+175968078+173519891
3818+171393280+170044072+166709756+161869717+158865741+159650650+163846863
3808+168899477+172020688+174107016+177781643+181855490+182572176+180515467
3798+178881206+177731992+175932834+174407098+174681925+176715406+179676286
3788+183301152+187589217+192160656+197114021+203577036+211837545+219828760
3778+225663873+230753209+237872539+248186251+260692589+272374007+279949148
3768+283374385+285243700+287465233+291301998+298112371+307865400+318255060
3758+327262623+336266644+348542109+365845681+386256093+404329874+417418680
3748+429651158+444509301+458865999+466238991+468682193+474069931+485034627
3738+499106272+512659161+523659246+531681414+537272615+541906068+546948967
3728+552727087+558354408+562160312+562960214+560595790+555475903+548937362
3718+543298572+540610565+541441108+544136895+545144094+542512111+538661942
3708+536600139+537286968+540717209+545571034+548582917+547721330+545467093
3698+545656240+549416674+555536054+562987130+571838563+580880128+585766714
3688+583962024+579385801+576878686+577678551+580305530+582925205+585703275
3678+589723964+592964328+591904282+588924063+588050424+586725047+580561767
3668+571949187+566140535+564254328+564300748+564178655+563771583+564971435
3658+568929087+573953104+577905461+581514914+586212974+590559949+590653190
3648+585316509+578466254+574209378+573457649+574536102+575329831+575288087
3638+575272821+575919257+577571688+581570062+589439350+599600565+605679515
3628+603284085+597098308+592799797+591734638+593403430+596704420+599800741
3618+602046031+605628093+612570529+621986845+631234101+638378722+642298684
3608+642061731+638721662+635316805+633999389+634986063+637406438+639919214
3598+641254233+640800705+638965774+637291613+638248778+643633119+652028979
3588+658230533+657854431+652876285+648323546+647001090+648984226+652284266
3578+654072887+653223243+651197961+649900413+650157015+652446642+656690626
3568+660395986+660009365+655911615+651570483+648378475+645468926+642586257
3558+640622113+640048282+640311166+640599323+640659073+640945404+641912502
3548+642775587+641540345+637615854+633659736+632890586+635414099+638500851
3538+640015777+640373983+640675946+640497427+638736125+635527463+631986524
3528+629094068+627638161+627656422+627777090+626816639+625562917+625004352
3518+623823455+620145341+615152513+612402346+613828012+617928246+621439602
3508+622305973+620963576+619008489+617440826+616503894+616493668+617638190
3498+619220973+619836950+618906885+617030174+614667576+612111194+610495906
3488+610784246+612106848+612659131+611856929+610482429+609436225+609047632
3478+608856112+608070308+606788866+606249439+607190095+608531981+608597245
3468+607337607+606147616+605579080+604890169+603784434+602890270+602437107
3458+601824307+600734860+599821376+599919401+600742530+600930983+599776162
3448+597996964+596475537+595284414+594304826+593918680+594445727+595336787
3438+595460559+594360558+592912905+592390679+593185102+594492036+594857803
3428+593310226+590365470+587540616+585872079+585344375+585366507+585310812
3418+584981932+584615290+584353428+584201607+584349776+584667918+584290464
3408+582954130+581891527+582136187+583092402+583732228+583910491+583580261
3398+582069133+579187670+576000774+573694347+572350636+571162142+569536664
3388+567831935+566905120+566997191+567517372+567967905+568320341+568469058
3378+568079553+566910343+565005583+563069304+562524910+564285262+567600313
3368+570707993+572417069+572775604+572356917+571297492+569559637+568043067
3358+568083387+569402885+570198331+569659743+568721534+568204056+567881750
3348+567476650+567264933+567382643+567310001+566624084+565866841+565904275
3338+566683761+567188822+566517441+564809789+563204618+562831839+563710956
3328+564815377+565188411+564655959+563561290+562276561+561087556+560288714
3318+559972910+559751734+559253430+558899423+559426032+560657219+561543239
3308+561412674+560458869+558997375+556998863+554653504+552936905+552898958
3298+554371519+556199327+557843029+559758125+561988733+563424589+563005647
3288+561169694+559504590+559002232+559119723+558773788+557846645+557077020
3278+556813880+556837766+557216241+558324387+559974882+561333604+561835487
3268+561667706+561406867+561550617+562076239+562223532+561306724+559727447
3258+558313248+556923300+554780819+552042667+549888317+549169567+549810307
3248+551318366+553165093+554634038+554882021+553468078+550953805+548700554
3238+547965296+549086225+551135173+552623292+552863751+552131927+550516529
3228+547790539+544602366+542413100+541888428+542324389+542710900+542607360
3218+542084440+541582302+541729119+542683070+543614450+543382719+541910962
3208+540309954+539361883+538541128+536985736+534880216+533192797+532334607
3198+531736306+530792618+529723076+529209616+529483712+530098996+530363012
3188+529667490+527903084+525957346+525025674+524993535+524356046+522215830
3178+519418695+517155766+515522582+514145380+513155712+512778076+512818578
3168+513048556+513367027+513399203+512627496+511017467+509010154+507027676
3158+505350885+504232915+503842205+504001075+504016158+503181561+501706700
3148+500640554+500584384+500983312+500877763+499891929+498345522+496834467
3138+495761784+494996287+494026997+492589242+491066172+490158275+490134061
3128+490458740+490210319+488911968+487039931+485671640+485445059+485874921
3118+485995662+485578145+485163804+485021954+484821339+484294256+483414810
3108+481905107+479466361+476689606+474862016+474598913+475299438+476003287
3098+476174027+475684452+474727616+473760153+473152758+472932896+472886221
3088+472752332+472345881+471638818+470768685+470023968+469710209+469717879
3078+469439181+468540305+467462765+466825240+466718998+466782801+466628643
3068+466100099+465284201+464254102+462990776+461736944+460880726+460274318
3058+459459881+458651506+458467436+458707093+458457539+457358524+455931798
3048+454762661+453956953+453344116+452796764+452201019+451327125+450087793
3038+448825233+447935378+447344601+446701999+445856336+444954831+444338525
3028+444267052+444449697+444113149+442806616+440846270+438934279+437727451
3018+437607842+438410191+439436819+439969381+439718220+438803129+437573548
3008+436488119+435844714+435469963+434847339+433665967+432149727+430847979
2998+430134598+429821240+429340102+428443600+427404919+426413753+425460387
2988+424850180+424877900+425035638+424577252+423682686+423048192+422681148
2978+422026421+420923936+419759182+418930501+418543151+418406742+418128336
2968+417369850+416187163+415032635+414254756+413717776+413160526+412711051
2958+412667481+412919518+412919810+412168264+410608927+408689632+407071897
2948+406136792+405718945+405326810+404597214+403600204+402783977+402543518
2938+402759617+402873091+402474784+401644606+400684008+399819792+399213201
2928+398890129+398593206+397993591+397042525+395984962+395158765+394757464
2918+394609550+394334358+393838282+393349766+392961137+392570938+392186910
2908+391876511+391566879+391145819+390566948+389770407+388729717+387620877
2898+386775725+386366717+386123153+385490960+384253746+382857078+381908679
2888+381573810+381638892+381851888+381984498+381846409+381413699+380747248
2878+379802720+378639829+377693292+377377159+377478361+377357035+376739305
2868+375949265+375382665+375138955+375128546+375133513+374790682+373879316
2858+372631183+371529392+370856477+370546735+370343455+370045838+369705637
2848+369489465+369303094+368836162+368022054+367129460+366427255+366046551
2838+366017078+366157577+366099690+365643240+364951444+364294233+363765543
2828+363313147+362885476+362427237+361834926+361090209+360376243+359877538
2818+359532552+359154259+358668080+358073614+357327473+356431300+355566938
2808+355014034+354853557+354786539+354418363+353707027+352920456+352241113
2798+351659065+351105430+350465056+349636339+348727713+347990738+347484692
2788+346968054+346153215+345028270+343948027+343308639+343043673+342638755
2778+341793786+340804994+340089312+339620737+339091827+338378337+337559517
2768+336668421+335723491+334897185+334377735+334092974+333734439+333045053
2758+332028833+330936282+330063118+329513683+329144484+328732043+328168657
2748+327523572+326948535+326488835+325980414+325208708+324183723+323156838
2738+322339297+321698229+321064575+320340274+319576018+318957411+318688464
2728+318734445+318745073+318408451+317775966+317074053+316379955+315669167
2718+315002826+314483267+314092447+313646917+312927071+311904533+310822245
2708+309979649+309488613+309262689+309128837+308929793+308575202+307988880
2698+307090699+305973295+304992410+304489632+304458625+304554385+304384978
2688+303823930+303091777+302480054+302040970+301643850+301195015+300645690
2678+299961654+299251031+298739670+298467363+298177161+297632492+296885219
2668+296136357+295523995+295149683+295095393+295249333+295256235+294781159
2658+293805844+292683601+291901431+291656223+291667527+291559586+291306435
2648+291060406+290753768+290215345+289490642+288744556+288040981+287422812
2638+286956648+286576181+286168342+285835683+285757508+285853652+285881500
2628+285728857+285386976+284863472+284297986+283926960+283816098+283787100
2618+283612544+283206165+282697142+282332253+282226704+282267700+282276192
2608+282131711+281779732+281288568+280837067+280531196+280318201+280130497
2598+279991513+279929901+279868270+279672550+279338064+279053450+278955900
2588+278888170+278589933+278087867+277671244+277480765+277337106+277034322
2578+276629075+276328592+276223866+276256845+276344187+276403553+276347985
2568+276175693+276011528+276001922+276202427+276556707+276945866+277275238
2558+277506458+277596009+277492105+277237000+276960292+276723137+276477784
2548+276194319+275893982+275552649+275114496+274626711+274245131+274078208
2538+274072638+274028246+273729461+273160980+272583040+272268477+272199342
2528+272145362+271976175+271773241+271693094+271806184+272024950+272159277
2518+272087877+271873129+271669994+271554932+271489284+271407055+271279320
2508+271141414+271108836+271240205+271327529+271039152+270374144+269733734
2498+269445577+269452059+269515260+269497748+269375290+269136127+268782505
2488+268396012+268086417+267838178+267529385+267129563+266709123+266270587
2478+265787476+265345781+265023458+264730589+264358066+263982531+263777077
2468+263778684+263823935+263705056+263381491+263013278+262750795+262551222
2458+262285123+261961741+261711785+261573112+261426860+261155978+260776918
2448+260417725+260207725+260173814+260237837+260312798+260350105+260305384
2438+260154677+259943288+259745194+259587401+259436950+259232062+258941458
2428+258625160+258388809+258257696+258149281+257992328+257845072+257848286
2418+258051293+258337167+258552044+258645229+258659747+258655747+258673899
2408+258728225+258802492+258840183+258765550+258582247+258440104+258522151
2398+258858663+259275249+259521735+259486126+259303170+259212870+259319276
2388+259508222+259521772+259077319+257975455+256138425+253610438+250592255
2378+247379995+244148853+240891233+237640114+234594266+231939530+229657043
2368+227557640+225550783+223916485+223166254+223594564+225159853+227790211
2358+231572157+236592120+242809671+250191465+258485775+266568551+272682854
2348+275605843+275513278+273974851+272646259+271688255+270233225+267801473
2338+264497744+260610798+256505853+252642354+249484803+247263856+245780448
2328+244612042+243540546+242659237+242171196+242218966+242807005+243756974
2318+244757892+245553830+246113454+246596273+247183015+247993434+249097124
2308+250455262+251836828+252917053+253572802+254041341+254629945+255285184
2298+255692530+255815207+255995533+256433832+256916614+257196152+257339373
2288+257542927+257833696+258115663+258347156+258501972+258485574+258265713
2278+257983399+257775169+257578408+257250606+256802374+256381350+256057840
2268+255757484+255454389+255306476+255462241+255807610+256045240+255982532
2258+255659697+255258961+254958131+254840786+254877016+254939395+254872140
2248+254632867+254349951+254190861+254222325+254397758+254589114+254671215
2238+254666376+254747436+255053343+255554404+256079844+256455836+256678985
2228+256932738+257374598+257983618+258661025+259363212+260097392+260895632
2218+261823049+262920932+264124491+265322389+266517785+267835292+269361540
2208+271080148+272928372+274815072+276652175+278432889+280207503+282008103
2198+283845918+285693814+287491638+289269923+291138453+293072595+294892843
2188+296457822+297734151+298785724+299769221+300785587+301754767+302551947
2178+303165825+303661609+304066873+304309378+304285128+303980536+303429969
2168+302637025+301670164+300676825+299713653+298713594+297577016+296230967
2158+294734393+293255660+291839837+290409240+289008445+287835272+287108725
2148+286894999+286991490+287469414+289395284+294057479+301359053+309915809
2138+318640146+327272521+335695771+343753621+351540296+359346437+367445739
2128+375936263+384667466+393385886+401865782+409890141+417258933+423658253
2118+428578110+431807663+433813114+435261789+436687638+438920620+443230014
2108+450660966+461416757+474909714+489996776+504797835+516891275+524722214
2098+528363149+528332909+524945947+518944679+511259206+502377569+492524890
2088+481533022+468710753+453719634+436950668+419024362+400868297+383639924
2078+367969681+354061471+342268095+332683231+324802074+318144252+312559954
2068+307953637+304264931+301345248+298736091+296137325+293770637+291879006
2058+290451568+289445337+288724907+288144009+287935177+288505137+290018766
2048+292591493+296432677+301749398+309021061+319027058+332250447+348766353
2038+368565754+391180259+415236062+438897173+460358318+478069437+491223106
2028+499713155+503700719+503986137+502024878+498882977+494864297+489975812
2018+484035426+476773022+468271651+458994848+449340337+439308336+428576065
2008+416991265+404887453+392730867+380768869+369223293+358437043+348612048
1998+339710471+331790455+325112144+319635183+314731250+309827865+305058934
1988+300839712+297255897+294227160+291761351+289795782+288145269+286656237
1978+285232306+283845699+282573479+281493620+280678434+280314494+280472068
1968+280726442+280416700+279386036+278138559+277220455+276748575+276570001
1958+276595420+276792438+277017576+277072980+276902003+276660685+276607637
1948+276938708+277752323+278998813+280139993+280170269+278709432+276706027
1938+275347981+274903218+274947610+275089479+275219150+275372341+275527248
1928+275664132+276073085+277089470+278381284+279303131+279987551+280880546
1918+281415481+280679439+279185878+278377814+278818779+279861733+280587915
1908+280620255+280201422+279786936+279651477+279789986+280071113+280484521
1898+281191109+282146776+282903308+283292284+283887663+284976927+285663811
1888+285044127+283650125+282577570+282115769+281971983+281976366+282101672
1878+282286765+282469319+282698621+283410067+285429213+288995224+292531597
1868+293394790+291000656+287592036+285326788+284578565+284629714+284772879
1858+284737544+284619725+284634589+284897035+285479138+286512889+288139608
1848+290605362+294050923+297374046+298080487+295425459+291968357+290141242
1838+290080817+290598496+291045468+292214368+295163342+299158740+301717953
1828+301802118+300914893+300010484+298502826+296427564+294952995+294689599
1818+295110842+295566014+296201457+297626722+299778442+301538503+301935258
1808+301381769+301124528+302093379+304510851+307722600+310247829+310937982
1798+310410570+310631016+313105188+317369113+320474126+319606148+316144316
1788+313694724+313779235+315489845+317547485+319595521+321454226+322635379
1778+323413294+325265755+329551666+335746610+340660404+341216449+338315300
1768+334677908+332013713+331612666+334065436+337760935+339984348+340499635
1758+340995820+341846450+342932281+345628689+351156561+357906819+362212452
1748+362719667+361497391+360799093+361511086+363481878+365637762+366705734
1738+367487155+370703049+376932104+381532614+379833107+374624691+369922467
1728+366615196+364938880+365107355+366581559+369272927+374642075+383819465
1718+394254667+399439782+396626724+390374186+385353309+383367106+384826993
1708+389364649+395225089+400044913+404043214+409909315+418008398+424043230
1698+425117995+422920585+418426500+413066044+410182973+411225781+415042898
1688+420838986+429758605+441291544+448545877+446195259+439998452+436505796
1678+437597835+442234940+447478965+451215404+454844908+459795662+463441820
1668+462668361+460242142+460848295+464953934+469040362+470372095+470805718
1658+474097651+482718485+497205529+512880848+518239551+514402421+513584661
1648+518337722+522663478+520909006+516234977+514181537+516466964+523053458
1638+533467478+544808604+550518392+548372990+544891545+545337294+550054272
1628+557052624+564758074+573077895+581523168+588523674+594592070+602905134
1618+614813152+626092922+630640841+629518524+627396460+625858890+624495676
1608+623183154+622449869+622997696+625308214+629417870+635047273+641893000
1598+649569890+657269716+663826847+668591340+672095903+675271915+678384525
1588+681328039+684273452+687355165+690367486+693313776+696945873+702501063
1578+710492553+718729031+723215812+724888366+728965883+737584087+748015674
1568+756586911+764240500+774325495+788122276+805918345+829436729+857676218
1558+877741827+881617452+879843513+879109716+879481362+880142919+880403685
1548+880182874+880767442+883514396+888583554+894513605+895832189+885867206
1538+870456670+860287529+856441853+854254195+849945787+844899199+842585175
1528+843610197+846024364+848709522+852710563+857892354+861192321+860889994
1518+858437917+854697862+850072736+846490309+846208069+850373749+858887501
1508+868758405+871471028+862302293+850741890+844884955+845168876+848860284
1498+851899340+851054297+847383999+845143895+846768241+850989654+853921700
1488+852567105+847952936+843114669+840020539+838875944+838949938+840085255
1478+843019931+847976894+853738433+857854298+857559859+852952849+848139709
1468+846544873+848062209+849847251+849270498+847349668+847472674+851597450
1458+857567602+858615048+852272885+844839157+840866165+840295037+841062580
1448+840791807+838430086+834976069+831983032+830256206+830233636+832121742
1438+834785425+835308418+832291276+828591614+827036952+827088448+826492996
1428+824680344+823250149+823091279+823564529+824484222+826488248+828512800
1418+827325548+822228852+816484259+812770061+811094293+809998200+808804301
1408+808368888+809187780+809965403+809465346+808710148+809424004+811627293
1398+813966225+815275679+814803451+812330412+809256734+807641154+807734138
1388+807621797+805706884+803397316+803610019+807281487+812937331+818724874
1378+823937344+828635878+832605145+835412067+837401558+839590165+842247494
1368+844727400+846992850+849975004+853585334+855728289+854812541+852084578
1358+849757261+848573734+848019260+847608608+847307303+847057128+846650129
1348+846248754+846446921+847604810+849733010+853037798+857586520+862139917
1338+864698637+865079852+865375387+867269190+870338704+873314358+876114852
1328+879740156+884389897+888922404+892564288+896135540+900709754+905914554
1318+910576786+914455332+918174278+921827119+924843457+927041780+928944129
1308+931038657+933123177+934532920+934976441+934968188+935229027+935674593
1298+935523831+934613707+933781520+933601321+933653474+933414841+932966645
1288+932342779+931000090+928516094+925353083+922473775+920426799+919099303
1278+918093491+917056417+915920150+914998266+914518223+914212389+913935845
1268+914199971+915417901+917238734+919111355+920813127+922259757+923510191
1258+924792984+926051673+926784520+926473354+924972599+922637173+920220888
1248+918277708+916556506+914227728+910598991+905709374+900535472+896358250
1238+893598075+891498581+889005308+885679995+882013129+879226440+878390382
1228+879290718+880449264+880659265+880328231+880792058+882411875+883999771
1218+884340812+883863545+884157253+886046455+888901732+891750874+894226689
1208+896233564+897644476+898915363+901115219+904581142+908189645+910709068
1198+912332025+914112757+916420061+918720425+920590197+922177217+923597552
1188+924663843+925639634+927584421+931142160+935217266+937869336+938759300
1178+939364394+940484957+941484998+942360208+944302658+947584218+950898575
1168+953353500+955481043+957946048+960532525+962642026+964155199+965648139
1158+967708189+970240248+972839873+975128477+976440415+976470728+976238522
1148+977046020+978753489+980229044+981076935+981963174+983532810+985632669
1138+987532681+988899329+990298188+992355463+994940917+997594156+1000118837
1128+1002298461+1003761452+1004495249+1004804443+1004766241+1004507520
1120+1004597364+1005783667+1008808990+1013976099+1020121483+1024845656
1111+1026975317+1027932335+1029223455+1029830010+1027707142+1023488285
1103+1020763245+1021807769+1024488472+1025014898+1023449134+1023532257
1094+1027176625+1032445047+1036822919+1040088045+1043227535+1046168346
1085+1047409724+1045361579+1040749455+1036584943+1034969217+1035244738
1077+1035307921+1034277713+1033968665+1036809991+1042092071+1046549781
1068+1048770308+1049860120+1050533290+1051093389+1052608754+1055225105
1060+1057182383+1057151413+1055933702+1055586160+1057575358+1061575157
1051+1065577512+1067516384+1067288268+1066373469+1065696866+1064913399
1043+1063440839+1061442583+1059533878+1057927940+1056631926+1056215431
1034+1057668051+1061431918+1066619334+1071380759+1073741823+1072184313
1025+1066812169+1060218809+1056065326+1056394388+1059946502+1063320316
1017+1064279964+1063385471+1062326265+1061764705+1060902936+1058462255
1008+1054399711+1050551624+1049062337+1050042656+1051668097+1052761561
1000+1053411284+1053073165+1050376027+1045514752+1040802339+1038506065
991+1038984574+1040497235+1040968221+1040174821+1039359069+1038653978
983+1036674129+1033126836+1029495178+1026418140+1022922781+1018876526
974+1015778379+1014113640+1012257966+1009026075+1005427798+1003022104
965+1001526389+999031874+994717550+990273791+987632824+986415844+984899311
955+982340737+978661527+973371339+967204626+962912799+962139266+963091026
945+962978173+961646587+960801252+960775030+960281181+958633316+956435432
935+954301096+952210293+950377335+949695181+950688136+952505098+953443928
925+952700270+951225446+950492233+950807197+951233992+950883601+949870558
915+949093812+949311117+950369374+951331140+951308423+950079902+948408151
905+948001955+950063102+953260077+954392035+951885687+947376555+943433365
895+941194431+940364216+940045234+939311949+937747061+935491692+933247059
885+932575058+934890104+939326485+942768083+942930533+940401761+937367818
875+935458676+934687627+933786414+931904078+929878723+928918053+928762251
865+928670362+929111253+930856048+933197463+934687773+934983746+934468934
855+933198047+931355228+929753307+928956693+928649106+928639610+929837746
845+933059848+937009539+938845346+937373005+934717136+933500594+933643467
835+933669690+933540768+934688211+937772042+941248994+942213609+939435685
825+935367006+933441794+934209702+935889049+937471833+938908602+939506099
815+938882817+938408910+939516179+941548254+942898759+943206857+942855955
805+941646863+939542256+937531363+936891281+938172687+940557782+942238882
795+942654281+943612688+946565186+949949446+951249623+950696390+950625976
785+951902195+952958918+951996568+948985050+945815466+944843766+946840634
776+950039508+951607026+950528682+948542843+947599631+947248656+945561201
766+942139324+939084929+938962508+942646247+948915366+955327725+959907855
756+962197044+962505946+961072537+958344428+955127439+951936307+948887610
746+946616536+945919042+946192517+946108152+946180246+948610555+953753560
736+958506366+959874109+958945359+958667939+959297210+958978594+957287267
726+955605656+954826280+954478884+954133606+954184299+954780773+955252051
716+954592759+952345570+949635796+948705877+950558119+953171402+953185207
706+949659754+945004535+942076214+941395082+941039505+938779753+934314593
696+929253469+925335845+923579437+924104694+925580395+925610708+923227877
686+920026811+917404397+914798564+911312701+907173389+903677299+901710671
676+901055835+901395123+901182127+896390608+884622249+872518328+871727119
666+880382794+887687892+889226630+886791427+883272913+880181997+877960885
656+876577511+876234279+877787772+880874963+882440508+880130282+875554899
646+872033610+870763307+870173553+868082824+863851111+859457169+858248369
636+861749499+867400377+870473324+869002078+865274148+862560137+861845186
626+861636427+859666585+855420191+851240924+849377507+848398210+844764506
616+838798372+835179423+836131913+839375490+842546316+844448227+843187128
606+838052085+833590723+833015139+831817077+826201844
##END=
