##TITLE=<SNM>
##JCAMP-DX=4.24
##DATA TYPE=INFRARED SPECTRUM
##DATE=3/5/2025
##SAMPLING PROCEDURE=Instrument type and / or accessory
##ORIGIN=Admin
##XUNITS=1/CM
##YUNITS=ABSORBANCE
##RESOLUTION=4
##FIRSTX=4497.3318
##LASTX=599.83466
##DELTAX=-1.4281778
##MAXY=1.7077283
##MINY=0.17751339
##XFACTOR=1
##YFACTOR=1.5904459e-09
##NPOINTS=2730
##FIRSTY=0.19844933
##XYDATA=(X++(Y..Y))
4497+124775907+125161346+125259047+125474501+125888646+125963197+125295100
4487+124288158+123752531+124081530+125014006+125969671+126458967+126389410
4477+126127485+126151611+126598089+127151854+127339350+126939062+126115521
4467+125177948+124393476+124079975+124560697+125748849+126858374+126823690
4457+125325494+123330057+122148389+121965868+121906111+121482718+121202805
4447+121692775+122894446+124119147+124544648+123845483+122466584+121121583
4437+120204510+119839984+120043501+120502188+120588187+119969541+119055391
4427+118568671+118728997+119052374+118932008+118185819+117067533+116066447
4417+115696786+116116244+116899019+117475177+117754453+118014935+118297368
4407+118275763+117719506+116822539+115976212+115356348+114897015+114581395
4397+114468178+114470680+114517985+114845278+115631623+116535158+117072780
4387+117107118+116611058+115605352+114619181+114361923+114643925+114441354
4377+113383997+112389412+112360283+112972737+113380867+113551339+114014195
4367+114702033+114983220+114572532+113659188+112545175+111702961+111612342
4357+112153459+112689057+112869301+112874960+112950832+113153580+113438019
4347+113633254+113473472+113016781+112911547+113775890+115245688+116122671
4337+115721820+114647242+113933236+113872121+114068489+114302766+114723263
4327+115211238+115222978+114535983+113675500+113301688+113519006+113951712
4317+114227925+114287831+114353931+114650212+115126944+115503762+115549934
4307+115264558+114884647+114730225+114912108+115248293+115569215+115921234
4297+116328015+116626480+116726908+116801421+117082730+117576720+117990181
4287+117948563+117407840+116784266+116424499+116122025+115623791+115425436
4277+116308331+118009894+119143330+118802545+117600255+116768188+116875025
4267+117664762+118571014+119125004+119175260+118937620+118803126+118987164
4257+119260341+119199638+118883176+118957548+119811183+121182736+122628961
4247+123721013+123943381+123256359+122423336+121998126+121579417+120754668
4237+119977392+119792585+119958223+119989469+119970478+120273936+120920409
4227+121654427+122293105+122675151+122624249+122284138+122157224+122483130
4217+122872363+122889930+122687266+122718081+123093729+123527896+123739630
4207+123714333+123695539+123955346+124464429+124893884+125015674+124888234
4197+124642874+124385110+124275715+124419579+124702153+124907928+124924924
4187+124780667+124605829+124557746+124642818+124665332+124535223+124559442
4177+125144462+126205737+127192142+127766547+128117938+128471043+128649235
4167+128375815+127751322+127184187+126941601+126904686+126834698+126788968
4157+127031048+127561568+128076620+128389250+128534913+128541481+128482305
4147+128590791+128928128+129130408+128815594+128068131+127334731+127024134
4137+127290396+127962794+128582218+128729941+128500593+128509372+129236355
4127+130409019+131220389+131164418+130458038+129660019+129145736+129010923
4117+129245602+129854280+130796453+131819876+132494915+132612236+132433556
4107+132308544+132205886+131947006+131692699+131732349+131972977+132108156
4097+132105701+132123362+132141135+132036397+131831775+131586321+131262344
4087+130932868+130915170+131460090+132384471+133174011+133472963+133396923
4077+133316685+133439740+133722689+134098824+134542463+134921334+135026756
4067+134806833+134434362+134081538+133754703+133479353+133539465+134208321
4057+135171866+135623432+135184542+134367878+133886003+133888130+134096725
4047+134359324+134772842+135366023+135919338+136198764+136172578+135888607
4037+135412166+135008683+135063183+135700362+136682588+137602725+138042280
4027+137840065+137379458+137277222+137695771+138259289+138580914+138604009
4017+138539305+138579209+138590246+138219245+137464830+136865765+136879594
4007+137365704+137939257+138554418+139425029+140519133+141374351+141491719
3997+140870393+139998160+139287181+138775868+138449923+138422256+138671448
3987+139035450+139474068+139987732+140443693+140757110+141016383+141313498
3977+141688153+142186602+142741004+143112286+143117842+142800798+142353739
3967+142039609+142122208+142667035+143390953+143831107+143727110+143200515
3957+142593955+142247652+142404164+143199963+144581344+146035243+146640988
3947+146022660+145062207+144886901+145451281+145775051+145303295+144397530
3937+143805033+144199850+145753680+147739814+148935517+148838087+148223450
3927+148110299+148534413+148686709+148263925+148144927+149175236+150828371
3917+151550640+150405174+148119312+146260843+145738746+146371680+147785170
3907+150268328+154118121+158394417+161325019+162117426+161024082+158194442
3897+154429421+151879432+152331823+155163702+157268955+156570399+155288274
3887+156282728+158742969+160012323+160219045+160949803+160918959+158321244
3878+155276057+154998561+157738201+161726451+165522221+167754464+167182345
3868+165143369+164187789+164334997+163531703+161090734+158659790+158103074
3858+160563193+166705473+175339858+180352421+176356919+168072191+161403233
3848+158238346+158575130+161478187+165554132+169942559+174338331+177531495
3838+177544836+174637526+171516636+169668436+168388682+167020389+166249775
3828+166680494+167968399+170293678+174512635+179336091+181111943+179649377
3818+178252303+177143405+174171335+170026769+167580872+168486365+172467438
3808+177149626+179776704+181091949+183472974+185917204+185533199+183150150
3798+181272605+179535860+176967583+174761124+174443135+175800821+177737748
3788+179780602+181983482+184212220+186579379+189796903+193883754+197352559
3778+199102889+200224810+202684012+207648755+214884791+222528705+228530840
3768+233020173+237291222+241746057+246992606+254540505+264690541+275129317
3758+283431865+290697639+300434102+315020122+333164761+349243010+359616932
3748+367916069+377879584+388107197+394677123+398284667+403392439+412755353
3738+426990423+444790651+462190665+474356010+479587606+479981186+478936486
3728+479182745+481673109+485308835+488553754+491069339+493104511+494869026
3718+497014116+500907307+508381583+520375435+534320323+544813683+550314699
3708+554121056+558904281+565233944+572128605+577459627+579983269+580956202
3698+582608849+586180864+591532910+598076115+605696512+613587979+618640885
3688+618611616+615872745+613486079+612176194+611782202+612761393+616590873
3678+623912731+630674125+630479022+625746578+623458776+623669133+622386156
3668+619311418+617415810+617855749+619586647+621824418+625510550+631669356
3658+638639196+643070215+644894130+647826456+654163314+662083488+666855844
3648+665926647+662062426+659049000+658116280+658160653+657681026+656915228
3638+657720452+660990218+665319975+668885432+671724291+674946686+678508846
3628+681274550+683046898+684527977+686594141+690346382+695604362+699366946
3618+699159475+697574061+698774740+703333854+708447398+711589818+712492407
3608+711868195+710641133+710058895+711057200+713294333+715450367+717097093
3598+719354538+722693786+725293844+725461440+724618739+724944186+725609697
3588+724296439+721959468+721527811+722338507+721210759+717551835+714317521
3578+714041768+716027958+717931848+718912913+720201811+722726691+725401027
3568+726371074+725298941+723051014+720207882+717566900+715910581+714556173
3558+712486036+710916587+712540827+717689899+722500182+723108578+720829171
3548+719656900+720787497+722031498+721730335+720670270+719752766+718880908
3538+718652750+720476665+723798974+725543064+723925120+720729408+718746142
3528+718989440+720803387+722973437+724265184+724205746+723521871+723202120
3518+723573739+724582686+726315608+728474041+730027150+730602192+731190801
3508+732029379+731233974+727676237+723741185+722273523+722334685+721122688
3498+718327302+715833903+715094113+716749908+721037092+726868689+731543756
3488+732920050+731688866+730206813+729363063+727934826+725033531+721792772
3478+719837463+719608705+720812381+723180833+726034083+727888955+727759285
3468+726752062+727309940+730463153+734311185+736002058+734737969+731902633
3458+728855329+725889199+723542483+723258635+725221514+726684679+725175567
3448+722927641+724490718+730098355+734868013+734694271+730147075+724537115
3438+720586172+719070765+719339023+720523136+722128338+723665482+724412242
3428+724064234+723319197+723199347+723815913+724257089+723582508+721631772
3418+719358961+718618421+720662700+724324922+726674785+726395883+725383263
3408+725550259+725763876+724333466+722418557+722145952+723355325+724171942
3398+723748155+723422108+725412270+729669172+732156050+729463125+724559975
3388+723056336+725855544+729533507+731669078+732415089+732586957+732923873
3378+733564124+733199551+730644016+727361283+726066913+726908639+727378222
3368+726125377+724760251+725451021+728318437+731713825+734205800+735513587
3358+736054001+736441884+736907795+736486931+733520052+728110292+723206167
3348+721992073+724673380+728487008+730776908+731135635+730431298+729399265
3338+728371504+727089277+725237554+724118500+726120804+730803742+733541489
3328+731024179+726025089+723123044+722883418+723090589+722962869+723480197
3318+725093044+727190164+729148771+730734560+731616386+731157896+729342076
3308+727702171+727918561+729217278+729297329+728239512+728535353+731379758
3298+735442531+738453858+738852985+737047583+735227040+734723503+734451872
3288+733211169+731862608+731824981+733248196+735231237+736632341+737045334
3278+737271094+738008110+738406562+737059500+734077930+731085566+729515893
3268+729545424+730359868+731128515+731546829+731629878+731581758+731846868
3258+732404521+732396651+731497060+730758770+730974560+731366042+730894135
3248+730003914+730387750+733343911+738121814+741449070+740055387+734730174
3238+729922889+728730756+730171210+731228727+730250736+728069068+726636484
3228+726907890+727734176+727015073+724115802+720887035+719803359+721201464
3218+722883568+722701057+721091733+720041036+720349095+721390122+722629326
3208+724108306+725897144+727861822+729748698+730985803+730921343+729750122
3198+728453878+727433463+726064365+723962972+721927988+721138654+721658605
3188+722039218+720925261+719078785+718495498+719547393+720673193+721011233
3178+721467549+722568014+723034974+721293657+717498918+713466651+710849729
3168+709785391+709170473+707874454+705723817+703592743+702606281+702995664
3158+703795941+704021101+703896154+704141102+704523963+704402914+704179253
3148+704727837+705860982+706719947+706911828+706246992+704476518+701919783
3138+699284348+696695683+694031615+692060341+691953233+693727304+695960765
3128+696953448+695873144+693023642+689574737+687182675+686988321+688335908
3118+689174186+688199268+686041660+684094446+682925024+682180887+681436749
3108+680645766+679872922+679075793+678407359+678370407+679249160+680553799
3098+681423633+681519423+681166018+680724992+680181055+679291509+677981699
3088+676590564+675528924+674693269+673729444+672487091+670797417+668489078
3078+666188534+665312929+666596805+669029567+670647361+670428497+669088480
3068+667866066+667041579+666218366+665420412+665018962+665044221+665181985
3058+664893190+663432349+660694452+657959478+656718175+656864484+657021811
3048+656818763+657542437+659692775+661412955+660648280+658118904+656392578
3038+656547881+657398152+657414117+656215763+654291859+652020397+649223887
3028+645810360+642657671+641107785+641312633+641832584+641465013+640697041
3018+640535741+640982538+641381065+641269085+640461312+639104806+637849037
3008+637356893+637726414+638463880+638477746+636607060+633239330+630650215
2998+630506155+631754428+631858763+629652961+626314987+623774030+622832616
2988+622919037+623174590+623335703+623568395+623822975+623579788+622305806
2978+620107236+617666004+615703163+614773066+615045822+615873944+616169410
2968+615601039+614774978+614060335+613087590+611646274+610279949+609495449
2958+608955935+608216745+607864576+608772486+610377688+610969670+609752277
2948+607458741+605028565+602837116+601055886+599906439+599530060+599792322
2938+600088313+599621466+598339801+597198861+597015824+597370017+597003645
2928+595236394+592656274+590339952+588698623+587363404+585986435+584642259
2918+583480331+582469360+581500401+580453339+579299994+578277031+577774543
2908+578024213+578877370+579689527+579593062+578339879+576605645+575006965
2898+573409221+571647592+570049586+568694691+567115498+565231658+563630391
2888+562595398+561813371+561195531+561034381+561200328+561014481+560154353
2878+559156949+558679946+558552188+558059032+557034607+555977651+555075475
2868+553976097+552601227+551401261+550801671+550796837+550859685+550235248
2858+548699903+546795825+545085352+543655429+542527493+541953462+541953950
2848+541973850+541392436+540279154+539262974+538622909+537939447+536780180
2838+535285498+533906318+532935147+532325926+531687511+530552342+528885641
2828+527189596+525956538+525150939+524365315+523450997+522716603+522385459
2818+522233979+521910742+521248567+520242692+519086874+518084372+517177624
2808+515914772+514246984+512881634+512397772+512376785+511870775+510562576
2798+508962996+507562642+506383213+505365309+504635900+504317836+504336349
2788+504313563+503682343+502257367+500512715+498884653+497217315+495328340
2778+493547448+492256638+491417160+490787927+490156107+489290021+488115726
2768+486981794+486376508+486303766+486169187+485379928+483921485+482284279
2758+480970533+480169057+479748231+479365594+478620033+477292084+475545745
2748+473838607+472562301+471753779+471092503+470186466+469029336+468082750
2738+467574566+466934052+465515634+463653642+462261159+461557009+460872872
2728+459673356+458202921+456988451+456106025+455227646+454209030+453232013
2718+452381554+451465362+450278250+448821119+447309684+446040873+445136973
2708+444420718+443661853+442943575+442584736+442596541+442434192+441545882
2698+439994797+438268508+436754037+435617482+434806187+434014754+433027168
2688+432059333+431439543+431147188+430861690+430216267+429028705+427521430
2678+426142963+425087844+424266468+423644092+423218694+422786363+422096342
2668+421174079+420273664+419564230+418974984+418316856+417501438+416582435
2658+415614749+414624803+413730984+413104636+412737139+412438600+412093065
2648+411639297+410862330+409634069+408290680+407294325+406618695+405886363
2638+404955330+404042285+403422758+403167917+403038172+402646241+401856270
2628+400944724+400282586+399915240+399505582+398739259+397752498+397010084
2618+396759440+396749397+396497178+395785121+394851015+394028664+393327887
2608+392594206+391918614+391531817+391363209+391032440+390315474+389435971
2598+388785600+388443701+388157903+387757727+387308119+386854539+386331177
2588+385764380+385306077+385010049+384767575+384529448+384385238+384279666
2578+383912844+383174328+382381209+381815086+381372786+380897657+380457268
2568+380110721+379764324+379396978+379163011+379189170+379424486+379717591
2558+379941664+380012270+379890583+379640089+379362837+379002086+378367418
2548+377461269+376631236+376234657+376195944+376079092+375667748+375251531
2538+375166422+375317191+375381388+375235716+374973042+374702610+374492703
2528+374396238+374451929+374652204+374892505+375016515+374958164+374757027
2518+374435664+373983882+373457860+372994236+372700306+372542829+372364702
2508+372043077+371629897+371305124+371206747+371298678+371365649+371177778
2498+370734841+370304759+370124271+370112953+370011241+369750066+369511752
2488+369466630+369615412+369817337+369828767+369452351+368796097+368246651
2478+368069424+368140180+368154196+368023815+367931023+367972697+367954745
2468+367680528+367249097+366886135+366661387+366510469+366376340+366252179
2458+366160736+366077688+365884608+365508417+365056673+364684342+364413273
2448+364198644+364056683+364006951+363976070+363853297+363588186+363181527
2438+362645610+362038450+361490279+361140322+361035237+361055812+360955262
2428+360593087+360147077+359943878+360070699+360311000+360461881+360547665
2418+360660320+360728977+360614936+360381606+360243804+360253811+360294323
2408+360362156+360569776+360883119+361118960+361182333+361131927+361057685
2398+360999372+360949790+360905493+360888965+360849240+360602531+360034235
2388+359294707+358581638+357778925+356498646+354426036+351472873+347721906
2378+343448926+339107027+335039007+331224143+327456836+323684208+320051143
2368+316772195+314091019+312197940+311127231+310880822+311624322+313654416
2358+317189760+322192411+328535528+336357775+345484323+354331332+360468627
2348+362345872+360277946+356371938+353028717+350869348+348902796+346219690
2338+342615632+338390698+334113296+330311960+327317798+325356343+324472005
2328+324310668+324275253+324049231+323895726+324348033+325613395+327377011
2318+329169184+330758420+332178075+333541289+334896371+336207755+337453593
2308+338706888+340027342+341266659+342125849+342503314+342698605+343137158
2298+343917460+344760236+345404160+345863399+346239028+346520778+346729373
2288+347011235+347387651+347620981+347526690+347230436+346971398+346836969
2278+346784876+346750435+346665963+346495669+346282051+346099278+345977141
2268+345879477+345733205+345515054+345323660+345295590+345445684+345651656
2258+345779901+345775179+345657315+345486271+345350006+345349631+345521724
2248+345763149+345918977+345976279+346075892+346289472+346485925+346505825
2238+346393844+346349847+346496680+346805376+347189924+347550038+347788165
2228+347912250+348052600+348282744+348504044+348582858+348544257+348567492
2218+348786656+349136651+349460599+349730132+350046435+350464675+350934745
2208+351368687+351700468+351955610+352275848+352765369+353327594+353767907
2198+354044823+354343774+354884151+355672360+356480395+357092914+357525020
2188+357961362+358540864+359232983+359888113+360418708+360922357+361558786
2178+362315441+363004112+363489623+363822940+364155021+364611113+365252751
2168+366088331+367087797+368228250+369555300+371165111+373089052+375254979
2158+377628228+380333520+383524398+387148094+390934701+394608241+398017908
2148+401085712+403799136+406331249+408994979+411921909+414924279+417843863
2138+420858600+424220709+427852425+431442654+434845312+438185947+441652016
2128+445327504+449171451+453022031+456616158+459704724+462183619+464012107
2118+464970236+464727687+463317364+461290587+459155728+456900980+454348705
2108+451764463+449768042+448724991+448478732+448590375+448603604+448122291
2098+446840064+444554585+441156686+436682532+431386589+425679189+419937723
2088+414356582+408961625+403764620+398877998+394430152+390435586+386875189
2078+383861951+381576210+380018191+378911392+377869466+376668150+375403574
2068+374364571+373682083+373156435+372522966+371793183+371178265+370775766
2058+370491655+370205183+369880223+369554588+369313463+369268865+369492864
2048+369937674+370482585+371119689+372011522+373289364+374925559+376913960
2038+379467209+382951492+387642262+393439043+399736738+405709286+410795659
2028+414797757+417571632+418871099+418548724+416806096+414149261+411015573
2018+407491827+403512777+399238036+395062833+391338512+388197891+385527489
2008+383018088+380368936+377562944+374892505+372660543+370912780+369486305
1998+368238856+367180814+366388857+365776525+365018709+363867575+362476366
1988+361195937+360195047+359465076+358963188+358552856+358011843+357276325
1978+356549840+356083817+355925178+355910112+355890212+355937920+356205466
1968+356548378+356512400+355855247+354870846+354046921+353624447+353550355
1958+353618076+353585209+353332203+352953502+352611377+352359346+352190476
1948+352210751+352667067+353629581+354553756+354521039+353330667+351871400
1938+350996956+350682714+350479853+350232019+350119852+350289021+350635194
1928+351006175+351546289+352453038+353398350+353897389+354208746+354819353
1918+355231859+354539890+353045020+351957521+351867202+352364893+352726505
1908+352625955+352289302+352029889+351825791+351559519+351402829+351619594
1898+352146928+352571314+352530839+352246729+352404655+353138749+353583522
1888+353032165+351955198+351180592+350938455+351065651+351343915+351494647
1878+351345639+351031060+350939392+351674647+353824385+357150816+359941255
1868+360086590+357558300+354477116+352589753+352068227+352176347+352237397
1858+352035997+351724266+351552960+351663479+352098883+352899985+354204174
1848+356370364+359545164+362505560+362868484+360225965+357116637+355580393
1838+355469124+355662879+355785615+356718897+359311422+362688259+364647765
1828+364519220+363734833+363027872+361821723+360172936+359074494+358971171
1818+359365013+359731385+360239457+361400447+363137154+364530538+364812550
1808+364332024+364109787+364933075+367020639+369866581+372289861+373364655
1798+373576848+374495477+377242031+381197358+383754093+382797463+379882301
1788+378148142+378753166+380777806+383066695+385330999+387401099+388773683
1778+389700331+391651068+395948820+402050662+406997060+408087594+406218969
1768+403845383+402446715+402984993+405753583+409321889+411596836+412610618
1758+413779966+415281057+416886970+419672238+424620585+430401102+434062349
1748+434570421+433623085+433110854+433935978+436146953+438845274+440815311
1738+442638027+446679701+453541870+459171955+459204935+455925087+453123068
1728+451813445+452094295+453904644+456670986+460370497+466348704+475584009
1718+485821291+491552788+490622692+486923593+484281824+484071205+486586190
1708+491634338+497967073+503779445+509273828+516641520+525978424+533208877
1698+535859790+535990622+534674365+532542841+532040204+534728407+540065949
1688+547438850+557631648+570082453+578859531+579366141+576562397+576234439
1678+580144194+587436558+595382403+601746432+607627199+614619412+620758393
1668+623115714+623635441+626301683+631664934+636932133+640076052+642739146
1658+647830054+657144660+671010585+685538123+691390633+689638822+690430630
1648+696090135+701772875+702430366+700206049+699772144+702716987+708962178
1638+717993985+727014399+729909923+725026185+718757460+715815540+716153205
1628+717739743+719168504+720110068+719432640+715932692+711749094+710492051
1618+712231194+712486860+707748158+700799005+695336703+691828286+689093612
1608+686268094+683514082+681383907+679921792+678678015+677454402+676648878
1598+676644156+677116886+677302021+676808378+675792460+674514655+673142634
1588+671754122+670356017+669086532+668168428+667660394+667901819+669884335
1578+673973567+677927507+678482237+677108342+678043310+682047619+686021722
1568+687415480+687930410+690263709+695512244+704895882+720454179+740254613
1558+752526879+752872714+751810550+754812357+761228591+769334649+777699596
1548+785662493+794097746+804338850+816323071+828444681+837043857+836897623
1538+830230970+825312829+824964146+826733645+827514809+827640956+829522285
1528+833648993+838649658+843979742+850425658+857219432+861444479+862263120
1518+861803206+861339544+861227189+862453426+866106054+872690858+882026301
1508+891651289+894718231+887842159+879007779+874745855+875495239+879284207
1498+882936385+883596799+881838993+881142901+883573939+887926181+890757770
1488+889798592+886505440+883637874+882517995+882993050+884662112+887728229
1478+892343109+897832919+903351211+908014286+909675178+907018830+902869636
1468+900796725+901384435+902583089+902394132+901830183+903727028+909232053
1458+915480092+916432300+911514084+906778080+905177600+905717115+906323563
1448+905287707+902363251+899001592+896835140+896518537+898217280+902018465
1438+906934133+910034055+909260611+906600890+904629391+903654323+903160680
1428+903212848+904054049+905541199+907501830+910059764+913099348+915353346
1418+914904000+911763604+908011962+905113590+903164802+901720001+900572090
1408+899759371+898973335+897708496+896426944+896495001+898266224+900435600
1398+901660638+901733268+900483570+897469095+893857317+892036325+892468206
1388+892350754+888537876+882537408+879318236+881147698+886056020+891369914
1378+896529705+901852669+906364412+908524568+908509353+908032724+908228727
1368+909283546+911447525+914935481+918960027+921950442+923078715+922833318
1358+921971879+921010827+920481956+920814749+922051554+923789423+925474150
1348+927020588+928839032+931055404+933326941+935527797+937798059+939817753
1338+940846338+940854283+940978556+942309128+944380090+945320230+944087547
1328+942028053+941291262+942537211+944971622+947601286+949703054+950847967
1318+951349930+952171269+953533771+954430289+954250326+953785989+953863641
1308+954223267+954455548+954824543+955489230+955942923+955596263+954277609
1298+952287072+950350127+949139555+948688710+948541876+948278715+947608932
1288+946335399+944465987+942075724+939164235+935914481+932740580+929770853
1278+926696040+923397942+920316459+917909331+916102205+914555167+913151066
1268+911891024+910555430+908799947+906537704+903987116+901309182+898455782
1258+895444230+892436501+889483937+886590287+884069081+882400394+881610010
1248+881031145+879861423+878058269+876589108+876521950+877906264+879838412
1238+881456731+882499482+883097085+883441796+883596574+883577761+883700460
1228+884480874+886002353+887802733+889429071+890654334+891394724+892011215
1218+893325898+895806480+898953097+901901238+904374100+906710547+909143009
1208+911441829+913374577+915173907+917202895+919343789+921111639+922337576
1198+923571009+925636649+928649400+931695655+933855662+935222736+936491847
1188+938161059+940455906+943042772+944696918+944727124+944618817+946456673
1178+950013961+953199329+955067467+956288608+957126661+957440191+958119869
1168+960294941+963508042+966193247+967612189+968465458+970057543+973086934
1158+976746532+979405353+980500947+980865520+981354966+982342476+983870776
1148+985330643+986201526+987228387+989446707+992705080+996413174+1000440944
1138+1004171823+1006453628+1007091781+1006848033+1006166782+1005336973
1130+1005494525+1007644563+1011118652+1014140172+1015177452+1013864194
1121+1011778091+1011530221+1013843357+1016724265+1018435375+1019592356
1113+1021148538+1022321408+1022004430+1020888000+1021086926+1024121938
1104+1029298368+1034040743+1036152705+1035427531+1033295182+1031767782
1095+1032735205+1037074256+1043441246+1048120585+1047530177+1042537683
1087+1038493648+1039326980+1043631702+1047496149+1049207634+1049120988
1078+1047629116+1046078630+1046935273+1051016109+1055967529+1058268673
1070+1056364707+1051958948+1048900700+1050415583+1056309916+1062879730
1061+1066507473+1067084314+1066899479+1067071197+1066490983+1064291701
1053+1062115430+1062455119+1065243684+1067745778+1067773510+1065567783
1044+1062881004+1061239825+1060480022+1059211212+1057487059+1057623024
1035+1061043672+1065980776+1069621486+1070885050+1070029907+1067611836
1027+1064923783+1063456871+1063679557+1065631943+1069396401+1073372753
1018+1073741823+1068480171+1060834327+1056234963+1056904746+1060507380
1010+1063105564+1062856344+1060693564+1058281340+1056516713+1056010852
1001+1057462474+1059998297+1060704508+1058134506+1054663340+1053090669
993+1053066983+1052556251+1050636320+1047130526+1041586600+1034873026
984+1030338421+1030968105+1035551728+1039185918+1038454673+1034438821
975+1029478181+1023993018+1017805242+1012152109+1008690912+1007362513
967+1006412554+1004429138+1001434525+997876863+993747832+989207681+984940285
957+981172454+977297365+973252805+970140666+968619787+967707605+965851609
947+962772974+959879474+958951027+960416365+962852575+964403210+964465122
937+963541771+962046676+960029531+957613334+955000684+952367347+950082693
927+948961915+949821331+952160625+954054173+954339070+954211725+955444408
917+957653883+958699408+957503902+955223070+953468187+952445373+951125444
907+948721765+945668839+943067432+941711150+942026029+944035005+946827318
897+948642089+948183749+945918358+943631681+942561571+942142957+940838318
887+938242683+935782113+935046971+936147961+937994512+939323211+939005034
877+936762129+934137561+933457809+935284723+937712463+938679136+938077635
867+936955359+935754755+934349829+933025553+932319492+932302028+932671848
857+933104629+933240070+932811711+932119592+931782601+931513069+930409455
847+928770000+928089873+929025366+930551642+931665299+932799943+934648219
837+936727275+937993013+938113313+937564730+937000930+936790911+936796457
827+936434133+935319201+934082321+933941184+935037002+936523927+938297474
817+941023903+944557880+947624897+949201841+949210011+948206985+947067843
807+946050876+944348085+941853037+940188472+940493383+941671275+941797422
797+940189597+937814024+936346287+936869162+939373804+943460937+948392644
787+952539215+954344017+953943391+952563275+951041946+949723441+948563613
777+947022272+944741890+942313401+940977357+941548801+943195827+943807746
767+942551078+941089712+941052685+941586953+940835470+938977601+938308567
757+940459354+944275155+946657698+945932375+944063487+944175168+946347691
747+947740475+946912690+945538345+945129174+945465640+946381945+948015854
737+949887215+951725971+954449702+958218132+960481874+958598296+953708787
727+949637020+948393993+948536929+947957990+946501720+944944339+943057613
717+940016904+936251846+933635748+933281519+934223833+935175441+936700292
707+940103101+944774195+948231195+948364237+944756206+938609655+932131584
697+926681050+921876163+917077123+912506017+909311429+908815238+910799179
687+912834463+912625867+910209745+906505250+901829958+897100550+894238380
677+894494346+897395791+900455238+899356421+890540105+875084119+861731925
667+861527902+872222250+883441421+889787499+890829800+888606233+885362776
657+882142704+879454876+877381216+874486666+869060566+862405381+857975861
647+856751573+856747226+856466825+855700052+854566007+853814075+853646255
637+852327975+849382607+847778754+849194024+851084723+850882274+849083318
627+846736078+843370446+838724536+834609521+833357800+835106162+837715289
617+839374082+840025427+840377633+841700335+845029015+848365789+847826949
607+842932419+837521010+835044251+835342865+835005350+831451360
##END=
