##TITLE=<SNM>
##JCAMP-DX=4.24
##DATA TYPE=INFRARED SPECTRUM
##DATE=2/5/2025
##SAMPLING PROCEDURE=Instrument type and / or accessory
##ORIGIN=Admin
##XUNITS=1/CM
##YUNITS=ABSORBANCE
##RESOLUTION=4
##FIRSTX=4497.3318
##LASTX=599.83466
##DELTAX=-1.4281778
##MAXY=1.8577979
##MINY=0.40773621
##XFACTOR=1
##YFACTOR=1.7302091e-09
##NPOINTS=2730
##FIRSTY=0.42782828
##XYDATA=(X++(Y..Y))
4497+247269700+248552819+249918996+250520361+250359810+249828945+249215815
4487+248651155+248080415+247455951+247115005+247511001+248358611+248616550
4477+247717628+246452612+246099247+246882093+247906721+248460856+248646797
4467+248751196+248828156+249064668+249845911+251192727+252532498+253163370
4457+252835205+251893669+250818418+249630551+248131417+246772233+246599039
4447+247941739+249702223+250415239+249741633+248614104+248115260+248485384
4437+249266318+250069143+250737927+250986996+250518897+249604800+249072626
4427+249462593+250369990+250877292+250661914+250248073+249972719+249358487
4417+247960307+246190797+244819246+244256498+244574208+245560183+246537495
4407+246693568+245863080+244669718+243811240+243531838+243784938+244418996
4397+245075549+245358224+245255427+245112186+245142932+245264057+245451392
4387+245956920+246932285+247887584+247870067+246428773+244197934+242302529
4377+241463100+241773162+242734490+243433106+243357231+242997803+243108679
4367+243679540+244149033+244289190+244307483+244255017+243928488+243385411
4357+243012186+242875009+242586323+242098072+241923706+242296001+242787266
4347+242961184+242830586+242520490+241982925+241273370+240762021+240782398
4337+241153814+241271596+240750084+239887454+239319797+239203376+239090364
4327+238752674+238606350+238963384+239468808+239756374+239997107+240318072
4317+240416924+240225920+240178982+240404626+240441762+240115974+240000810
4307+240591634+241522129+241974019+241562280+240583780+239639884+239212798
4297+239366046+239684685+239688595+239363100+239165412+239419029+239814112
4287+239766072+239275685+239011510+239367906+239944847+240173229+239967963
4277+239595651+239286175+239089141+238946573+238860811+238880602+238896879
4267+238724615+238431795+238313117+238512596+238947520+239587314+240475437
4257+241483098+242357286+242911766+242910698+242132779+240931495+240202460
4247+240338724+240703061+240463844+239474957+238227769+237461856+237745254
4237+238907283+239963932+240019947+239157024+238124352+237408580+237059160
4227+237184538+237940272+238994819+239663464+239753670+239723458+239876000
4217+239928311+239614081+239264110+239429588+240183047+241064831+241487697
4207+241116212+240235341+239701514+240126395+241245742+242301030+242647298
4197+241939914+240481758+239360051+239427021+240229916+240589137+240043269
4187+239179364+238826568+239342000+240382354+241123240+240880992+239685667
4177+238362569+237938446+238735260+240121572+241232358+241724451+241717681
4167+241382351+240862441+240271393+239574637+238771225+238181934+238183123
4157+238684068+239257444+239643329+239829045+239894913+239961004+240079372
4147+240171989+240179000+240064610+239681447+238987843+238294377+237976013
4137+238151998+238799181+239790100+240768050+241388828+241621154+241532723
4127+241037375+240167218+239273325+238657921+238304092+238109211+238090092
4117+238203844+238229905+238042690+237854217+237974910+238390215+238744251
4107+238694713+238158956+237400071+237044122+237648210+238948709+239959970
4097+240132493+239872159+239580200+238968689+237793259+236504903+235722678
4087+235657190+236330348+237715885+239302245+240139452+239817315+238997919
4077+238640266+239008668+239638351+239955475+239643553+238669255+237394903
4067+236587237+236836358+237855733+238728026+238925559+238681209+238358797
4057+238063876+237894368+237993548+238294687+238577155+238685377+238467950
4047+237869444+237303561+237404084+238132344+238736793+238841054+238782456
4037+238644779+237963404+236750166+235891429+236057268+236865175+237430696
4027+237309073+236798481+236565448+236930353+237571146+238140164+238816216
4017+239824911+240782208+241024525+240332299+239003035+237539091+236527606
4007+236470764+237343522+238439633+238984932+238903046+238746163+238941371
3997+239414774+239919854+240373466+240735650+240897252+240893428+240951062
3987+241134901+241175086+240845854+240348198+240097389+240258595+240727727
3977+241394081+242131005+242683367+242841265+242613279+242051961+241123171
3967+239998984+239320917+239771446+241268375+242837597+243490361+243089301
3957+242239331+241643598+241708466+242537370+244039622+245779230+246868520
3947+246785686+246293473+246474298+247016652+246603983+244971392+243342039
3937+243020161+244550747+247540920+250485826+251436405+249853352+247324423
3927+245848542+246063937+247071616+247754523+248284286+249675990+251829542
3917+252862782+251243816+247994722+245400511+244539948+245148496+246977225
3907+250305053+255081443+260089971+263534737+264489830+262933768+259106406
3897+254289486+250983809+251038790+253826710+256170853+255746988+254641680
3887+255880807+258801512+260547510+260955615+261577874+261218051+258276417
3878+255149102+255019365+257855308+261973508+266347203+269394923+268997635
3868+266402373+264885997+264795120+263847969+261201928+258720280+258460584
3858+261410226+267816865+276000438+279713531+274288786+265057159+258050171
3848+255221618+256495091+260606247+265648759+270434571+274951368+278573566
3838+279126031+275990672+271853231+268998273+267184340+265527893+264264617
3828+263923206+264744910+267758749+273926344+280698611+282725372+279869104
3818+276741134+274322202+270622010+266332372+264196459+265488655+269450955
3808+273644358+275884344+277313166+280266151+283593359+284167079+282689527
3798+281625145+280466026+278095340+275916192+275856750+277985171+281442580
3788+285777691+290435007+294495936+298213955+303232921+310071848+316908708
3778+322224868+327253308+334217803+344134852+356501218+369243047+379619513
3768+386832423+392007272+395747959+398598749+401832375+405584258+408082734
3758+408465123+408877551+412276362+419886473+430003638+438151435+442297454
3748+446559635+454540284+463643363+467754518+467667086+469731637+477469625
3738+491110445+507647599+521235815+528561581+531921809+535126119+540431669
3728+548678784+559259672+570266493+579844663+586466387+588863169+587848083
3718+586487952+587393489+591198768+596267169+598503141+594518036+586194443
3708+578017123+572943279+571835732+573118661+573915510+573785360+575143837
3698+578663600+581817442+582768383+583519448+587395831+594128826+599123230
3688+599372230+597157892+595320706+594671473+595761865+599568178+606561473
3678+614982626+618500391+611601418+601063833+596423362+597507691+597189379
3668+591769595+585320531+581924028+581127145+580237386+578666425+578450083
3658+580334533+582119287+582501744+583801796+588546234+595517275+598760753
3648+593933567+584673778+576551646+571893090+570045087+569101690+568060216
3638+567353384+567046922+566435308+566456046+569740485+576204017+580251924
3628+577472306+572215536+569802770+571613705+577665567+586421189+593181606
3618+593989238+590519633+586234956+582700311+580867879+581596828+584043975
3608+585639946+585010418+583928294+585244467+589669560+594733620+597286802
3598+597090716+596467113+596942239+598011479+599086989+600744005+603203760
3588+604998642+604798422+603590764+602996581+603338319+603975151+604032130
3578+602932988+601014777+599647136+600420663+604037228+609673286+615046633
3568+617252496+614768488+609208908+603822058+600816004+600347906+600966134
3558+601113440+600382768+599431896+599003208+598991289+598651411+597999904
3548+597996253+598929900+599954562+600425899+600516914+600323240+599239531
3538+596651762+592891198+589108035+586358629+585037702+584969699+585556303
3528+586061055+586168951+586205674+586647384+587370752+587590815+586767268
3518+585072565+582608951+579301948+576165882+574941378+575665332+576441201
3508+576230061+575693271+575149418+574235235+573366559+573349817+573763140
3498+573217807+571159766+568824338+568003616+568742039+569248410+568443363
3488+567145551+566277151+565593123+564494188+562666200+560087698+557365714
3478+555522155+554931796+554980645+554889147+554359626+553406583+552145805
3468+550992370+550730176+551805514+553420673+553937345+552662098+550768449
3458+549949897+550623452+551752462+552005768+550972906+549482660+548526345
3448+547745584+545814179+542622960+539767726+538538021+538669893+539021449
3438+538645468+537350034+535505303+533649032+532469589+532498320+533401479
3428+534267399+534794027+535295920+535584502+535004306+533547510+531831069
3418+530261417+529017726+528184257+527394918+526014187+524044819+522362965
3408+521788556+522150722+522526565+522336026+521767438+521258897+521174289
3398+521576485+521932003+521654307+520852359+520019752+519439590+519244159
3388+519265483+518794387+517478352+516069200+515240967+514529346+513475884
3378+512691575+512716309+512819692+512043582+510714318+509952745+510192926
3368+510792793+510869650+510290211+509789627+509927321+510152104+509550755
3358+508337999+507709332+508188730+508919229+508758660+507676915+506748814
3348+506936701+508421160+510783768+513075858+514047951+513216342+511396519
3338+509671810+508509350+508040666+508181874+508403866+508174674+507513005
3328+506756531+506139473+505643574+505033131+504207311+503391067+502593081
3318+501255480+499035631+496692762+495716019+496881751+499104908+500256620
3308+499698023+499067186+499804851+501132634+501397446+500343502+498967593
3298+498125994+498071151+498484785+498675772+498409720+498378784+499194993
3288+500366927+501020294+501113308+501115409+501172871+501408332+502213139
3278+503418385+504058076+503789853+503638482+504403293+505167587+504372461
3268+501683893+498127683+495137097+493779963+494203174+495650117+497298830
3258+498752629+499611728+499461976+498541420+497499532+496494506+495342277
3248+494255537+493616260+493273350+492725708+491836018+490897410+490097461
3238+489298373+488423807+487758933+487557577+487575387+487348986+486743641
3228+485960124+485263247+484866080+484784470+484723012+484294875+483356784
3218+482093731+480870882+479987634+479523118+479420356+479545407+479654990
3208+479630359+479663775+479735361+479100527+477059883+474171888+471905600
3198+471013155+470784101+470097249+468848665+467842467+467449296+467108833
3188+466257485+465041456+463888057+462939217+462170134+461687533+461603476
3178+461718227+461501851+460465820+458652542+456744011+455477342+454891564
3168+454354843+453372036+452029371+450628556+449353722+448297021+447410707
3158+446547475+445789760+445389286+445149450+444430766+443118520+441959677
3148+441561511+441645464+441575291+441087488+440224427+439020834+437615368
3138+436398306+435744491+435668048+435833095+435803158+435291309+434377401
3128+433517304+433093645+432907412+432392669+431425123+430578805+430344343
3118+430403458+429947003+428601617+426821376+425302365+424265955+423512581
3108+422893422+422388222+421932904+421537460+421374170+421419884+421266033
3098+420633370+419867319+419563407+419767760+419872176+419409418+418642781
3088+418115464+417941254+417871253+417728460+417422205+416849311+416083192
3078+415389622+414900820+414505100+414001346+413157646+411853117+410396355
3068+409409415+409151768+409216016+409065369+408571537+407846860+406890269
3058+405678718+404439677+403603212+403464863+403886558+404337604+404357309
3048+403965895+403484809+403094704+402753896+402365101+401817321+400998459
3038+399919401+398793526+397944727+397522275+397249952+396608746+395369084
3028+393803980+392373745+391382636+390864827+390635601+390479373+390288730
3018+389980063+389481787+388894184+388384161+387923814+387341860+386543668
3008+385622732+384849034+384443358+384245446+383830296+383067449+382260231
2998+381710074+381511370+381684616+382034381+381981053+381103696+379813635
2988+378923084+378612316+378332036+377650179+376723215+375946347+375511906
2978+375328911+375164380+374814995+374183641+373283478+372293299+371513882
2968+371083919+370816661+370422422+369745354+368772779+367713391+367011278
2958+366900902+367021785+366794488+366083659+365247400+364655870+364305968
2948+363846447+363032684+362178787+361868915+362136931+362343834+361998685
2938+361229672+360338363+359427865+358617650+358167052+358189616+358472377
2928+358661849+358504346+357902653+356867070+355531364+354203374+353220327
2918+352702139+352538746+352535197+352447661+352050219+351340217+350571651
2908+350042922+349923107+350162117+350440020+350372327+349898613+349330302
2898+348947121+348679656+348276736+347664123+346984574+346371857+345880368
2888+345539973+345248084+344735615+343902594+343068057+342626141+342536400
2878+342406836+342072987+341793981+341734522+341578053+340998166+340239901
2868+339770769+339570204+339231601+338631011+338078649+337823138+337680173
2858+337227026+336306642+335256831+334543970+334220387+333931356+333486511
2848+333150354+333208815+333533741+333773544+333714566+333311750+332623141
2838+331820298+331106438+330638856+330551527+330815478+331067716+330900740
2828+330319510+329658185+329173930+328932371+328876908+328827852+328596317
2818+328181271+327728985+327344943+327069004+326887662+326637353+326099288
2808+325329172+324648796+324193892+323763792+323217149+322678395+322238269
2798+321772651+321172130+320525825+320014458+319719537+319532339+319254229
2788+318829950+318397197+318079091+317867813+317695738+317446084+316955490
2778+316195950+315394760+314840401+314595052+314432210+314043277+313345745
2768+312600708+312151419+312051275+312043937+311896322+311602916+311236134
2758+310754841+310046734+309104784+308101756+307253715+306613474+306070276
2748+305586400+305288757+305209351+305090018+304633943+303871475+303099464
2738+302498942+302006970+301584414+301370208+301422812+301500013+301301447
2728+300818191+300263418+299755634+299248711+298724598+298274896+297963852
2718+297733834+297486659+297163007+296738763+296264636+295889138+295704627
2708+295598592+295355689+294866783+294208180+293578755+293151652+292947298
2698+292850598+292694577+292312017+291650416+290897043+290355567+290148113
2688+290108599+289967150+289588414+289039497+288478747+288034212+287776376
2678+287717330+287785781+287815338+287587214+286994719+286242534+285733906
2668+285638188+285734251+285742742+285596608+285365453+285133953+284953214
2658+284781243+284520202+284145255+283720908+283336143+283077049+282945641
2648+282773601+282364050+281747767+281156805+280745376+280505281+280443669
2638+280596434+280817996+280829605+280554044+280161873+279784032+279451423
2628+279245174+279199753+279128184+278808546+278287688+277825377+277615408
2618+277670699+277892295+278133544+278243472+278146635+277879239+277513128
2608+277106074+276746698+276521468+276391869+276237691+276060966+275996959
2598+276074143+276125024+276017732+275844882+275772745+275798616+275773486
2588+275603529+275333429+275079606+274936159+274884312+274792350+274588857
2578+274383108+274295297+274252218+274098832+273846301+273666509+273673227
2568+273815227+273952818+273957624+273789115+273582039+273608583+274018186
2558+274623944+275055819+275132072+274991553+274861162+274792143+274666472
2548+274405156+274093682+273886675+273832762+273832900+273758644+273575787
2538+273327148+273027232+272649667+272218085+271818627+271501675+271246181
2528+271020555+270805246+270580223+270365500+270219676+270143870+270071819
2518+269984748+269922188+269866483+269755901+269618189+269552219+269569271
2508+269553321+269392959+269103274+268813589+268653245+268653762+268757868
2498+268913200+269129490+269403897+269600603+269505850+269069721+268506663
2488+268079525+267862183+267777507+267765708+267791752+267747639+267524114
2478+267215190+267070588+267149116+267199756+266997711+266622143+266295890
2468+266133255+266126933+266213074+266273791+266189442+265941975+265622560
2458+265332944+265100807+264890045+264685967+264542124+264484972+264384707
2448+264062623+263585326+263289027+263387139+263692481+263850156+263716475
2438+263401315+263067707+262817949+262703095+262722145+262795764+262794041
2428+262637383+262366490+262102160+261959419+261997313+262198687+262470337
2418+262684130+262742953+262638382+262465463+262359962+262393171+262521908
2408+262634851+262642257+262531072+262350695+262174658+262085917+262151595
2398+262402972+262910446+263880850+265608866+268387347+272609671+278931909
2388+288158213+300906347+317446118+337799850+361802634+388990677+418570231
2378+449592456+481043094+511666981+540066092+565479096+588178246+608507312
2368+625873524+639208745+648056657+652570629+652634292+647839074+638218118
2358+624138446+606058030+584296351+558981666+532745391+511721962+501199948
2348+502854276+515165558+533189271+549337697+558613608+561743301+561803105
2338+561212780+561476732+563261658+565990738+568090497+568388760+566932309
2328+564118035+559932400+554338095+547508400+539552555+530558061+520809298
2318+510746562+500918393+491826579+483406770+474791667+465067018+454120001
2308+442347612+429987998+417258295+404722851+393007648+382351005+372658739
2298+363757774+355428085+347404719+339561351+332035710+325042966+318608544
2288+312604877+307006128+301945685+297525553+293714865+290443585+287661625
2278+285271664+283107020+281050546+279133868+277459731+276060966+274882969
2268+273854861+272922092+272051591+271244838+270511359+269828710+269176204
2258+268582417+268073582+267593788+267045595+266410641+265763441+265164038
2248+264610747+264110559+263718439+263457588+263240264+262925431+262466152
2238+261968530+261580355+261354642+261253413+261226353+261223166+261175161
2228+261027132+260773429+260459389+260175130+260006448+259940409+259868565
2218+259730354+259585287+259497786+259434881+259338337+259229339+259178681
2208+259214732+259297583+259357939+259355475+259315152+259288127+259274916
2198+259216593+259072422+258904137+258870170+259079898+259434485+259685673
2188+259680368+259481112+259255107+259121271+259090732+259093092+259061381
2178+258997409+258946613+258930198+258914919+258848828+258727739+258598347
2168+258483475+258368294+258270957+258221092+258170141+258040749+257862715
2158+257761864+257816087+257962084+258049981+258010210+257944273+257987576
2148+258121688+258211876+258186315+258093801+258034445+258099123+258332863
2138+258709205+259163678+259653687+260168137+260719533+261372005+262218202
2128+263268478+264434297+265676387+267070674+268663166+270371460+272078944
2118+273716616+275230184+276566269+277689509+278540874+279021322+279079214
2108+278744659+278032676+276924819+275513169+274028865+272636645+271311256
2098+269986109+268711275+267614906+266794959+266261854+265921563+265617031
2088+265215058+264665866+264029517+263469111+263145098+263084949+263180563
2078+263284118+263297795+263238938+263210155+263240075+263220042+263098109
2068+263033275+263207279+263561746+263872807+264023695+264071511+264132986
2058+264317169+264649537+264967160+265041933+264885188+264767009+264884981
2048+265180626+265521365+265898121+266347599+266774530+266997383+266987996
2038+266947569+267082112+267373984+267627859+267708281+267686939+267741559
2028+267950736+268252116+268567207+268887294+269280379+269849035+270563377
2018+271133084+271260960+271044429+270877315+270969363+271197384+271360019
2008+271372714+271275842+271190752+271210526+271296753+271352751+271344379
1998+271318077+271447142+272003758+273001378+273952077+274333536+274174104
1988+273842184+273565555+273440849+273531054+273737699+273870587+273919816
1978+274033016+274253337+274464185+274570978+274666919+275012447+275751076
1968+276593725+276984778+276742013+276288642+276088370+276172874+276379502
1958+276717588+277255877+277878395+278377291+278685888+278926070+279271924
1948+279848400+280800547+282229301+283734429+284350780+283619351+282335801
1938+281540365+281395195+281458944+281483041+281572075+281825812+282135461
1928+282461920+283160175+284518204+286025090+286924460+287427627+288171183
1918+288730538+288118441+286592781+285490556+285584292+286492740+287286282
1908+287373904+286919275+286466128+286329312+286467265+286743618+287154650
1898+287820540+288683911+289389193+289882887+290737852+292138288+293111070
1888+292751246+291586134+290673569+290315950+290274301+290357703+290492917
1878+290710086+291103394+291713045+292808191+295107309+298875934+302613280
1868+303737949+301669780+298581840+296564105+296002339+296259400+296708448
1858+297091387+297413523+297748406+298140233+298718466+299724767+301355429
1848+303836095+307290025+310676676+311595406+309298321+306245968+304761371
1838+304886043+305425383+305860961+307064003+309976354+313748390+316006995
1828+315907815+314987913+314184312+312948716+311256631+310111430+310060479
1818+310667581+311346923+312151867+313564706+315553744+317170454+317542404
1808+317001342+316663773+317428136+319583565+322571292+324993049+325752624
1798+325463731+326000418+328693292+332899494+335667709+334462876+330903462
1788+328495518+328541749+330061863+331873901+333702612+335333998+336285386
1778+336952395+338814144+342961988+348617613+352822333+353107264+350501650
1768+347320593+344934078+344481895+346527982+349676243+351623804+352213784
1758+352752435+353340142+353947243+356079006+360915424+366864593+370471306
1748+370502861+368925286+367926219+368439653+370368612+372736146+374367325
1738+375850681+379471312+385691149+390305989+389045279+384440016+380237363
1728+377331833+375903320+376082663+377468562+380136495+385333461+393712586
1718+402612585+406361540+403135320+397201551+392532039+390652653+391973580
1708+396131897+401388598+405542816+408947035+414125261+421250393+426355758
1698+427031379+424717069+419948654+414184307+410961291+411744084+415321860
1688+420800863+429087009+439341317+444843815+441282196+434782216+431353021
1678+432366866+436562009+441083595+444068290+446972752+451075812+453773303
1668+452233415+449265290+449251855+452525339+455823937+456685103+456795134
1658+459561076+467295377+480611133+495268418+500349944+496566815+495486861
1648+499751007+503882591+502596492+498766891+497522613+500414846+507348785
1638+517959575+529820810+536925583+536752647+535171937+537462545+544194473
1628+553290489+562948065+573245469+584196103+594145087+602556938+611898786
1618+624182335+636986690+645481152+650151731+654966033+661216116+667637345
1608+672889292+676846286+680165967+683323667+686231471+688760056+691220018
1598+693934285+696726133+699256647+701748164+704967804+709192608+713511597
1588+716713668+718647587+720099009+721738387+723885824+727065227+732106137
1578+739030119+745346415+747857155+748742366+753120264+762292758+772908268
1568+780956609+786953008+793701092+802558512+814569704+831688915+852737698
1558+867026684+869066776+867654627+867669027+868586345+869464322+870004420
1548+870576693+872177625+875346073+879888156+885260883+887896537+881313947
1538+868669368+859798100+857059718+856565369+853910492+849512132+846863801
1528+847164131+849041003+851554843+855207719+859117035+860435758+858722245
1518+856037604+852755129+848805369+846068089+846508697+850321969+856514591
1508+862600488+862938644+854958167+845500570+840127843+839272190+841173727
1498+842628525+840765088+836860457+835224386+837918949+843084703+846345131
1488+844762733+839951738+835333109+832908078+832810311+833957407+835352538
1478+837101327+840020706+844430503+848705948+849165227+844627829+839219826
1468+836886638+837715628+838868994+837852806+836106773+837226103+842516633
1458+848332379+847391015+839427074+831822509+827983125+827274983+828292687
1448+829203322+828339125+825940207+823628516+822361674+822456203+824515518
1438+828470033+831794192+831542505+828876604+826776570+825865728+824996845
1428+823785191+823080081+823277683+824002154+825291939+827420842+829270499
1418+828674455+825470111+821614949+818564938+816617445+815356528+814450372
1408+814218321+814729963+815049309+814727207+814849709+816127506+817791825
1398+819205490+820531033+821086702+819719406+817430037+816494323+817089677
1388+816889595+814155898+810695664+809938673+813049384+818442091+824030058
1378+829212899+834519139+839735809+843327985+844315924+843708582+843095314
1368+843378350+845234207+849019506+853588322+856341241+855761320+853161080
1358+850769122+849632430+849590126+850010753+850349735+850459146+850665429
1348+851350421+852294334+852891824+853274281+854470157+856876792+859207017
1338+859740087+858335654+856424127+855472014+855914965+857196206+858715769
1328+860560258+863007542+865758740+868258180+870453571+872796681+875683953
1318+879018378+882268953+885197909+888312892+892065326+896170384+900176641
1308+903886289+906909636+908896401+910391023+912389156+915167224+918202284
1298+920846963+922754426+923988747+924626405+924302168+922861426+920937703
1288+918939432+916465139+913595987+911358224+910141885+909140372+907909495
1278+907156294+907533584+908673238+909707822+910227457+910574776+911457300
1268+913146422+914831962+915371784+915064151+915686307+918230463+921682292
1258+924545656+926504379+928073136+929718576+931726287+934072359+936345398
1248+938067730+938775596+938267399+937060085+935727170+933905417+931109574
1238+928063421+925919291+924774056+924064191+923783291+924351086+925730784
1228+927422180+929069688+930401088+930712097+929447666+927577960+927083336
1218+928561284+930575264+931578912+931345001+930458205+929647197+929693497
1208+931001403+933190179+935460531+937349322+939234049+941887685+945125032
1198+947529255+948460904+949408124+951814483+954577944+955554171+954851265
1188+954663585+956308061+958952258+960966445+961631318+961574201+962058077
1178+963706687+965913171+967788044+969247045+970500658+971211349+971370849
1168+972088292+974010086+975938976+976657177+977126791+979091233+982640760
1158+986448933+989464564+991613448+993545301+996084565+999392878+1002587438
1148+1004564695+1005275524+1005682027+1006406704+1007396297+1008533609
1140+1010043250+1012040350+1013856315+1014805947+1015100972+1015176967
1131+1014836125+1013742701+1012576590+1013076243+1016309870+1020885162
1123+1023558641+1022642494+1020425400+1020635955+1023745564+1026585916
1114+1026984219+1026649234+1028366604+1032234857+1035977646+1037742694
1105+1037175589+1034978820+1032585070+1031266209+1031208266+1032130545
1097+1034303543+1038111303+1042897081+1046821211+1048559802+1049156948
1088+1051528100+1057089815+1063076775+1065308544+1063620179+1062241790
1080+1064349680+1068329824+1070378460+1069156816+1065970454+1062098757
1071+1058823171+1058449808+1062061069+1067067323+1069704217+1069724955
1063+1069527698+1069888246+1069916770+1069849456+1070564143+1071308732
1054+1070891687+1070100867+1070419731+1071321547+1071311350+1070778762
1045+1071099968+1071829262+1071268081+1069765055+1069368198+1070620364
1037+1071988763+1071631178+1068821486+1064836243+1062424097+1063057828
1028+1065691690+1068785245+1071671346+1073741823+1073669686+1070650679
1020+1066782702+1065192518+1065722074+1064917199+1061215957+1057523533
1011+1057118271+1059589187+1061937189+1062712989+1063184670+1065157449
1003+1068697399+1071429511+1071031552+1068291310+1066418228+1067297858
994+1069374950+1069184513+1064538049+1056652102+1049240453+1045673013
985+1046996282+1051692285+1056853424+1059882283+1059884970+1057806569
977+1055330830+1053487030+1051915311+1050100517+1048554428+1047761266
968+1046990495+1045343952+1043274439+1041286710+1038195084+1033369827
960+1028488211+1025080271+1022780292+1020279266+1017365468+1015078235
951+1014068317+1014115030+1014271568+1013301336+1010674501+1006881072
943+1003032731+1000206503+998804413+998346787+997743096+996202657+994121432
933+992526357+991843845+991804297+992409918+993700392+994433681+992842533
923+989225072+985915863+984652122+985531270+987661827+989629576+990022782
913+988585140+986621111+985401879+984800392+984464648+985042158+986612706
903+987253258+985133725+981357589+978736198+978411753+979084205+979346572
893+979125476+978537287+977474661+976811235+977593787+978118244+975097722
883+969221828+965198621+965466844+967791420+968751525+967073977+963884791
873+961449770+961061732+961705798+961916628+962190983+963957961+967107462
863+969756275+970218862+968691996+967088722+967054065+967914336+967697718
853+966428671+966149356+967607392+969319457+970028908+969904132+969168155
843+967371275+964380173+961195671+959099771+958409405+958913537+961009369
833+964874177+969130606+971938575+972541853+970783694+966974005+963148125
823+961847523+963377971+966102987+968726997+970894414+972567759+974139685
813+975786159+976610395+975661934+973567894+972432855+973906531+977408036
803+980082755+979086065+974604338+969676146+966793973+966053655+966237891
793+966521064+967147768+968785836+971683099+975575742+979011930+979551683
783+976444073+971980535+969545101+970249728+972795263+975874418+978526401
773+979568564+978631402+976331286+973411562+970922732+970192680+971554740
763+974012566+976625966+978909960+980216901+980250868+979432626+978447029
753+978020684+978377993+978654828+977741299+976466327+976296561+976170545
743+974455792+972376772+973201421+978658273+986867080+994357410+998662344
733+998335006+993588087+987421784+982520256+978237233+973519251+970808773
723+973013052+978167438+981549197+982909190+985940805+990573214+992525943
713+990664367+988464429+987825255+987065095+984543262+980636081+976576841
703+973407428+971330061+969772949+968307610+967050827+966628478+968220177
693+973071685+980601287+986674577+985760497+976085799+962114230+951115298
683+947943405+952627695+960167150+963403050+959420977+952504573+948804709
673+949435408+950242971+946921292+939575786+933528816+932866837+937762853
663+946758553+954684461+954257565+944633026+932114118+922627307+918406982
653+919377834+923670986+928160706+931045153+932421820+932069540+929135210
643+924281429+920089903+918646887+919727013+922915580+928634454+935109492
633+937014337+930375526+918861094+910459577+908384070+909621354+910556448
623+910015042+908340250+906117369+902542763+895709176+886775071+881764063
613+885110683+892873302+896118917+892939376+890361321+894176316+903397797
603+911658691+913637051+910480178
##END=
