##TITLE=<SNM>
##JCAMP-DX=4.24
##DATA TYPE=INFRARED SPECTRUM
##DATE=2/5/2025
##SAMPLING PROCEDURE=Instrument type and / or accessory
##ORIGIN=Admin
##XUNITS=1/CM
##YUNITS=ABSORBANCE
##RESOLUTION=4
##FIRSTX=4497.3318
##LASTX=599.83466
##DELTAX=-1.4281778
##MAXY=1.8014176
##MINY=0.26020762
##XFACTOR=1
##YFACTOR=1.6777009e-09
##NPOINTS=2730
##FIRSTY=0.28218177
##XYDATA=(X++(Y..Y))
4497+168195520+168371612+168139368+167474630+166628043+166013043+165876653
4487+166109110+166471313+166912974+167461058+167918636+167949012+167403930
4477+166423564+165382215+164851593+165278510+166443531+167441056+167382098
4467+166102359+164285746+163000873+162880754+163622002+164426612+164874171
4457+165199053+165813414+166680162+167227482+167067466+166552369+166172011
4447+165835281+165341305+164948441+164873727+164862731+164711561+164666548
4437+165042803+165761010+166259889+165894132+164686461+163473852+163022190
4427+163302253+163765302+163942585+163718352+163339984+163173750+163268236
4417+163266211+162910686+162513897+162632026+163252639+163637740+163221073
4407+162369957+161838624+161757212+161754992+161870847+162479701+163360750
4397+163734979+163327975+162702974+162488974+162787086+163219563+163255250
4387+162743494+162167041+161970325+161831128+161128605+159914859+158859050
4377+158430002+158573000+159004820+159393865+159374644+158880722+158444088
4367+158742431+159770564+160742367+160895385+160187302+159162740+158397885
4357+158181131+158468549+158892073+158942789+158468176+157954643+157963986
4347+158340472+158425170+158076360+157877868+158143809+158302262+157688559
4337+156580365+155866669+155911434+156308242+156614258+156769301+156829147
4327+156785270+156620191+156324069+156024039+156069905+156571856+156983123
4317+156771646+156267545+156089960+156150055+156053011+156010734+156441772
4307+157060911+157232722+156921181+156632857+156789054+157527175+158632207
4297+159440921+159345210+158545733+157885577+157914532+158455244+159027931
4287+159314034+159140091+158360510+157093810+155919748+155390937+155363350
4277+155284816+155097746+155249875+155871146+156598946+157167778+157584783
4267+157835341+157939064+158077764+158215273+157937963+157150743+156500019
4257+156653268+157593008+158791140+159546225+159297123+158313453+157722275
4247+158179141+159045872+159447778+159456909+159661086+160202028+160739330
4237+160936401+160694174+160097897+159305117+158548522+158174026+158379517
4227+158941847+159544662+160168757+160760611+160931356+160487208+159890984
4217+159799554+160468077+161697810+162935342+163421999+162713544+161149318
4207+159646040+158966681+159086001+159333166+159330128+159486823+160191192
4197+160975553+161136652+160799034+160632676+160832430+160994915+160794007
4187+160338454+159977761+159992984+160344814+160653211+160651932+160629940
4177+161048224+161809616+162362318+162494498+162563706+162872849+163201693
4167+163138365+162652632+162079305+161630717+161272403+161055525+161119723
4157+161296740+161216625+160937467+160964805+161517597+162227651+162646841
4147+162615719+162107177+161185449+160206611+159689046+159892565+160675611
4137+161677702+162519936+163039634+163432800+163885741+164117682+163738799
4127+162959128+162358961+162068594+161801196+161577940+161735914+162244971
4117+162663201+162819221+163016630+163516840+164192503+164739752+164968337
4107+164771710+164011366+162756248+161614658+161320721+161795884+162131833
4097+161782366+161246006+161221617+161665196+162039799+162048645+161845498
4087+161750125+161905132+162162316+162259892+162043263+161552130+161019074
4077+160717001+160671099+160644933+160519361+160407840+160319376+160125076
4067+159984511+160318914+161187990+162121494+162679544+162825527+162703934
4057+162429643+162151249+162003490+161917708+161721188+161467876+161451835
4047+161858626+162534396+163120903+163384695+163398498+163361371+163289979
4037+163060932+162751558+162679704+163030965+163602586+163951680+163790473
4027+163334672+163232850+163926810+165042501+165663665+165349335+164654149
4017+164369147+164529607+164616703+164403377+164069987+163812216+163798982
4007+164129673+164541153+164653989+164587499+164760039+165151037+165346706
3997+165248205+165202464+165372943+165395627+164908100+164197833+163967401
3987+164475516+165244404+165653220+165595558+165505993+165825404+166517464
3977+167186288+167625142+167961056+168203940+168044936+167316337+166379723
3967+165880703+166256229+167468164+169052072+170446192+171310489+171499176
3957+171018150+170237787+169783549+170040556+170999054+172315155+173255748
3947+173309483+173082036+173496856+174164579+173826410+172421312+171225311
3937+171126491+172174058+174212896+176652735+178008929+177253666+175565058
3927+175120146+176458150+178095545+178706193+178785491+179470853+180663265
3917+180949102+179216813+176143873+173545937+172546404+173066954+174905027
3907+178533511+184232064+190660583+195169778+196129627+193828755+189319524
3897+184266099+181021277+181191045+183954380+185971955+184901474+183070809
3887+183899845+186979820+189305614+190284719+191378755+191626134+189395073
3878+186734306+186698743+189437297+193362420+197287613+199657568+198910406
3868+196670072+195913015+196487230+195844980+193152913+190213539+189052569
3858+191247232+198199339+208933925+215658709+210845096+200458911+192344253
3848+188803539+189580029+193330214+198100857+202561681+206564129+209520237
3838+209564824+206341336+202374238+199743847+198317575+197360071+196908711
3828+197084573+197849979+200219082+205396142+211416947+213571890+211635993
3818+209616445+207883517+204062046+199019955+196052106+196916687+201156477
3808+206323092+209777527+212238452+215895394+219405731+219466270+217135501
3798+215635865+214865041+213402886+211908010+211941796+213797810+217023252
3788+221444286+226708407+231846973+236530609+241911562+248913959+256624366
3778+263777560+271009766+280040201+291910177+306365371+321401955+334029841
3768+342942005+348598634+351342855+352457853+354345504+357611518+360245924
3758+361053714+362304676+367487474+378356034+393345723+407085657+415712215
3748+422515674+431671734+441973595+448820505+453111490+460435570+473395462
3738+490884266+509307375+524064002+532467553+535445900+536448773+539064633
3728+544909381+552670557+559427227+563719029+565734011+565397103+563154816
3718+561015736+561278072+565277198+572100446+576669932+573298472+564108625
3708+555775312+551812389+552192072+554813794+556754594+556811332+556249819
3698+556274759+557088625+558763750+561334312+564398885+567099585+568519338
3688+568576040+568111375+568007599+569072538+571804573+575833791+580607773
3678+585919466+590202244+591128483+590760844+592425026+593651581+589699422
3668+581709164+574238638+569014841+565279294+562059394+559808118+559775255
3658+561646386+563492541+565050354+568550957+575329868+583208179+586761505
3648+582880934+574944145+567798128+563853608+563124937+563916421+564378706
3638+564486461+565725059+568846049+573345368+578828197+584754623+588464732
3628+587242157+583446284+580984934+581425014+584994292+590553718+595231634
3618+597090295+597398887+598201952+600345971+604011066+608463666+611128519
3608+609586693+605171681+602037794+603040808+607615765+612385555+614625853
3598+615184418+616097477+617172328+617661045+619331339+624241108+630621718
3588+633523255+630627687+624932332+620480940+619454335+621711544+624871509
3578+626536899+626750704+626894378+627539132+628838447+631471040+635597994
3568+639327822+639768008+636187965+630622642+625713299+622844945+621514721
3558+620499201+619710915+619860202+620599034+620623477+620096603+620970794
3548+623886684+626463073+625907138+622555111+618945296+616542495+615056590
3538+613796000+612620819+611870974+611637487+611405350+610838614+610348617
3528+610051252+609136772+607496464+606615309+607421856+608497489+607658896
3518+604544691+600726116+597875312+596602359+596850910+598615778+601341027
3508+603336256+603275859+601518096+599000186+596245449+594166411+593969694
3498+595244637+595605739+593464030+590128879+588094499+588432757+590473568
3488+592595843+593094117+591420271+588670046+586426053+585293754+585023815
3478+585342853+585701255+585157079+583555780+581554299+579085701+575550600
3468+571719129+569439857+569269432+570258590+571906430+574412688+576907221
3458+577496304+575682692+573145348+571650134+571391209+571422047+570703005
3448+568734280+566122292+564259653+563557166+562931774+561610859+560344123
3438+560032511+560147336+559689776+558879392+558649387+558997699+558898044
3428+557737252+555907581+554100862+552895482+552699157+553243546+553438095
3418+552464640+550712029+549045999+547720642+546449466+545118105+544151826
3408+544067626+544546928+544250984+542144092+538960679+536464654+535349372
3398+534862253+534411408+534392757+535003404+535445545+534997613+534098020
3388+533788148+534506729+535812119+536944738+537301719+536629857+535235755
3378+533906384+533228518+533087473+533073120+532910759+532189336+530647368
3368+529140182+529079714+530482769+531602385+530993087+529200899+527946704
3358+528299209+529919835+531520245+531859925+530692062+528917637+527677903
3348+527205031+526847730+526395286+526591576+527670051+528253627+526910578
3338+524367692+522862282+523516131+525348040+526655632+526658332+525749395
3328+524656211+523769656+523176772+522807534+522332708+521467611+520719685
3318+521131414+522753781+524141168+523991881+522539052+520819304+519514945
3308+519035891+519699262+521150101+522285456+522206656+520965926+519284975
3298+517856056+516974190+516652275+516871586+517568460+518648818+520157212
3288+522013564+523575782+524126388+523753242+523083050+522583426+522511269
3278+522872833+523325028+523524551+523395266+522981370+522437656+521959419
3268+521337403+520096922+518372449+516826147+515759289+515295583+515935506
3258+517717356+519383670+519567028+518318234+516710185+515662974+515486473
3248+515825370+515924208+515268227+513814332+511784855+509757260+508618175
3238+508697757+509299417+509555144+509112257+507897427+506259144+505289774
3228+505803219+507031478+507329306+506185638+504653973+503703006+503092216
3218+502268865+501453649+500947239+500175367+498512037+496459786+495101283
3208+494850991+495232237+495427710+494858274+493592888+492262523+491535806
3198+491669497+492184327+491999370+490523022+488542253+487349663+487179166
3188+487088962+486161266+484323673+482159440+480389065+479500591+479433515
3178+479510823+478963556+477610560+475896177+474397659+473402958+472813307
3168+472402892+472047368+471590412+470804933+469685139+468440431+467152201
3158+465823505+464608639+463686699+463219795+463415020+464004706+463954825
3148+462603854+460673428+459262627+458402363+457317209+455650539+453877180
3138+452669349+452198999+452147733+452203653+452231578+452024452+451308714
3128+450085748+448758544+447820474+447426118+447322093+447148186+446622165
3118+445589236+444271980+443229494+442697540+442351786+441956826+441666352
3108+441529713+441283791+440612107+439306788+437511153+435892908+435099648
3098+435113078+435475033+435806150+435827395+435295547+434231390+433037663
3088+432311124+432450606+433181230+433579885+432955417+431563731+430136197
3078+429037649+428260412+427876892+427983901+428317434+428301340+427559986
3068+426259748+424884298+423750186+422849776+422133078+421731616+421774569
3058+422060175+422052892+421391226+420410914+419812452+419673184+419256836
3048+418060090+416505972+415292314+414605211+414172982+413677763+413042459
3038+412477749+412155229+411920960+411567106+411155945+410793244+410308470
3028+409391326+407992961+406558286+405724773+405569554+405388221+404500706
3018+403042086+401734067+401063627+400809285+400328241+399353436+398366089
3008+397974397+398099881+398101408+397620898+396943316+396446960+396004820
2998+395209783+394072368+393113053+392734364+392852316+393138242+393240170
2988+392775718+391563944+389998954+388826508+388352961+388098584+387404766
2978+386234559+385159956+384658058+384626261+384544299+384004670+383072462
2968+382123983+381386537+380769387+380184603+379797211+379720400+379670270
2958+379267352+378532535+377741443+377006164+376348336+375893298+375616041
2948+375149564+374187016+372914702+371795299+371067836+370674262+370513926
2938+370461878+370241501+369630142+368729554+367816211+367123743+366861052
2928+367029310+367130173+366510999+365127306+363644172+362708518+362281050
2918+361767499+360832306+359878604+359480766+359618791+359810178+359761505
2908+359555801+359328353+359047614+358619365+358029181+357308859+356514427
2898+355844590+355542499+355482067+355139154+354249118+353228126+352658513
2888+352541485+352297801+351449403+350148347+349014414+348559305+348773537
2878+349186509+349334091+349139577+348755950+348219875+347542719+346948982
2868+346627493+346365300+345784637+344882628+344048085+343521140+343098006
2858+342524662+341968691+341793221+341937072+341875218+341253805+340279248
2848+339391201+338802971+338471854+338281142+338067017+337671986+337160389
2838+336770616+336522492+336158618+335578701+334993704+334549539+334108037
2828+333477601+332653006+331794446+331092670+330662431+330495416+330458894
2818+330337602+329973480+329417438+328887260+328567263+328453504+328329726
2808+327914338+327145734+326261168+325489403+324809547+324129336+323495027
2798+322992916+322638919+322441990+322367772+322213334+321732006+320895474
2788+319897185+318971691+318295531+317893074+317548386+316993161+316226653
2778+315485015+314930963+314531242+314185061+313837886+313461507+312986290
2768+312329065+311522234+310722721+310050540+309526792+309147109+308848784
2758+308459437+307858062+307116566+306348708+305540598+304657276+303808522
2748+303176806+302800463+302513471+302131585+301642122+301156708+300718156
2738+300240168+299634565+298913995+298158572+297480528+297042455+296948147
2728+297037535+296976356+296642290+296214272+295826684+295384135+294759879
2718+293967543+293132343+292404153+291836528+291329159+290792231+290301062
2708+289965398+289770209+289668458+289673698+289725888+289610033+289166365
2698+288488339+287784377+287134400+286511034+285947673+285521626+285209232
2688+284890514+284503459+284114112+283819891+283622944+283416777+283089444
2678+282639718+282191023+281854026+281557761+281117575+280506962+279917879
2668+279522138+279353524+279396725+279551324+279555960+279207488+278617517
2658+278068474+277697530+277445604+277205207+276902885+276500375+276005796
2648+275487982+275043816+274736236+274553855+274417660+274233680+273955837
2638+273596831+273192403+272789911+272449361+272199727+272003259+271804074
2628+271587480+271356338+271070341+270668257+270185633+269784207+269577312
2618+269486273+269367166+269187273+268990574+268807696+268655212+268506102
2608+268272597+267931195+267599492+267376468+267199665+266973496+266765429
2598+266740169+266902245+267011511+266805948+266268718+265659988+265313523
2588+265366584+265644214+265842387+265805811+265564401+265198378+264809440
2578+264545595+264500191+264598975+264675821+264656832+264600574+264536713
2568+264363516+264000975+263572779+263315790+263357233+263668135+264134914
2558+264552043+264656849+264352112+263847442+263437721+263202581+263037236
2548+262855051+262601863+262186297+261577976+260929030+260472181+260295129
2538+260266742+260210680+260100669+260005277+259911875+259758520+259569709
2528+259404950+259259145+259140021+259145137+259347644+259658688+259853272
2518+259747756+259376190+258961246+258708343+258689460+258862391+259067687
2508+259082182+258828408+258459899+258143401+257873001+257579383+257298893
2498+257136496+257122037+257155930+257084857+256850517+256580632+256467033
2488+256523219+256557894+256423938+256164675+255886281+255651284+255513135
2478+255466203+255337895+254919665+254254109+253642128+253323766+253265501
2468+253308773+253404858+253584538+253764272+253738639+253396189+252863968
2458+252410192+252215963+252225537+252232998+252131478+252004964+251931351
2448+251824325+251582701+251305746+251221084+251409327+251693849+251831164
2438+251749361+251553000+251365131+251250607+251228047+251248742+251210941
2428+251076434+250915636+250796299+250723503+250703767+250750468+250807650
2418+250789246+250705970+250643459+250621911+250607718+250657261+250878296
2408+251208951+251411530+251369998+251243466+251233892+251350849+251498004
2398+251645976+251814679+252042020+252534237+253767274+256319025+260655272
2388+267151791+276237827+288398578+304010567+323173112+345675177+371116261
2378+399049533+428918987+459765805+490188103+518890832+544972620+567331900
2368+584681010+596736937+604289674+607930184+607897002+604605869+597847316
2358+586248131+568781638+545494307+517365313+488539268+466183506+455700384
2348+458513280+472844962+493478561+512627000+525215806+531508699+533674247
2338+533441577+531955103+529891306+527769564+526080050+524877548+523377574
2328+520379828+515258706+508140578+499278366+489011714+478089187+467178775
2318+456320980+445397600+434669374+424390855+414304079+403960296+393295877
2308+382550598+371881240+361395525+351349144+341989546+333314778+325196727
2298+317649177+310800598+304648572+298988745+293599282+288386250+283356203
2288+278629472+274508149+271289048+268915149+267001723+265256431+263684087
2278+262354094+261193888+260100082+259088772+258220318+257459549+256712652
2268+255967817+255320966+254867475+254594232+254357565+253981719+253419442
2258+252778737+252168906+251612527+251134237+250784948+250510000+250142751
2248+249621739+249101580+248771920+248653879+248618902+248513847+248239894
2238+247820917+247437415+247293777+247410414+247615035+247751248+247813847
2228+247861312+247890676+247869963+247844703+247920075+248125780+248347880
2218+248430571+248346566+248256503+248370671+248731898+249176650+249538072
2208+249823305+250145220+250557766+251026624+251502978+251978887+252496364
2198+253075393+253607418+253926136+254037906+254154862+254452264+254912790
2188+255409892+255830201+256136040+256383863+256652060+256931698+257138237
2178+257220199+257217073+257214071+257248550+257276493+257262104+257255638
2168+257301469+257313353+257153550+256814421+256419461+256062889+255760904
2158+255541930+255453893+255482457+255566178+255688126+255909232+256331903
2148+257006394+257893927+259058627+260819551+263456426+266854159+270696271
2138+274869411+279466750+284557319+290084575+295893316+301883922+308174648
2128+314959775+322236178+329847180+337695434+345721718+353744981+361474645
2118+368704045+375374916+381335199+386234310+389892478+392514022+394329623
2108+395339175+395484127+394792654+393390381+391467309+389128066+386402000
2098+383472325+380574163+377660795+374499338+370972694+367035883+362586445
2088+357550873+351924086+345642207+338562485+330715118+322541360+314670048
2078+307450489+300903326+295019266+289853734+285437213+281754211+278735859
2068+276290336+274373553+272890525+271605226+270352613+269186491+268196515
2058+267385332+266717289+266121491+265569535+265178501+265054545+265145229
2048+265392235+265845229+266597188+267746896+269313253+271196215+273446833
2038+276388481+280196735+284626207+289315900+294064143+298750745+303259124
2028+307499766+311429471+315059644+318384030+321317151+323779247+325675674
2018+326729919+326630655+325401792+323378674+320872026+318029962+314892842
2008+311449012+307706643+303761839+299792130+295987855+292453944+289132294
1998+285903796+282890365+280518526+279009741+277913396+276517340+274652799
1988+272693631+270989924+269682722+268774140+268121481+267582865+267197018
1978+267029843+266980353+266895424+266730114+266594133+266755712+267387943
1968+268148553+268333083+267694564+266777153+266242907+266242285+266555283
1958+266986641+267424074+267752101+267925191+268034314+268221811+268593873
1948+269257297+270392848+272062164+273709009+274216983+273125575+271387389
1938+270247877+270028761+270338473+270811487+271309335+271761245+272133166
1928+272605558+273647760+275489101+277497066+278831197+279718996+280883448
1918+281913357+281749397+280682131+280181707+281011276+282612060+283958129
1908+284563696+284730729+285017206+285640217+286440458+287238230+288063198
1898+289052747+290113761+290868953+291310223+292092061+293444702+294368277
1888+293904020+292564009+291401476+290693198+290224998+289909033+289707485
1878+289512368+289272290+289118225+289582357+291496654+294955636+298187065
1868+298539605+295676082+292022675+289638775+288697116+288456826+288389377
1858+288326635+288234228+288155978+288185111+288464819+289187361+290540376
1848+292803820+296127673+299422963+300218496+297744125+294468589+292715534
1838+292564293+292916904+293323464+294654327+297830457+301913837+304333371
1828+304153601+303041695+302005036+300428322+298359054+297019078+296995346
1818+297638359+298191079+298787730+300085161+302102488+303814207+304241959
1808+303658312+303204127+303875385+306056778+309194432+311789472+312628136
1798+312295278+312737597+315406677+319755892+322775736+321683334+317969032
1788+315304606+315203175+316724679+318560708+320339041+321902255+322850272
1778+323576669+325602700+330185687+336581645+341414639+341707528+338640965
1768+334998678+332312367+331680261+333655665+336818756+338785349+339417101
1758+340160267+341135570+342143771+344584977+349716687+355995405+359845244
1748+359930510+358306864+357340301+358100165+360441610+363030220+364322855
1738+365158499+368493295+375069520+380217146+379003667+374076276+369608754
1728+366696808+365580922+366247313+367957610+370670176+375961796+384865255
1718+394720000+399461155+396938840+391414799+386899706+384964732+386176542
1708+390400416+396086036+401050908+405503259+411872998+420196292+426082323
1698+426973710+424726982+420111488+414547478+411614002+412787727+416676575
1688+422299134+430849875+441819689+448209714+445021932+438441443+434929187
1678+436123837+440905209+446354535+450254362+453842398+458547955+461929363
1668+461120791+458965972+460072230+464854988+469750403+471914814+473061893
1658+476816057+485622632+500244645+516430760+522594653+519132988+518202556
1648+522552339+526313324+524153958+519413194+517442941+519755928+526182476
1638+536181819+547052475+552755966+551204121+548531986+549871020+555587407
1628+563563028+572126843+581311148+590670355+598304272+604356252+612060123
1618+623220542+634333142+639796359+640621309+641556964+644312767+647868011
1608+650876842+653081754+655163315+657600364+660056172+662119685+664136017
1598+666765129+670152612+673908516+677638201+681232668+684613757+687571854
1588+690187678+692948881+696027843+698946718+701391583+704076473+708444375
1578+715161645+722166830+725839245+727306250+731424748+739966004+750149415
1568+758110932+763991456+770660621+780388853+795240943+817614008+844867851
1558+861147652+859877825+855137025+854064448+855442989+856994336+857823123
1548+858723392+861437983+866567525+872632367+877183591+876271670+865896623
1538+851421267+841853123+838420804+837130087+834271183+830846964+830014908
1528+831906467+833979288+835246557+837624417+841388493+842979844+840520767
1518+836608826+833121439+829992241+827994668+829064616+834698864+844856269
1508+855814536+857650388+845976595+832529692+825728080+825264516+828291039
1498+831304417+831092602+827795287+825185716+825931511+828942899+830573402
1488+828563322+824517868+821107150+819348109+818719555+818541633+819209551
1478+821768887+826509473+832368184+836803233+836562143+831687333+826735215
1468+825260750+827041534+829257247+829569961+829433606+832240355+838990026
1458+845648178+844658238+836169208+828343904+824864617+824683995+825692055
1448+826040012+824895598+822799826+820709170+819260071+819326721+821856356
1438+825909483+827706966+825089791+821518133+820398872+820910256+820647707
1428+819422930+818812637+819074546+819332690+819975952+822116773+824364958
1418+823080281+818010851+812824393+809840219+808708239+808027531+806992399
1408+805954994+805417107+805049112+804537444+804604662+805877118+807843782
1398+809859191+811766240+812642847+811177264+808480579+807549117+809372818
1388+811525008+810879116+807989943+806552213+808616365+813094687+818160564
1378+823381696+829040600+834301310+837376790+837896416+837580647+837960295
1368+839264370+841479941+844645519+847759014+849033672+848113792+846607920
1358+845932257+846048503+846109326+845600927+844881422+844586117+844862806
1348+845563836+846686862+848194795+849891450+851675005+853389779+854626210
1338+855287378+855921474+856966909+858283205+859636451+861039506+862517311
1328+864059350+865936414+868606169+872042680+875471802+878112780+879989701
1318+881710728+883774170+886380686+889467535+892671554+895720673+898800203
1308+902063837+905134912+907413153+908688025+909441280+910466748+911927713
1298+913176934+913927702+914660494+915302691+914901229+913073904+910375869
1288+907390060+904727410+903262822+903206262+903591523+903429446+902660913
1278+901648591+900608130+899690311+898932934+898119992+897249069+896980978
1268+897866822+899389392+900702207+901925990+903591665+905401724+906781686
1258+907997155+909499616+910811863+911185329+910831972+910577452+910723044
1248+911069367+911784182+913171818+914529966+914457774+912600250+910127744
1238+908395277+907640316+906907951+905271267+903159650+901767892+901144454
1228+900180023+898631163+897748302+898565437+900569405+902210211+902339886
1218+901336872+900813764+901881865+904014869+906083498+907902652+909889567
1208+911887780+913497677+914950328+916514821+917776973+918576841+919903441
1198+922776840+926678692+929848746+931223663+931716147+933134265+936109273
1188+939663381+942608120+944592335+945984518+947658080+950474849+954145629
1178+957049155+957808238+956850485+955998676+956611740+958422723+960266249
1168+961818022+963709013+965850189+967130389+967201373+967507905+969790836
1158+973944863+977891124+979654997+979172390+977759529+976634940+976418292
1148+977268325+979015785+981490778+984570805+987724446+990399530+993025374
1138+996334199+999354540+999931650+998136797+996934260+998332127+1000966142
1128+1002525092+1003222783+1005466562+1010311387+1015582613+1018224728
1120+1017955642+1017190733+1017536772+1017907395+1016697824+1014621237
1111+1013711447+1014158028+1014296515+1013737950+1014244076+1016988297
1103+1021220981+1025781940+1029722233+1032118355+1033690024+1036902569
1094+1042092935+1045476226+1043896172+1039538786+1036402980+1034945639
1085+1033368428+1031775016+1031735510+1033248842+1035145802+1037415658
1077+1040199315+1042077587+1042491909+1043663893+1047538815+1052546711
1068+1054881796+1052692303+1048370800+1046082824+1047368211+1050414701
1060+1053481441+1056762981+1060168442+1062045363+1061394143+1059649242
1051+1058829834+1059133239+1060493519+1064232441+1070013488+1073741823
1043+1072156796+1067481083+1063480606+1060094686+1055935473+1053147979
1034+1055370229+1062079825+1067971505+1068168328+1062389270+1054019258
1025+1047646748+1046684448+1050864267+1055680385+1056660804+1054761074
1017+1054386400+1057319770+1061082140+1062440572+1060686149+1057464367
1008+1055186836+1055277147+1056716653+1057210487+1056197809+1054823318
1000+1053387791+1051715366+1051059313+1052417675+1053926460+1052735362
991+1048460969+1042992138+1038572223+1036969787+1038276065+1040229798
983+1040495828+1038816298+1036238488+1033721288+1031987755+1031285944
974+1030846894+1029335835+1026284940+1022885733+1020903436+1020467370
965+1019381861+1015722947+1010731749+1007462572+1007223969+1008662481
957+1009403089+1007881016+1004358812+1000464706+997392068+994871031+992193247
947+989372783+986686899+983968044+980873948+977457048+974334103+972193708
937+971317243+971870194+973860591+976200864+976766747+974457383+970595536
927+967715386+967416244+969132866+970617918+970168423+968272530+966584686
917+966144286+966737952+967109712+966258827+964868704+964545119+965610662
907+966613676+966256553+964619229+962296294+959801690+957865721+957350074
897+958333193+959973999+961677972+963344642+964222173+963009262+959683383
887+956140786+954570254+955412400+956936959+957001620+954903432+951616563
877+948709270+947172489+947026258+947447047+947577788+947393329+947406971
867+947717767+947724019+946747153+944909951+943327198+943328548+945298197
857+948237819+950485791+950779178+949104195+946724700+944956777+943873541
847+942825975+942083875+942530314+943988934+945250732+945465603+944383504
837+942147327+940227346+940931573+944421305+947837424+948494897+946345692
827+942913017+939878465+938673867+939623022+941676302+944073490+947035353
817+950152258+952113949+952620714+952759982+953288846+954082034+954788394
807+954747466+953391378+951459460+950171941+949458334+948290116+946667145
797+946086909+947533805+949928506+951359343+951917055+953596728+956707807
787+958897513+958555383+956477233+953673681+950777473+949721593+952285405
777+956600726+958251053+955500082+951432743+950070971+952220389+955568650
767+957731782+958905471+960861193+963644637+964905084+962822529+958309034
757+954034499+951913360+952236732+954430773+957319023+959283982+959292722
747+958224976+958350033+960481119+962675942+963150946+963264492+965331557
737+968859161+971376716+971819887+970522918+967288132+962227015+957435767
727+955918384+959134695+965531080+970904768+971715365+968644504+965300932
717+964224589+965282032+966658512+966200562+963071861+958948247+956342796
707+955981268+957049937+958952439+961036344+961961980+961344084+960487941
697+959407973+955893799+950482807+947258964+947141154+945836724+940917504
687+936578806+937233437+940488331+940476891+936328834+932330845+929690222
677+925497755+919974922+917163625+918574496+921495360+923182494+923911378
667+925610164+927922157+928562150+926198643+921595335+916588221+911445817
657+905297557+898805106+894078659+891851293+890917842+890171692+889195323
647+887428536+884995324+883128918+882347098+882174932+881984220+881951250
637+883197273+886240921+890334621+893548943+891678203+881793436+868682411
627+860705333+861877814+869935966+877687728+876757189+865797074+853756068
617+849775346+853113090+856673593+857843587+859432451+862761385+866047118
607+868622369+872834235+879744206+886526633+891208031+894181547
##END=
