##TITLE=<SNM>
##JCAMP-DX=4.24
##DATA TYPE=INFRARED SPECTRUM
##DATE=2/5/2025
##SAMPLING PROCEDURE=Instrument type and / or accessory
##ORIGIN=Admin
##XUNITS=1/CM
##YUNITS=ABSORBANCE
##RESOLUTION=4
##FIRSTX=4497.3318
##LASTX=599.83466
##DELTAX=-1.4281778
##MAXY=1.8286831
##MINY=0.31229991
##XFACTOR=1
##YFACTOR=1.7030939e-09
##NPOINTS=2730
##FIRSTY=0.33349463
##XYDATA=(X++(Y..Y))
4497+195816940+195692995+195213384+194860851+195231268+196124676+196607839
4487+196075994+195127394+195140029+196722772+198825513+199839576+199321433
4477+198056103+196817879+195759683+194799184+193984662+193415631+193135001
4467+193138781+193315415+193512908+193800118+194289021+194665213+194553062
4457+194333030+194761194+195764478+196307820+195532512+193743981+192247228
4447+192123458+193072145+193710733+193091446+191637705+190614857+190944852
4437+192390212+193775549+194243523+194108064+194132790+194439354+194635762
4427+194596459+194522701+194429449+194048970+193173446+191833291+190305354
4417+189146347+188915431+189593357+190498367+190951712+190859248+190609905
4407+190567838+190695493+190683313+190490475+190549166+191137271+191726477
4397+191420036+190074543+188578577+187913687+188304841+189346062+190497020
4387+191227373+191036267+189765582+187993150+186839533+186974922+187792017
4377+188041937+187347370+186449237+185995857+185948645+186202467+186919451
4367+188041710+189065450+189524062+189361077+188776787+188133019+187941861
4357+188327292+188650690+188334694+187679079+187236479+187076749+187192732
4347+187684556+188198990+188168717+187698993+187389927+187419693+187481779
4337+187365778+187082786+186689077+186244954+185733198+185065421+184406377
4327+184262536+184881945+185749840+186064313+185572541+184643155+183779425
4317+183372102+183576612+184060353+184199399+183851118+183651438+184240714
4307+185372423+186155430+186176936+185932651+185984553+186227718+186260546
4297+185962592+185484381+185105424+185141069+185611406+186130651+186421099
4287+186617349+186838326+186867619+186502486+185884634+185295865+184903434
4277+184820559+185132267+185740128+186414747+187035504+187598392+188057056
4267+188298366+188184431+187590482+186578764+185475141+184579091+183912434
4257+183462362+183528123+184440202+185863460+186826339+186797256+186290137
4247+185977886+185830947+185667105+185817771+186605065+187724699+188608080
4237+188942450+188661644+187931816+187261747+187171365+187602224+187944013
4227+187791930+187434829+187338988+187438959+187403646+187318496+187503530
4217+187861628+188008514+187862713+187663645+187559124+187440376+187108352
4207+186590348+186272463+186453069+186852745+186988099+186868249+186890437
4197+187268834+187843762+188277840+188364792+188244802+188233095+188387086
4187+188435436+188185078+187810111+187660723+187881419+188301359+188699809
4177+189062125+189544290+190265036+191081676+191570982+191460738+191051771
4167+190848766+190865180+190722126+190290935+189814806+189522959+189386765
4157+189139855+188577107+188016354+188155103+189126958+190095752+190243040
4147+189737356+189230482+188919579+188669011+188579662+188821620+189190269
4137+189332711+189225267+189070437+188925126+188783664+188869392+189444599
4127+190343834+190960111+190689473+189394097+187670697+186569227+186641025
4117+187382105+188009442+188470573+189152664+189958210+190299404+189826181
4107+188756891+187666270+187157209+187481534+188305051+188988559+189207488
4097+189174975+189216045+189339605+189304048+188921521+188224783+187454743
4087+186923405+186833723+187191822+187809586+188383114+188680473+188683780
4077+188536632+188367015+188129747+187682002+187131975+186901427+187191034
4067+187681442+188017999+188205412+188335972+188359665+188243000+188040747
4057+187828223+187727201+187863938+188216909+188602200+188836266+188907154
4047+188959301+189039009+188945827+188554411+188189068+188303074+188832311
4037+189221085+189161851+189017083+189293268+189898451+190282885+190278178
4027+190326353+190769793+191378108+191755350+191792850+191563160+191202104
4017+190984855+191094136+191275512+191048096+190249795+189213281+188522440
4007+188627801+189485774+190622137+191647102+192470042+193020138+193168686
3997+192934131+192462430+191950043+191733284+192037066+192457180+192288508
3987+191578471+191142293+191344073+191632490+191506148+191280149+191603250
3977+192611415+193753938+194299590+194012957+193376364+193084622+193387581
3967+194042338+194828040+195811672+196951028+197749329+197714069+197013149
3957+196236652+195702077+195465964+195847265+197329635+199682174+201596802
3947+201948180+201250445+200804100+200730709+200074010+198637137+197376164
3937+197126262+198064992+199978903+202150800+203353449+202934717+201746015
3927+201191036+201665082+202328747+202497612+202845893+204374039+206580515
3917+207511073+205979444+203013602+200417689+199058984+199046892+200697689
3907+204595558+210593982+216961020+221159766+222115348+220522263+217064947
3897+212552672+209026095+208531838+210748882+212440662+211192725+209451739
3887+210738418+214419843+216952831+217425617+217560446+216919723+214216558
3878+211477398+211571735+214468805+218461729+222416557+224864133+224164298
3868+221876313+221072289+221605324+220643933+217231396+213645043+212495643
3858+215339657+223002159+234128224+241187748+236734777+226235016+217432932
3848+213082067+213376977+217115483+222360141+227814785+233118693+237151777
3838+237678057+234562338+230641160+227761186+225393615+223006796+221453923
3828+221452051+222873472+226403269+233146814+240657145+242932969+239566577
3818+236041330+233579020+229355426+223703429+220218586+221202306+226245183
3808+232099608+235337488+237276544+241170494+245572700+246125754+243614692
3798+241537342+239557425+236318723+233382577+232988431+235103895+238480908
3788+242654736+247651713+252892713+258064644+264185840+271926562+279840734
3778+286355236+292558747+300811978+312348883+326744344+341608810+353458946
3768+360906142+365000541+366850738+367954501+370207138+373451860+375173300
3758+374386513+374118044+378507756+389373087+403990329+415352070+420701249
3748+425891326+435232536+445592393+450620291+452004526+457046913+469126005
3738+487228789+506931606+521588955+527474826+528062790+529661912+535386757
3728+544895746+556107136+566176091+572921369+575667336+575106076+573413579
3718+573114697+575361805+579895673+585073432+587278052+583673447+576172006
3708+568595213+563227066+560976949+560952940+560631100+559167874+558871932
3698+561637393+566814907+572693533+578520747+584377534+589031095+589249272
3688+584414247+579101677+577294772+579214125+582758568+586036678+589523865
3678+594569857+598758331+596914293+590855743+586586249+584638793+581295343
3668+575374369+569819334+567274919+567627523+568784762+569678082+571419226
3658+574331258+576394942+577346604+581006470+590479446+602866590+607978867
3648+599400261+584284615+571710268+564955821+563505894+565270592+568055546
3638+570785450+573333469+575573612+577796781+581210543+585952228+588317978
3628+584540274+578628890+576640417+580147518+587284632+594150652+597016277
3618+596464501+596405424+598124659+599759060+600032323+599381153+597729394
3608+594694029+591848493+591338714+593353051+596737554+600795486+605666489
3598+611297855+616430781+618924589+618232891+617198634+619179093+623798461
3588+626547053+623988149+618757929+615011968+613743505+613969241+614593673
3578+615180797+615870605+616523875+616489717+616079542+617118979+620537850
3568+624130661+624573874+621966253+619396570+618727971+619138006+618737490
3558+616783839+614231165+612616294+612770635+614106083+615240014+615535396
3548+615420953+615123961+613906035+611201680+608074622+606442181+606709565
3538+607122190+606242203+604915365+604473762+604832000+605314550+605356898
3528+604245925+602116796+600398960+599856494+599707893+598967688+597207015
3518+594371139+591270188+589694164+590802967+593746637+596334239+596731325
3508+594922915+592757247+591860322+591834004+591090439+588979858+586104749
3498+583367111+581504945+580713818+580549083+580481397+580368389+580240157
3488+579843211+578846437+577455797+576285049+575508831+574663983+573448122
3478+572191314+571420346+571303278+571537974+571641567+571243607+570210120
3468+568665384+567021955+565764446+564970940+564301011+563391556+562160961
3458+561032245+560717055+561290355+561662242+560739173+558781288+556753582
3448+555138081+554029103+553540498+553474247+553206059+552449125+551588142
3438+550917688+550219691+549344219+548399557+547327888+546139955+545259654
3428+544811541+544151062+543038270+542369916+542690846+543055979+542336948
3418+540773103+539516820+539280094+539638367+539366854+537628090+534939519
3408+532839228+532530232+533765551+534979697+534712978+533010017+531030678
3398+529517861+528302455+527103463+526101579+525645592+525836366+526511159
3388+527494249+528713295+530023755+530748176+529794869+526960217+523703246
3378+521841955+521845629+522766458+523329714+522828789+521387262+519723429
3368+518714371+519030541+520523865+521882097+521836215+520703019+519683392
3358+519132525+518653824+518231365+518221111+518644480+519133400+519387380
3348+519417128+519398824+519436797+519600867+520029275+520612095+520696230
3338+519732494+518171799+517034368+516651352+516405772+515739622+514791390
3328+514012653+513634851+513517433+513386681+513082130+512454443+511303643
3318+509783266+508590539+508336350+508965926+509975300+510787390+510857736
3308+510001933+508733785+507831786+507574446+507669745+507774004+507852994
3298+508000650+508210497+508576855+509358217+510320414+510438006+509187078
3288+507599120+506924816+506981757+507007866+507442189+509375541+512394877
3278+514454571+514376281+513188278+512270319+511571797+510327133+508328650
3268+506074088+504451657+504257244+505427502+506924396+507657251+507195489
3258+505733384+503926129+502542419+501894783+501745587+501725289+501583512
3248+501313504+501299190+501897863+502786739+503199364+502757236+501657778
3238+500281312+498995350+498056078+497470739+497052619+496546655+495710766
3228+494624537+493861969+493829001+493975082+493262491+491502553+489608749
3218+488366395+487637529+487001688+486466466+486133461+485790797+485291658
3208+484790103+484268110+483366915+481982645+480676910+480198419+480516724
3198+480568766+479533249+478028726+477090014+476562211+475644182+474344466
3188+473295405+472749999+472485940+472226781+471799842+471136247+470227983
3178+469069729+467778238+466624323+465718543+464850141+463832264+462785932
3168+461882638+460953479+459596227+457781623+456154328+455418778+455477014
3158+455484854+454843448+453805586+452924200+452303723+451680551+450880675
3148+449837809+448410036+446552559+444607483+443198504+442730688+442989987
3138+443343605+443316132+442794069+441830683+440626721+439472632+438387208
3128+437190421+436025062+435261829+434911920+434671310+434406831+434160201
3118+433868844+433416007+432835742+432261287+431725575+431093024+430190639
3108+428985837+427655324+426590654+426217647+426505329+426791191+426487620
3098+425792772+425265565+424957269+424479128+423692866+422865026+422321860
3088+422241329+422540981+422803570+422567790+421734910+420515865+419187311
3078+418092998+417530932+417380931+417126882+416421535+415407752+414439641
3068+413708956+413169114+412677324+412155926+411622348+411077501+410431686
3058+409668243+409048465+408872321+408945467+408676893+407861093+406889307
3048+406092021+405442986+404965930+404804975+404788281+404412719+403370132
3038+401868724+400480114+399747189+399750688+399976250+399795766+399109528
3028+398279098+397532909+396824657+396141394+395491694+394718346+393741031
3018+392821392+392256806+392035410+391969929+391880334+391550899+390768277
3008+389526448+388141723+387051819+386374786+385793576+385034123+384192844
2998+383455369+382856591+382391854+382001873+381497379+380792907+380040523
2988+379355474+378667626+377948735+377352792+377035151+376933797+376809730
2978+376511863+376066095+375429834+374451119+373234243+372167929+371429369
2968+370835385+370258060+369801058+369515406+369267376+368916592+368444681
2958+367945716+367587373+367484970+367528822+367413014+366886121+365934319
2948+364771655+363729419+363063025+362748534+362515168+362125292+361511605
2938+360642923+359495763+358268073+357414160+357250650+357547677+357695893
2928+357326070+356609769+355906452+355269316+354436857+353320180+352323091
2918+351948509+352154751+352398896+352299397+351933915+351505821+351069397
2908+350626185+350212825+349807165+349302740+348638866+347883647+347175920
2898+346635168+346288620+346011751+345559894+344740419+343614783+342550288
2888+342002431+342102245+342458629+342547873+342296133+342046739+341957354
2878+341738793+341140259+340444887+340140965+340180303+339992784+339271443
2868+338287233+337387998+336677472+336211615+336046250+336042016+335927538
2858+335566045+335001424+334303742+333521050+332779690+332302634+332215874
2848+332359016+332412737+332230153+331921542+331602047+331190787+330554281
2838+329783873+329157376+328819857+328661281+328502811+328255271+327903228
2828+327469849+327009172+326552170+326076199+325562361+325024829+324435150
2818+323703939+322877045+322242954+321986069+321828684+321339484+320518189
2808+319751631+319312968+319203284+319313947+319445469+319322067+318851416
2798+318242943+317700686+317151220+316414620+315500685+314618879+313984298
2788+313633165+313352132+312853202+312105683+311392426+310959468+310726557
2778+310405907+309816823+309040220+308307680+307778617+307427764+307100849
2768+306637547+305990191+305254571+304568403+304012392+303591858+303210171
2758+302698013+302011810+301339361+300869724+300527690+300051789+299307735
2748+298466666+297852489+297598159+297495650+297229597+296698224+296035645
2738+295382200+294753183+294143345+293631431+293296537+293115703+293000910
2728+292863018+292623616+292252306+291778312+291211644+290525546+289762348
2718+289073887+288607978+288358689+288134580+287732454+287161237+286612225
2708+286216469+285928630+285623011+285218558+284742325+284303784+283971164
2698+283690026+283375746+283043948+282761078+282477420+282032878+281392242
2688+280775212+280466286+280535337+280753881+280746829+280296564+279545037
2678+278816872+278289594+277958934+277783017+277675591+277500217+277232553
2668+277004420+276894124+276789340+276523829+276086566+275645033+275357578
2658+275205582+275052292+274815356+274510350+274172690+273807120+273404190
2648+272992982+272665647+272488891+272395919+272256767+272042108+271798190
2638+271497559+271081714+270637941+270349296+270248555+270171105+269957478
2628+269564014+269023017+268449647+268024966+267814734+267680762+267498196
2618+267336330+267310887+267403019+267524426+267625308+267660708+267557289
2608+267280841+266897440+266542369+266316598+266201980+266086032+265877007
2598+265587470+265320191+265167548+265104464+265014485+264832846+264599655
2588+264381006+264215151+264126152+264133589+264231338+264342771+264348055
2578+264241049+264173591+264221451+264234872+264046986+263699335+263387574
2568+263286570+263411408+263578627+263593799+263497887+263500285+263686753
2558+263914677+263969834+263777555+263499217+263394329+263522806+263626085
2548+263392001+262809777+262158939+261658837+261295437+261017081+260866451
2538+260820323+260713405+260433230+260042863+259665464+259374212+259199135
2528+259141231+259161477+259190718+259176894+259127144+259078427+259025493
2518+258925977+258775398+258618905+258494453+258395969+258276434+258103124
2508+257929325+257862619+257924583+257996328+257932212+257678443+257280167
2498+256867227+256641246+256727201+256975581+257056583+256827802+256486941
2488+256318986+256414828+256650171+256818825+256766084+256477509+256084500
2478+255767787+255617909+255569279+255488994+255331364+255152595+254978410
2468+254755509+254456295+254142906+253896784+253730894+253581331+253378536
2458+253148985+253007681+252981677+252922828+252719403+252477288+252326482
2448+252200560+251999935+251817806+251802494+251911128+251942923+251736733
2438+251285821+250760311+250439380+250494047+250772315+250897660+250661774
2428+250234555+249914482+249800494+249815141+249907448+250081335+250294682
2418+250450859+250495867+250498282+250598025+250831829+251046506+251067802
2408+250923541+250792526+250752646+250712241+250613565+250574052+250753503
2398+251170853+251737976+252453385+253541836+255429883+258630665+263692895
2388+271220323+281796327+295850786+313661303+335354343+360657377+388701198
2378+418389570+449004229+480056572+510541880+538957379+564134036+585509820
2368+602803874+615989458+625042425+629583817+629567648+625718094+618461567
2358+606897993+589418731+565189711+535679619+506100511+483575782+472845263
2348+475113369+488854405+509012613+527391041+538430976+542775471+543563553
2338+543287175+543235098+543540384+543854700+543944819+543399623+541390220
2328+537366306+531671839+524984588+517477056+508973101+499547547+489499311
2318+479095426+468635090+458437518+448564516+438656832+428163528+416797797
2308+404778341+392654032+380981370+370132103+360206219+351040559+342375789
2298+334056272+326091318+318610665+311771488+305595381+299880545+294376466
2288+289068340+284217339+280085946+276677365+273792841+271285384+269143095
2278+267342980+265780938+264385206+263168190+262134983+261240228+260431532
2268+259664414+258909493+258179927+257502316+256867962+256260767+255689322
2258+255156409+254652983+254191466+253798877+253471035+253126569+252623439
2248+251908153+251138357+250538967+250159747+249887026+249632312+249403181
2238+249245936+249194191+249242506+249339397+249414275+249414555+249327201
2228+249167330+248941262+248665531+248439917+248412374+248613349+248870479
2218+248963975+248880750+248836146+248983679+249212233+249343405+249387519
2208+249452720+249544257+249618278+249725214+249955045+250285145+250588296
2198+250790409+250942894+251118706+251313627+251486079+251629710+251781811
2188+251998307+252297924+252605485+252790327+252788979+252683146+252653975
2178+252827914+253147830+253420988+253479154+253272282+252886991+252521805
2168+252347989+252348951+252372155+252331995+252268508+252218409+252146611
2158+252035598+251944743+251920717+251926037+251910603+251889657+251914295
2148+252008999+252199615+252637298+253622121+255350263+257680403+260338508
2138+263275301+266609320+270350434+274413056+278790291+283557559+288780343
2128+294451991+300465569+306698338+313167063+320013345+327284046+334756754
2118+341989272+348521063+354029447+358360152+361454278+363196262+363375066
2108+361897106+358917003+354676242+349445112+343630497+337617269+331491734
2098+325137907+318551554+311946723+305605810+299662508+294087384+288911865
2088+284280930+280217538+276585880+273346111+270600074+268373772+266550313
2078+265016567+263764624+262826156+262129681+261488870+260788563+260119701
2068+259664274+259472871+259379007+259159780+258788033+258433189+258216115
2058+258095792+257975977+257809265+257634153+257542354+257562128+257636183
2048+257748859+257957236+258287266+258671297+258947098+258965104+258800422
2038+258716777+258829488+259014784+259179291+259386566+259714129+260151094
2028+260645019+261186366+261792372+262390065+262881400+263381992+264086219
2018+264807367+265057935+264713608+264195885+263918142+263897528+263921449
2008+263844541+263673822+263475506+263277803+263086838+262920773+262745468
1998+262522549+262479397+263068026+264312025+265437171+265624987+264952696
1988+264101146+263508212+263230329+263196976+263260899+263271574+263247320
1978+263313921+263509892+263770836+264024868+264295419+264773384+265610218
1968+266518920+266888130+266533532+265980128+265778926+265955980+266289684
1958+266710586+267201449+267629927+267903646+268102784+268365513+268777997
1948+269456238+270651468+272482731+274341555+275009804+274025734+272404966
1938+271363989+271127561+271274045+271497296+271742194+272000758+272246303
1928+272613955+273540979+275261736+277155156+278396582+279201253+280184325
1918+280832678+280190940+278751915+278011046+278645854+280085667+281293670
1908+281679557+281498548+281396634+281637262+282003812+282344411+282875329
1898+283855969+285066177+285897061+286288110+287043136+288490526+289526165
1888+289039747+287599217+286483031+286086767+286071683+286142519+286190326
1878+286169292+286093662+286121853+286824365+289125649+293231441+297323111
1868+298378121+295665682+291696382+288968614+287985069+287971962+288129575
1858+288139777+288070849+288101349+288313174+288787115+289746966+291491470
1848+294364567+298407730+302209827+302962911+299986518+296214974+294292716
1838+294294816+294871371+295334707+296613599+299856186+304186997+306889112
1828+306918580+305924605+304832567+302969806+300519151+298897945+298758793
1818+299412448+300058649+300831157+302384607+304651418+306450798+306740021
1808+305916346+305317883+306064072+308540101+312063965+314932005+315803662
1798+315337455+315665875+318372015+322899548+326051701+324817676+320710817
1788+317617846+317229720+318714189+320762544+322810514+324432070+325193623
1778+325769758+327923562+332876109+339699817+344805725+345039966+341608950
1768+337505801+334498120+333839915+336064449+339526053+341607761+342227118
1758+342963123+343829460+344566165+346859400+352271154+359136685+363353157
1748+363310565+361365943+360199360+360825751+362923698+365249621+366544472
1738+367707626+371520608+378517556+383715858+382089507+376688252+371885076
1728+368587787+366892631+366955662+368371535+371266874+377114771+386734529
1718+397121404+401656357+398096130+391371080+386061940+383848710+385153535
1708+389641906+395515527+400378340+404560480+410844381+419379099+425457038
1698+426189053+423414038+417932078+411348315+407525603+408042872+411576921
1688+417308101+426474846+438193775+444595934+440429788+432720984+428461849
1678+429351810+434139098+439571011+443190070+446431327+450884630+453763379
1668+451863100+448377208+448333635+452131883+456017031+457115369+457329976
1658+460518841+469291230+484392423+501055325+506813033+502616649+501710135
1648+506853560+511377069+509078514+503716457+501556529+504433493+512122873
1638+523988514+536971040+543910661+542128395+538945585+540602944+547637164
1628+557497741+567982961+579017367+590270089+599618998+606873075+615450561
1618+627698483+640448414+647857041+650579805+653330357+657705719+662453249
1608+666264937+669131121+671721243+674271187+676402207+677964302+679598982
1598+682166005+685931845+690407862+694835861+698892603+702775476+706581144
1588+710029903+712868439+715275172+717828616+721145574+725729874+732178860
1578+740484902+748021202+751029968+751638861+755648986+764737931+775287826
1568+782888592+788346928+795159052+805098445+819442389+840445796+865923189
1558+881002298+879551286+874240781+870733995+868014101+865563901+863913192
1548+863769141+865871042+870211827+876269327+883806537+889131251+883357444
1538+868338252+856477546+851777963+849864910+845526435+839611446+836477388
1528+837272329+839948686+843220636+847769378+852660329+854512906+852550016
1518+848927667+844154659+838338224+833740975+833190739+838329475+849116236
1508+861301301+863513866+850956983+836786419+830006073+830159084+834240535
1498+838324925+838356843+834185728+830351922+830292636+833164070+835044156
1488+832839220+827589541+822554259+819881122+819486346+820021323+820938337
1478+822962684+826592452+831165272+834597303+833840299+828740481+823803892
1468+822843061+825705956+828992675+829365052+828133338+829718671+836322837
1458+844475939+845534695+837662486+828918480+823942344+822402718+822541449
1448+822329292+820516823+817696835+815332380+814399127+815569175+819203353
1438+823962643+826164708+823705198+819653006+817489648+817354976+817542215
1428+817182367+816891954+817070164+817461300+818609860+821561509+824878747
1418+824282873+818656057+811906719+807443442+806015389+806692108+807990388
1408+808860435+808885914+807864116+806223416+805408246+806456852+808736753
1398+810857553+812102917+811942207+809690164+806314271+804403667+805175020
1388+806781562+806204377+803494283+802075750+804386588+809786969+816139500
1378+822038320+827281210+831683101+834418324+835243433+835430812+836361125
1368+838305116+841016611+844187977+846910181+848046351+847700152+847008455
1358+846523524+845979027+845090502+844043926+843384636+843419984+843896865
1348+844435482+844893114+845306089+846063232+847832094+850648512+853621791
1338+856136457+858401099+860224907+860664970+859563728+858331033+858512812
1328+860324791+863113491+866549091+870642301+875084369+879417805+883572961
1318+887582386+891115280+893826634+895824032+897527728+899378345+901718722
1308+904636004+907894655+911130907+913931156+915850089+916734905+916970580
1298+917075714+917284791+917756422+918636619+919605080+919850904+918950689
1288+917397974+915958372+914768445+913160153+910449359+907064436+904456815
1278+903513973+903662363+903891110+903895239+903818384+903762177+904015212
1268+905037919+906877757+909102221+911436299+913953765+916458002+918312189
1258+919301648+920157346+921585049+923025561+923358250+922795625+922773856
1248+923762196+924587655+924363529+923614715+922958155+922186662+921176344
1238+920462807+920364883+920154686+918696815+916125662+914157452+913999752
1228+914809812+915036459+914402367+913601406+912974735+912331614+911359023
1218+909872524+908249813+907554966+908632060+911130977+913824483+915813901
1208+917166079+918486828+920207533+922305655+924527459+926827168+929376623
1198+932024771+934270304+936088932+937983997+939888090+941133944+941744167
1188+942598325+944254914+946528935+949087068+951557008+953293461+954086233
1178+954674757+955802038+957409420+959233509+961472952+964250312+966980145
1168+969020451+970464602+971687708+972599682+972930692+973087832+974054683
1158+976242119+978931495+981031297+982047705+982117631+981384285+979843679
1148+977979693+977108667+978351231+981126911+983785209+985965645+988931574
1138+993358944+998014499+1001028305+1002093640+1002656966+1003631726+1004015023
1128+1002704073+1000619180+999953871+1002033584+1006198189+1010286640
1120+1012987635+1015367979+1018450171+1020596660+1019809488+1017443772
1111+1016585275+1017870676+1019452440+1020449879+1022085259+1024987282
1103+1027627800+1028473139+1028267211+1028938610+1031218021+1034278234
1094+1036815509+1038124289+1038515285+1038633088+1038707563+1038708613
1085+1038774269+1039459107+1041653403+1045359537+1048331975+1047578541
1077+1043117784+1038408962+1036523697+1037947550+1041803894+1046612740
1068+1050219690+1051396598+1051388619+1052128193+1053686998+1055576113
1060+1059030962+1065141308+1071552217+1073741823+1070209979+1064144289
1051+1059723359+1058563460+1058953546+1058737330+1058537562+1060572968
1043+1064977938+1068974764+1070447614+1070544558+1071478021+1073064614
1034+1072581574+1068528961+1062964791+1059136095+1058384551+1059870980
1025+1061746936+1062650091+1063191718+1065089512+1068479334+1071506300
1017+1072137381+1069088997+1062338680+1054173818+1048094550+1045810729
1008+1046631779+1049448267+1053875637+1058742509+1061211678+1059600097
1000+1055732553+1052784473+1051924156+1052263565+1053145091+1054603872
991+1055620910+1054408164+1051207470+1048364803+1046663277+1044346279
983+1041022952+1039108569+1039421940+1038869043+1034897556+1029321347
974+1025284623+1023422947+1022670073+1022776607+1024059698+1025415655
965+1024808932+1021686913+1017478140+1013741489+1010977147+1009145429
957+1008299321+1008576364+1009550215+1009411553+1006050988+999892275+993905750
947+990056336+987624124+985328264+983387983+982595561+982376125+981140490
937+978495422+975638686+973781070+973402253+974832826+978064318+981640190
927+983139568+981234774+976837923+972394245+969956013+969567327+970095725
917+971203617+972987878+974614299+975128487+974409001+972090253+967702781
907+962797411+960179221+960607175+962321580+963711065+964751201+965686554
897+966039473+965537743+964680506+963660528+961797942+958755998+955393823
887+953091384+953054006+955778730+959999472+962760383+962214766+959746507
877+957979955+957667004+957954267+958480005+958923147+958185113+956138928
867+954664748+954947320+955421891+954214045+951949894+950452825+950165633
857+950251517+950284065+950736728+951984471+953577994+954810339+955704674
847+956743481+957539192+956914480+954702475+952219167+950741487+950516171
837+950720209+949832523+947088620+944065295+943519329+945981848+949506693
827+952958742+956550222+959191371+958864141+955701034+951864849+949123116
817+948465716+950567198+954847646+959223499+962027878+963534396+964773950
807+965349455+963744803+959860180+955580222+952869497+952783823+955533885
797+959929336+963457400+964378194+963100142+961041918+959376370+958667663
787+958659964+958659544+958533831+958954786+960616134+963442351+966582850
777+969232888+970916565+970902706+968781835+965679135+963226765+961962222
767+961832730+963019087+965047563+966564441+966956767+966743210+966156926
757+964948659+963813329+964471569+967226810+969321012+967516872+962397035
747+958424148+958867571+962420134+965633428+967328234+969192150+972292051
737+974883502+974577971+971562835+968432207+967081499+966567730+964812798
727+962337049+962115652+964943130+967759408+967886940+966422629+966128017
717+968088738+971010289+972607731+971104223+966945917+963401614+963539645
707+966689103+968970334+967735189+964219514+961546657+962080235+965430300
697+967368622+963714425+956218093+950057489+946815497+944522017+942345710
687+940945236+940369871+940186062+940415018+941267566+942238757+942117314
677+939518023+933757935+927378735+925787172+930684913+937010006+937737892
667+933473122+930372872+929109309+926245014+921134066+916929423+914376329
657+910822996+906959232+907374167+913372170+920331495+923328222+921374431
647+916071975+910220333+906523929+905528519+905510811+905168181+905446694
637+907277503+908664188+905903767+898169239+889165899+883218712+880721895
627+878084036+873145698+870051677+873967028+883441299+891567032+892954068
617+889509228+885880160+881938071+878009351+878728347+887859639+900677116
607+905459224+897223387+882970228+872799569+871278702+875091929
##END=
