##TITLE=<SNM>
##JCAMP-DX=4.24
##DATA TYPE=INFRARED SPECTRUM
##DATE=2/5/2025
##SAMPLING PROCEDURE=Instrument type and / or accessory
##ORIGIN=Admin
##XUNITS=1/CM
##YUNITS=ABSORBANCE
##RESOLUTION=4
##FIRSTX=4497.3318
##LASTX=599.83466
##DELTAX=-1.4281778
##MAXY=1.789101
##MINY=0.2526418
##XFACTOR=1
##YFACTOR=1.6662302e-09
##NPOINTS=2730
##FIRSTY=0.27273428
##XYDATA=(X++(Y..Y))
4497+163683440+164525750+165113933+165107673+164533136+163820484+163275566
4487+162686274+161782454+160940235+160895555+161680146+162354469+162214671
4477+161830783+162226941+163406886+164516055+165059738+165099302+164670931
4467+163844218+163029221+162608022+162586308+162905664+163565017+164297434
4457+164678067+164609117+164313567+163820680+162891821+161618582+160657760
4447+160554843+161136803+161831248+162260871+162343630+162189220+162080383
4437+162270780+162723334+163145195+163192092+162737589+162147921+162048724
4427+162572787+163126092+163069823+162327551+161201211+159936647+158677503
4417+157715107+157563522+158518442+160064747+161091104+160976526+160206691
4407+159723105+159956465+160588416+160954812+160598396+159610333+158521268
4397+157905611+158048646+158801114+159697027+160283118+160278164+159543422
4387+158302235+157317678+157314673+158120727+158759832+158510000+157558460
4377+156605723+156170894+156347913+156963659+157747033+158326041+158344893
4367+157835283+157286574+157079632+156961387+156357965+155237456+154348178
4357+154446372+155450765+156509639+156910072+156719729+156423553+156191338
4347+155782552+155066769+154362057+154139322+154457712+154855570+154927418
4337+154787835+154663116+154331973+153485979+152473377+152081994+152620955
4327+153621627+154329540+154245690+153366930+152221380+151624790+152075358
4317+153249543+154235603+154376241+153839176+153307154+153247826+153620554
4307+154149231+154661631+155140048+155620236+156142384+156632605+156731158
4297+156045155+154751491+153642751+153399464+153981513+154775405+155216600
4287+155234737+155106011+154946556+154582217+153940393+153273618+152933532
4277+153125307+153795873+154554333+154857591+154537609+154026049+153886592
4267+154254830+154834607+155301470+155507696+155380866+154944517+154431115
4257+154129163+154137748+154380623+154740688+155183064+155852844+156731408
4247+157171942+156524967+155342590+154982436+155906842+157298647+158264943
4237+158484315+157875151+156587515+155241176+154500317+154469803+154832694
4227+155368078+155983233+156389337+156236339+155707859+155574680+156333139
4217+157490028+158102233+157935910+157634744+157760502+158160542+158333053
4207+158063635+157628967+157522778+157968606+158629354+158904763+158602077
4197+158182202+158214182+158711021+159193355+159342257+159296129+159295789
4187+159400208+159561021+159653850+159513283+159162734+158872694+158903279
4177+159323620+160015185+160705641+161103445+161069408+160620754+159933803
4167+159398061+159346746+159653904+159902091+159946770+160015936+160275588
4157+160545471+160536331+160288609+160176338+160379918+160614833+160555309
4147+160231034+159861490+159644514+159728936+159978733+159909925+159362003
4137+158944309+159255116+160024414+160529570+160490078+160149223+159816685
4127+159642904+159622943+159636715+159560986+159396362+159306771+159533226
4117+160196442+161176814+162167631+162759625+162602603+161774155+160854775
4107+160337546+160156145+160071633+160205832+160773662+161505417+161742658
4097+161101514+159860041+158674802+158053279+158127935+158709912+159384969
4087+159741921+159745910+159760737+160023663+160315420+160386947+160460065
4077+160945475+161790897+162456402+162527571+162074892+161398566+160729054
4067+160276590+160178002+160179200+159817114+159165453+158877523+159245636
4057+159761650+159800892+159266241+158536346+158190733+158586892+159385738
4047+159859916+159820763+159745516+159965658+160298232+160478524+160492296
4037+160491402+160626048+160949768+161378426+161722143+161739599+161315163
4027+160741807+160608698+161175204+162040336+162630720+162814463+162882573
4017+163115307+163477679+163663641+163374906+162550590+161394273+160326832
4007+159886602+160367898+161457017+162477507+163050255+163269771+163321748
3997+163313699+163354319+163398766+163217240+162850235+162746979+163173061
3987+163847974+164343938+164498312+164404911+164341666+164718454+165799238
3977+167332504+168568987+168847151+168207295+167229856+166316056+165478738
3967+164807402+164645890+165163585+166094126+167012809+167647281+167919365
3957+167915573+167789476+167578957+167293781+167192743+167553612+168134176
3947+168451332+168602022+169073142+169812069+170213916+170017187+169607202
3937+169490317+169892074+170693853+171490499+171831604+171646322+171377477
3927+171545624+172232932+172972289+173223552+173060718+173149361+173895121
3917+174693770+174433796+172953365+171283664+170412469+170547348+171542762
3907+173422535+176100868+178870223+180752858+181416825+180989097+179332131
3897+176738149+174675312+174615912+176397652+178052525+178031080+177420539
3887+177884897+179039157+179615661+179957017+180905176+181453402+180368200
3878+178858114+178826867+180417548+182791102+185468630+187586019+187804408
3868+186601355+185838907+185929965+185715708+184596361+183367856+183172272
3858+184999925+189519451+195633735+198678732+195398086+189672126+185458292
3848+183611089+183914133+185941287+189098448+192842237+196637466+199407518
3838+199936016+198542172+196736179+195108582+193323569+191518739+190415025
3828+190276533+190981226+192976776+196598367+200075206+200615151+198993599
3818+198099223+197837568+196247031+193583507+191870218+192374748+195064439
3808+198509172+200881617+202386123+204404817+206428251+206843995+206342470
3798+206468727+206812659+206531990+206387543+207685446+210532391+214101718
3788+217932666+222175637+226814052+231752004+237534269+244658956+252438595
3778+259977094+267763994+276933096+288085083+301181019+315055321+327291044
3768+336233976+341991218+345133766+346693217+348304216+350680489+352902047
3758+354206837+356058904+360979472+369917109+381098376+391497413+400473434
3748+410148586+422032311+434678161+444088814+449799159+455830452+464702662
3738+476183199+488851478+501199454+512052512+520965752+528319578+534910597
3728+541447744+548137889+554880010+561472711+566575394+568010108+565582967
3718+561652466+558572662+557585673+559029795+561384962+561511452+558173588
3708+553232309+549382938+548535675+550612284+553255095+554364855+554595407
3698+555646071+558012077+561261906+565066811+569221818+572700195+573860573
3688+572780218+571342141+570768070+571339494+573024685+575461806+578485698
3678+582142077+584791363+584163812+582290424+582242311+582477656+579515864
3668+574054386+569480809+566944599+565263772+563266720+561496106+561159132
3658+561796270+561706875+560979878+561602957+564443803+568116423+569770384
3648+567798659+563701388+560072481+558778316+560052020+562245819+563482713
3638+563801371+564662407+566968745+570728434+575516358+579724738+580633208
3628+578062191+575118286+573655419+573946211+576483995+581388429+586835885
3618+590380262+591792510+592255116+592934393+595034791+599125123+604032884
3608+607432097+608101179+606891937+605670318+606133568+608681475+612088415
3598+615108229+617446727+618693959+618679578+618990438+621399049+624980987
3588+626741334+625951700+625229245+626245389+627899851+628298210+627251159
3578+626417525+626971993+628171362+629024600+630296657+633294293+637141230
3568+638396833+634933301+629494503+626143367+625634115+626187009+626567267
3558+626955180+627504498+627848840+627835390+627596432+627064858+626012012
3548+624414356+622579387+620830343+619176811+617546889+616114715+615256612
3538+615319213+616161218+616815491+616284847+614669233+612904808+611576802
3528+610633920+610125669+610045396+609964193+609708565+609529991+609232796
3518+608000588+605696003+603619787+603340979+605118712+607630489+609072322
3508+608416117+605652075+601553945+597589567+595182852+594472417+594522856
3498+594770435+595221701+595776921+596318797+596875340+597215641+596950891
3488+596051364+594857576+593815641+593078484+591837583+588765542+584068408
3478+580057848+578839771+580329073+582705310+584000190+583283316+581191110
3468+579324734+578606321+578428820+577779377+576632879+575620992+575049460
3458+575027639+575775528+577026623+577776980+577329577+576271902+575885742
3448+576597751+577182876+575809404+572028216+567376333+563964242+562693686
3438+562940442+563714981+564535523+564992655+564475104+563101489+561952845
3428+561610219+561270348+559883068+557623341+555667713+554848638+554998809
3418+555543118+556069255+556036846+555008825+553541630+552626614+552138396
3408+551167790+549628121+548140750+546873808+545845466+545628615+546398503
3398+547041758+546377505+544691635+543181943+542499446+542369736+542165584
3388+541574091+540939386+540924469+541720543+542827297+543501781+543148388
3378+541746907+540237858+539772963+540247338+540382771+539548028+538465920
3368+537817192+537333553+536727143+536462715+537019151+538121399+539128778
3358+539626512+539523023+539096834+538811980+538702267+538282946+537411035
3348+536602441+536171494+535862065+535513716+535359037+535592450+536251230
3338+537367536+538488493+538406145+536464719+533792610+532082844+531434402
3328+530512804+528620243+526377615+524571586+523555907+523509475+524232430
3318+524914283+524891925+524461730+524335132+524751484+525599642+526914376
3308+528620243+529943991+529994001+528957538+527899684+527494851+527550441
3298+527485800+526957982+526206946+525783081+525824720+525940622+525929282
3288+525953571+525963266+525742408+525526416+525812200+526532902+527008421
3278+526834318+526505178+526931225+528267064+529427942+529243823+527923830
3268+526645584+525957685+525475763+524879405+524250710+523600479+522873517
3258+522285852+522043317+521845604+521127192+519751681+518181892+517018045
3248+516591354+516882826+517452927+517489057+516508649+515060199+514135202
3238+513915526+513734840+513241614+512724313+512193776+511246422+510074812
3228+509532435+509872628+510332086+510188103+509348244+507844132+505740658
3218+503587961+502159329+501710352+501935037+502500166+503217075+503822448
3208+503886408+503025659+501209327+498947454+497213220+496893560+497963255
3198+499199576+499064822+497041764+494030392+491520332+490445414+490667953
3188+491353526+491715683+491500693+490979850+490441300+489652489+488248074
3178+486617829+485586375+485117295+484247352+482490831+480451282+478862712
3168+477773521+476879933+476124532+475591491+475095582+474391157+473637402
3158+473061005+472302385+470787863+468687465+466851925+465877491+465708897
3148+465998043+466342994+466169642+464975460+463033032+461439597+461053830
3138+461572741+461859205+461041775+459202764+457111810+455463823+454461773
3128+454004605+453923867+453883695+453374300+452169136+450664166+449429490
3118+448518695+447614732+446832359+446795979+447677656+448661318+448727389
3108+447690283+446166210+444757610+443572264+442441935+441356179+440550876
3098+440204494+440167470+440066736+439692273+439227485+439044654+439284757
3088+439687623+439844162+439589428+439126572+438688614+438133430+437144008
3078+435842223+434770883+434129059+433533202+432741993+432037640+431639174
3068+431241709+430417555+429185526+427952531+427080370+426651534+426514347
3058+426424917+426136701+425465651+424446395+423405139+422690089+422311191
3048+421995680+421609627+421367915+421495657+421748852+421541195+420632976
3038+419366606+418083745+416744578+415306430+414036697+413196445+412701216
3028+412275777+411771891+411229621+410718830+410199669+409516564+408553327
3018+407453726+406635116+406430643+406695822+406895752+406567400+405636572
3008+404439779+403491173+403003205+402636469+401995969+401254948+400851439
2998+400734964+400450433+399860156+399234644+398666761+397893439+396696860
2988+395154007+393577314+392417795+392022227+392270593+392580773+392391824
2978+391593247+390504164+389548045+388967106+388777155+388813106+388712551
2968+388116408+387098511+386131268+385477890+384991925+384575251+384316117
2958+384092398+383564723+382705225+381896202+381353575+380823145+380042275
2948+379192722+378633281+378408811+378248730+377868007+377118831+376062873
2938+375049805+374496768+374439783+374490579+374315153+373911714+373341291
2928+372545683+371580407+370679986+369938358+369180274+368232670+367167840
2918+366263377+365778843+365731087+365867379+365862478+365532731+364925498
2908+364213668+363458732+362619589+361815109+361229340+360748205+360123766
2898+359405676+358788856+358292768+357915873+357703028+357476197+356962366
2888+356204211+355414040+354597039+353707064+352930093+352465234+352187141
2878+351793468+351240896+350808124+350649296+350548025+350334143+350242531
2868+350497801+350781510+350514793+349578421+348457929+347681530+347301022
2858+346996994+346568873+346112921+345731984+345356662+344913266+344424726
2848+343917370+343437629+343098652+342885092+342556382+341979985+341369963
2838+340932112+340482849+339727091+338759812+337969605+337523848+337234415
2828+336895975+336500979+336097076+335641338+335083543+334497023+334046437
2818+333807586+333640494+333321013+332799062+332184174+331501927+330719483
2808+329985868+329506020+329181674+328744645+328218616+327832527+327505355
2798+326875264+325873501+324880251+324269871+324065433+323996965+323707711
2788+323009117+322059795+321196327+320606194+320270043+320062457+319765262
2778+319193229+318436076+317785023+317345848+316917655+316302732+315575126
2768+314965497+314558446+314227947+313874268+313524881+313111891+312417876
2758+311419511+310454628+309863780+309613983+309356996+308772622+307854708
2748+306895979+306179748+305726694+305377594+305035791+304707867+304331151
2738+303752321+302973884+302228964+301662262+301147071+300591100+300153213
2728+299927831+299689660+299188635+298467540+297724016+297102564+296742821
2718+296760940+297013169+297065486+296588786+295709077+294857128+294324105
2708+294039591+293741180+293264766+292666817+292143702+291852446+291723272
2698+291435450+290718307+289711375+288857332+288415993+288250297+288075389
2688+287758608+287391533+287173090+287179582+287219683+286988917+286357055
2678+285450303+284523536+283815784+283439943+283332555+283320518+283240657
2668+283001466+282600711+282151913+281854396+281815816+281878614+281744969
2658+281300679+280684057+280049351+279459772+278999099+278762180+278705051
2648+278653253+278469402+278137419+277712875+277260196+276828373+276430354
2638+276024322+275574326+275171514+274982923+275005835+275027906+274930266
2628+274817852+274730336+274473688+273899420+273164821+272580930+272307684
2618+272253901+272200368+271993265+271645899+271266732+270936913+270692911
2608+270563184+270549143+270579728+270509168+270196752+269645467+269069642
2598+268758049+268816698+269044137+269086992+268777777+268329373+268106638
2588+268190828+268287162+268108928+267722928+267416987+267316234+267271233
2578+267124549+266940180+266860426+266841091+266707088+266453929+266284762
2568+266281972+266244214+265993452+265668336+265527448+265610099+265777048
2558+265946286+266129207+266340173+266546006+266620180+266392973+265865834
2548+265297469+264947062+264792366+264599590+264234445+263798973+263429518
2538+263087322+262676747+262268515+262029968+261998686+262073825+262160590
2528+262209223+262168961+261990279+261683282+261350530+261119173+261017545
2518+260952636+260821120+260611191+260414069+260356404+260472109+260637197
2508+260695291+260627253+260513891+260381748+260198720+259978077+259762604
2498+259540691+259295151+259098315+259048627+259131798+259210085+259142672
2488+258931831+258750467+258738071+258785058+258669997+258357974+257970419
2478+257570898+257205843+257001423+256977563+256928179+256700615+256434184
2468+256339548+256381581+256345522+256131319+255838667+255579748+255325050
2458+254988202+254600861+254305257+254182791+254181146+254217419+254250365
2448+254235180+254115737+253912586+253741882+253684074+253668728+253547299
2438+253274519+252970491+252790396+252761313+252764944+252685011+252560041
2428+252550204+252722644+252913810+252874318+252546197+252145353+251952559
2418+252045924+252260217+252402751+252463939+252561204+252704471+252754606
2408+252659631+252571488+252615935+252715149+252773011+252868093+253114814
2398+253467885+253792714+254097064+254663033+255945321+258365898+262306326
2388+268258366+276758635+288171383+302715644+320592171+341816721+365984891
2378+392365353+420092423+448149025+475469580+501304159+525152955+546151210
2368+562915652+574418117+581095491+584511374+585246850+582029753+573815893
2358+561004596+543909298+522120048+496351397+470593191+450875293+441487427
2348+443705623+456375405+475246827+493255317+505362439+511739255+514669567
2338+515753857+515852123+515518011+514957533+513790573+511311026+507290594
2328+502264141+496783882+490663016+483257429+474402389+464682987+454771918
2318+444948562+435254665+425683360+416134377+406417264+396422846+386248994
2308+376076395+365973944+355989685+346386221+337530824+329524335+322129909
2298+315076677+308326793+302070565+296497657+291544894+286929303+282477315
2288+278314169+274674799+271644129+269129883+266992783+265149282+263577132
2278+262255637+261139975+260194964+259382256+258612243+257823932+257107899
2268+256596142+256236757+255847932+255382160+254951625+254604402+254269754
2258+253917219+253587865+253276772+252936829+252577230+252252580+252005662
2248+251869460+251821561+251719181+251404082+250885296+250334566+249917123
2238+249672191+249545397+249513810+249621645+249849585+250046171+250084107
2228+249996573+249883640+249787896+249728657+249758294+249912598+250150858
2218+250399457+250631546+250865157+251110321+251365198+251637334+251928806
2208+252231814+252546269+252883189+253274680+253759088+254296797+254776949
2198+255186415+255650666+256238206+256855723+257386975+257842050+258331038
2188+258891606+259381988+259646112+259735077+259807659+259902920+259983193
2178+260080493+260256725+260510904+260783666+260985582+261020496+260835643
2168+260480408+260119878+259925242+259891115+259822504+259551029+259126807
2158+258773826+258667099+258774559+258950272+259121048+259313842+259608980
2148+260121721+260932890+262105251+263850360+266445451+269885552+273890191
2138+278277038+283076713+288351478+294098901+300234810+306629834+313271686
2128+320291220+327732401+335428494+343150701+350807087+358500354+366326872
2118+374061993+381213383+387445465+392748473+397152776+400533066+402842517
2108+404361581+405461539+406244878+406695321+406929772+406943866+406458438
2098+405351003+403864134+402204735+400287526+397904528+394892477+391116368
2088+386368151+380376673+373037908+364538014+355181449+345303326+335357415
2078+325851143+317147026+309365223+302444241+296331889+291117596+286915334
2068+283699041+281289733+279382809+277659986+276015415+274537488+273273837
2058+272233189+271479112+270980484+270566493+270169153+269913847+269956524
2048+270359014+271070755+272047782+273429356+275445510+278193921+281722039
2038+286167141+291605940+297943585+304962100+312245168+319216911+325527870
2028+331255958+336645355+341813430+346632190+350772102+353939261+356007857
2018+356889140+356525016+355040507+352666845+349543829+345707730+341176579
2008+336029073+330460672+324714662+318957849+313307243+307916952+302908564
1998+298285996+294078851+290483964+287638396+285309378+283070113+280767280
1988+278570888+276675071+275174501+274065313+273210734+272451059+271780278
1978+271278555+270921317+270584808+270194963+269817602+269619925+269685657
1968+269841445+269788216+269448952+269038199+268773467+268706233+268837320
1958+269179552+269628690+269950389+270015387+269951694+269988629+270228821
1948+270655816+271300448+272202228+273115688+273512956+273170956+272509779
1938+272072357+272003997+272166742+272437859+272781987+273196748+273667616
1928+274199083+274903348+275885275+277001671+278033698+279064168+280193585
1918+281025573+281121514+280844137+281020279+282004335+283465664+284802326
1908+285647085+286107258+286531105+287085555+287700711+288346381+289139145
1898+290143574+291173615+291922595+292393857+292955444+293702349+294131293
1888+293835582+293094473+292373932+291830750+291491022+291387139+291446646
1878+291521589+291484529+291308995+291293023+292014529+293627585+295202597
1868+295333255+293824869+291904333+290628805+290080060+289836184+289598138
1858+289349200+289201317+289221708+289388692+289706224+290250390+291111068
1848+292457210+294406882+296368931+296980491+295793464+294082446+293087122
1838+292933605+293157306+293564340+294546983+296455285+298670028+299879485
1828+299790931+299378961+299135889+298702223+298058020+297755781+298062098
1818+298704137+299370304+300099627+301097813+302261517+303086280+303243606
1808+303059558+303167733+303984411+305578776+307609025+309316788+310077161
1798+310169667+310638891+312313886+314921104+316850225+316655231+315164605
1788+314333403+314906688+316278085+317729862+319158495+320541446+321602413
1778+322447244+323875733+326638023+330403293+333401822+334061318+332953526
1768+331479749+330459992+330603617+332325581+334807024+336552849+337345452
1758+338047445+338947866+340127417+342348474+346113315+350356036+353079763
1748+353683955+353318507+353200566+353955108+355717817+357962376+359801495
1738+361424334+364263642+368671773+372031494+371706683+369342000+367385692
1728+366422062+366438446+367338974+368746000+370726740+374233664+379831505
1718+385917851+389029099+388035813+385470914+383719438+383645067+385417542
1708+388843620+392988361+396558386+399674964+403792983+408989461+412926759
1698+414412627+414516652+413364825+411363265+410556460+412121277+415495879
1688+420082049+426300072+433557742+437911642+436959745+434299406+433491671
1678+435360945+439109401+443048739+446184061+449457571+453660549+457301045
1668+458642215+459172930+461528241+466068335+470853362+474196592+476854928
1658+480740142+487225205+496785170+507180773+512295584+512193669+513388530
1648+517690382+521979714+522842610+521571625+521302619+523402158+528176704
1638+535331135+542924061+547259897+547569648+547780167+550805776+556645652
1628+563862255+571348401+579154136+587269551+594762851+601409068+608691849
1618+617748286+626989736+633404256+637253125+640934223+645192040+649150301
1608+651942174+653629761+654924928+656466637+658409208+660585800+662975309
1598+665873211+669532345+673685850+677706783+681376076+684948642+688404518
1588+691413672+693954353+696231323+698278492+700298188+703008429+707031008
1578+711957406+716144966+718559229+721046825+725828060+732800411+740214691
1568+746946939+753911635+762186521+771676588+782599830+797055645+816553330
1558+834599238+843163521+846159368+848705487+851476040+853558123+854449279
1548+854559099+854807000+855578820+856499238+856899170+855179817+849774359
1538+843257745+839014810+836572573+833834429+830231815+827225022+825697480
1528+824965367+824391009+824683125+826583985+828702556+828721300+827137953
1518+826039175+825341690+824076643+822747994+822507319+823972260+827436794
1508+832015057+833618794+829191704+823132974+820004055+820277140+822403723
1498+824137385+823980202+822654414+822035627+822961840+824830792+825996106
1488+824947839+822120837+819443291+818268247+818516005+819453307+820817299
1478+822729679+824988976+827195403+828841566+828688032+826099559+823114802
1468+822298195+823990003+826171676+826825447+826747464+828114318+831549590
1458+835283988+836128569+833619152+830520067+828378674+827282973+826959665
1448+826692590+825747561+824363751+823376439+823226983+824003525+825607048
1438+827302147+827830001+826895847+825588375+824633902+823929978+823370143
1428+823232421+823682577+824118497+823573115+822049936+820527259+819343916
1418+817819163+815741874+813688338+812103703+811231077+811051572+811098434
1408+811035045+810960210+810733415+810025627+809213241+809045112+809708256
1398+810934812+812281634+812893051+812242713+811419167+811951886+813497887
1388+813861904+811710281+809075948+809386021+813604130+819661644+825071181
1378+829407625+833617006+837638369+840222764+841145614+841776921+843018858
1368+844476645+845748918+847152403+848860523+850323747+850971223+850976303
1358+850915204+851038332+851141356+850965071+850527506+850051807+849785519
1348+849942559+850535018+851355559+852358253+853689764+855189333+856322022
1338+856869408+857338309+858404749+860292803+862773817+865413444+867786211
1328+869709179+871318497+872865142+874622557+877003837+880243578+883815714
1318+886917947+889646361+892654799+895733566+898041371+899657700+901519784
1308+903942703+906446754+908747834+910933513+913006581+914948150+916901310
1298+918837800+920267183+920588489+919593880+917627055+915452251+913770888
1288+912560359+911152295+909163363+906886966+904706010+902756355+901206563
1278+900176396+899463385+898950127+898953060+899714148+901058752+902790267
1268+904730263+906327919+907075700+907377546+908208891+909838527+911693671
1258+913423970+915141964+916703061+917649806+917937701+918015398+918097531
1248+917891125+916998038+915382782+913636314+912722907+913013091+913586089
1238+913043927+911238649+909642639+909522659+910214993+910013667+908514742
1228+906895265+906067140+905809151+905550232+904971510+903919881+902522692
1218+901459257+901624811+903281777+905733457+908163818+910609417+913393349
1208+915931956+917302816+917898065+919271000+922181352+925584071+927972434
1198+929365116+931165385+934144204+937470586+939864673+940993141+941541242
1188+942432613+944085358+946221313+948470953+950878991+953312857+955079215
1178+956021453+956988088+958275958+959031036+959209539+960494332+963830944
1168+967393493+968697174+967923708+967288037+967892515+969100040+970594600
1158+973328809+977643360+981596398+982952807+982460296+982909809+985229490
1148+987924994+989975525+991588420+992472493+991948717+990602039+990138217
1138+991539770+994170669+996585075+997822147+997948995+997627690+997716906
1128+999291238+1002959315+1007760797+1011581335+1013405357+1014437455
1120+1016455720+1019765002+1023079364+1025081889+1025578765+1025013207
1111+1023841883+1022851209+1023020841+1024679167+1027271718+1029930376
1103+1031781943+1032051236+1030718580+1028964313+1028647157+1030932569
1094+1035267152+1039451922+1040880090+1039143781+1036706481+1036098998
1085+1037500980+1039543714+1041459313+1043662305+1046655218+1050172694
1077+1053119891+1054051183+1053236794+1052997836+1054787159+1057859272
1068+1060707379+1062047619+1061042994+1058286463+1056003341+1055751934
1060+1057046886+1059010778+1061521268+1063903192+1065114581+1065866583
1051+1067915827+1071297655+1073741823+1072825054+1068494048+1063460405
1043+1060872647+1061522484+1063586537+1065341305+1066513916+1066548042
1034+1064482487+1061806229+1061699842+1064583579+1067530918+1068259740
1025+1067022238+1064556034+1061374530+1058832060+1058222359+1058953828
1017+1059307830+1058860892+1058591743+1059378158+1061267428+1062991145
1008+1062596936+1060161425+1058417747+1059350184+1061835919+1063558277
1000+1063867563+1063646563+1063144966+1060709168+1054482881+1045857928
991+1039071163+1036772230+1038286179+1041704924+1045475095+1048385517
983+1049737061+1049158554+1046140958+1041108316+1036324506+1034220960
974+1035291978+1037749168+1038420897+1034843109+1027533642+1019781315
965+1014951358+1013863026+1014198569+1012893815+1009844239+1007559686
957+1006818058+1005619762+1002599590+998781914+995450096+992441371+989048239
947+985417365+982607248+981112973+979984791+977983124+975256857+973376744
937+973630297+975510625+977002681+976830903+975779560+974837464+973563331
927+971547213+969945121+970081127+971563024+972855544+972990762+972058612
917+970671797+969384214+968310333+967390488+966988695+967475912+968228701
907+968041828+966916507+966427359+967331178+967727963+965434038+961860185
897+960769992+963047319+965471026+964918632+961795294+959015440+958914634
887+961203050+963274759+962919255+960532036+958119633+957185765+957830666
877+958697139+957966171+955325756+952465343+951121383+951511801+952502832
867+952577739+951298813+949914288+949399026+948893422+947846013+948064009
857+951267191+955691562+957672982+956362147+953854948+951469232+949227605
847+947731685+947693910+948487837+948975555+948776662+947827912+946172949
837+944830778+945388681+948110584+951598942+954604590+956805293+957729216
827+956645391+953776464+950369810+947538659+945927481+946068781+948084685
817+951406416+955203630+958615292+960722487+961095376+960313611+959529986
807+959819025+961675600+964147313+964863329+962134271+956634302+950537152
797+946194127+945481259+948437685+952663449+956109954+959645817+964647265
787+969699366+971952726+970831984+968039824+964654562+961231739+959785757
777+962437046+968028091+972197551+971851348+968373436+965028811+962673930
767+959848072+956381321+954463862+955539602+957999010+959460302+960261455
757+962061439+964273660+965013858+964626875+965105291+966846322+968590501
747+969752524+970636239+970679881+969146543+967106887+966186755+966288992
737+966162931+965607318+965842556+967287464+967963987+965596443+960853341
727+956566907+954674131+955053816+956871257+959351769+961176936+961399439
717+960989562+961157405+961094875+960382222+961430275+965688163+969493176
707+968044475+962501722+958456822+958990471+962318569+964224509+961792074
697+955142460+947190095+941731836+940521450+942131197+943493186+942563610
687+939505306+936456016+936206684+939603178+943781795+944071264+939401209
677+933394348+929970810+929236193+927318305+920705750+910576650+904236106
667+907673668+914615541+917285932+915400811+911963965+909419635+908096566
657+906851409+905094209+903179182+901060827+898224453+895072139+893773466
647+896710289+903232197+908664986+908334594+902759360+896028901+891181631
637+889471722+890042788+889846256+886945349+882807297+879241600+875582109
627+870910265+866911511+866805840+871403420+876123198+875141611+870003083
617+867610999+870510476+875878445+880593645+882637165+880752902+875139035
607+868121468+863320773+862517044+862894727+860057637+855703379
##END=
