##TITLE=<SNM>
##JCAMP-DX=4.24
##DATA TYPE=INFRARED SPECTRUM
##DATE=2/5/2025
##SAMPLING PROCEDURE=Instrument type and / or accessory
##ORIGIN=Admin
##XUNITS=1/CM
##YUNITS=ABSORBANCE
##RESOLUTION=4
##FIRSTX=4497.3318
##LASTX=599.83466
##DELTAX=-1.4281778
##MAXY=1.7192469
##MINY=0.2010971
##XFACTOR=1
##YFACTOR=1.6011734e-09
##NPOINTS=2730
##FIRSTY=0.22008198
##XYDATA=(X++(Y..Y))
4497+137450436+137489458+138066474+138822563+139471489+139624830+139095678
4487+138229196+137585751+137636369+138611512+140015299+140678817+140002698
4477+138732039+138010775+138190472+138886414+139636166+140139539+140222404
4467+139922291+139572845+139542767+139787785+139889597+139629940+139341934
4457+139628832+140686477+141822220+141917900+140681675+139059560+138091545
4447+137893179+137999970+138091861+138103969+138070187+138093639+138214771
4437+138192380+137626299+136451962+135199730+134586392+134852192+135606364
4427+136244913+136368344+135916528+135071162+134056532+133094715+132458502
4417+132309553+132521236+132913408+133529343+134344835+134863276+134463743
4407+133252887+132210905+132191985+132937344+133409728+133005364+132049681
4397+131191249+130745742+130661110+130775504+130959241+131103518+131142688
4387+131119953+131032193+130624843+129702970+128617052+127991737+127942524
4377+127977740+127665240+127017273+126305882+125895377+126180692+127255126
4367+128578691+129335423+129281250+128917965+128699898+128568296+128418333
4357+128437960+128730590+129099561+129425806+129818872+130282535+130603438
4347+130633451+130442484+130179895+129911275+129578859+129109500+128579547
4337+128184025+128010498+127973235+128007697+128144241+128315562+128316241
4327+128091036+127815362+127559212+127184034+126687556+126260737+125920504
4317+125593915+125593580+126329325+127488139+128232261+128291561+128165040
4307+128238486+128402530+128533006+128731884+129077179+129500490+129800454
4297+129664329+128981993+128183216+127936001+128442008+129228836+129676688
4287+129662943+129605318+129797476+129925625+129544091+128797615+128249691
4277+128175901+128363806+128506576+128611906+128973283+129703314+130441721
4267+130705213+130396455+129844520+129463302+129403089+129499187+129630352
4257+129972120+130672054+131525275+132241290+132787418+133298470+133800327
4247+134066545+133765139+132912217+132045549+131699425+131908875+132433579
4237+133100578+133642918+133582910+132718374+131553026+130857968+130907078
4227+131444048+132162270+132728080+132660330+131914608+131281652+131479115
4217+132155113+132477440+132331041+132268558+132630121+133295222+133990596
4207+134416019+134372344+134021623+133762310+133736019+133784655+133894945
4197+134221972+134612282+134606037+134074391+133444133+133154006+133195243
4187+133321568+133448861+133639102+133805222+133692689+133290652+133091253
4177+133661624+134981579+136431404+137451944+137972460+138157127+138038238
4167+137569512+136927603+136573243+136804181+137238148+137099473+136234090
4157+135420580+135362834+135869056+136339559+136597105+136843380+137133377
4147+137292777+137178196+136839090+136524161+136465149+136555244+136475973
4137+136268207+136396058+137093331+138022231+138662642+138757948+138413388
4127+137947724+137546953+137080656+136477583+136056998+136093954+136337205
4117+136351397+136067170+135736709+135645153+135936992+136450305+136837033
4107+137027954+137303423+137838839+138541472+139215526+139583659+139444779
4097+139009054+138722305+138691380+138651595+138428260+138100200+137867912
4087+137979021+138573998+139454812+140187244+140526946+140615608+140677542
4077+140682838+140463179+140032069+139626943+139477547+139643220+140018742
4067+140354713+140322131+139796738+139127859+138865344+139142954+139617441
4057+140031176+140398462+140629373+140496142+140029873+139602327+139631643
4047+140296557+141294836+141889124+141557156+140599620+139846388+139812382
4037+140265409+140618512+140639284+140574288+140623724+140640940+140449256
4027+140175071+140144034+140529068+141107256+141457679+141479363+141512559
4017+141863950+142434963+142833361+142661648+141851238+140897983+140542199
4007+141060203+142084177+143149127+144111334+144942470+145410052+145235296
3997+144493064+143593182+142859037+142385109+142256401+142526706+143036324
3987+143592391+144145470+144522482+144377823+143747659+143271767+143582070
3977+144708964+146109977+147075274+147239178+146847928+146401351+146068973
3967+145715562+145446896+145714455+146677211+147736056+148041734+147395749
3957+146363409+145653210+145712128+146750350+148697910+150901349+152192352
3947+151982846+151153655+150941116+151242811+150969770+149843388+148747876
3937+148560939+149713527+152224859+155137604+156515249+155332964+153082630
3927+152283638+153767404+155952761+156962143+157023360+157606425+158883524
3917+159320273+157710452+154770811+152224096+151105960+151472009+153351231
3907+157333170+163598853+170472300+175011255+175734195+173272391+168691763
3897+163432697+159793317+159577818+162184225+164281385+163403903+161952942
3887+163401111+166964904+169239333+169887263+170755904+170603465+167481744
3878+163928077+163664073+166864600+171619835+176668353+180190379+179686884
3868+176565815+174894795+175236731+174506644+171303306+168032441+167406809
3858+170626619+178197041+188826048+195303005+190420086+179578185+170486074
3848+165858838+165982223+169990899+176078997+182423915+187896600+191200577
3838+190846654+187574784+184073344+181477882+179118877+176966083+176025113
3828+176358413+177183313+179305284+184453511+190941356+193581731+191801509
3818+189904753+188155653+183662709+177459788+173508569+173986583+178550591
3808+184431045+188333703+190987534+195175731+199361583+199206389+195545735
3798+192216594+189317017+185636764+182500581+181862423+183636483+186630464
3788+190320489+194519295+198456535+201927878+206249119+211942794+216812480
3778+218909733+219934498+223040788+229903012+240381293+252357811+262527213
3768+269654818+275106414+280262997+286619418+296159595+309052459+322524330
3758+334262568+345900817+360757257+380595302+403904485+424459346+437389733
3748+447070363+459335343+473149503+481925960+484831381+488172267+495787062
3738+507455427+520400146+530441008+534632015+533825932+531324483+529946763
3728+530986437+533963741+536960811+538182369+537175640+534900858+533202291
3718+533447310+535771118+540119590+546612330+553211462+555144476+551235006
3708+546224477+544980434+549088578+556391943+562034078+562766269+560776747
3698+560525511+564129061+571035304+580130523+590642475+600054336+602956779
3688+597658124+590076274+585276404+584000757+585540818+589696796+597322721
3678+608780538+619435101+620533964+612997566+605466975+599660526+591745954
3668+581764578+574037772+570617632+570317780+571411059+573514715+576965044
3658+580982394+584038541+586741157+591814635+600367999+609870690+614859665
3648+611890849+604120302+596978533+593536617+593680940+595205440+596479077
3638+597846187+600082255+603220894+607671252+614653249+623526604+629208943
3628+627617028+622912791+620260728+620709184+624483116+631776989+639936469
3618+644963042+647145058+649542237+653040402+656766163+660243556+662438377
3608+661943500+659960120+659289761+660923742+663873275+666764662+668708137
3598+669704368+670594730+671857050+673213179+674936427+678015282+682458530
3588+686124507+686551931+684480326+683489530+686019605+690602151+692863458
3578+690265557+684949890+680708033+679200247+680347019+684546439+691906983
3568+699113264+700792064+696705065+692105098+690191627+689281610+686588114
3558+682523972+680228046+681712901+685771087+689649176+692338428+694591545
3548+695801600+693903764+688813833+683416046+680577818+680597026+681379136
3538+680720392+678610593+676644039+675741542+676091239+677988777+681001073
3528+683450964+684081119+683425800+682865852+683243990+684581803+686490658
3518+688547298+689891366+689130772+686232014+683473002+682749932+683501070
3508+684154454+684243572+684734056+686519470+688680342+688817928+686080953
3498+682731244+681075152+680618245+680097310+680190895+681854805+683851437
3488+684121621+682585171+680958561+680691951+681966109+683675211+683995351
3478+681812144+678081245+675473294+675813611+677836822+678658763+677293403
3468+675039467+672754485+670429821+669419146+671814166+676893600+681152432
3458+682517569+681919428+681010230+680736101+681409363+682182241+681570327
3448+679469909+677081366+675015643+673221517+671968206+671822952+673160542
3438+675527197+677234810+676864862+675439866+675104016+675958939+676419122
3428+675681609+673855469+671029153+668250783+667590698+669112481+670362293
3418+670068509+669429792+669514666+669898835+669694615+668578368+667173772
3408+666716790+667708108+669293770+670618554+671679484+672405383+672280082
3398+671103827+669213884+667110935+665368777+664254242+663367305+662186509
3388+660851897+660077455+660433927+661849915+663667939+665261418+666523962
3378+667597548+668416437+668692130+668149082+666803079+665120184+663833742
3368+663277740+662867365+661957944+661145011+661508482+662911217+664277248
3358+664990267+665183914+665156367+665163291+665297899+665279212+664838833
3348+664150978+663701889+663804557+663998651+663565271+662851730+662781076
3338+663368273+664279034+666111353+669097070+671240892+670073795+666006600
3328+661901882+659822609+659814345+661174270+663338120+665460352+666544063
3318+666695423+666873510+667057479+666331505+664833994+664166836+665640747
3308+668779386+671645534+672672068+672514752+673293884+675600904+677474096
3298+676808055+673932154+671074047+669820289+669820586+669722236+668811624
3288+667559354+667077655+668400728+671401781+674283192+675405767+675384846
3278+675769238+676435129+676098014+674615244+673041494+671913484+670901990
3268+669737052+668514340+667293340+666197270+665934159+667331683+669923701
3258+671867995+671888022+670438680+668522455+666434695+664374257+663477493
3248+665257844+669971425+675775864+679813725+680736622+679775457+678691671
3238+677647493+675852027+673150714+670101938+667494135+666366646+667358857
3228+669357723+669894070+667815616+664439849+661351911+658835609+657206691
3218+657542987+659867130+662364373+663629671+664133036+664433967+663694667
3208+661383925+658978704+658342965+659435016+660579033+660507039+659366744
3198+657863872+656320871+654748089+653276784+652293433+652179076+652835661
3188+653707261+654401519+654750397+654339426+652878098+650853844+649255600
3178+648858850+649838404+651672212+653287133+653746795+652908921+651321547
3168+649736481+648673541+647942207+646669761+644214286+641116892+638760214
3158+637952865+638324228+638972028+639080354+638115467+636270640+634497064
3148+633455938+633060304+633351483+634626385+636219045+636509629+634861874
3138+632525298+631221508+631492957+632373939+632322567+630739065+628697761
3128+627775311+628135208+628336078+627139647+624968203+623330760+623237696
3118+624294941+625024786+624362505+622847460+621875760+622013011+622332556
3108+621467544+619292713+617064500+615604140+614338432+612782886+611794025
3098+612400728+614305264+616188135+616827783+615709190+613333266+611160520
3088+610494889+611182706+611792126+611198974+609690257+608317638+607683500
3078+607674826+607942850+608251004+608311533+607699023+606585903+606112579
3068+606980233+608201605+608329885+607297731+605990070+604762481+603355465
3058+601683812+600153132+599239765+598677621+597537587+595657545+594105833
3048+593506687+593060241+592006868+591031706+591293737+592678269+593925587
3038+594289914+594076313+593483347+592068364+589709304+587159462+585289471
3028+584393823+584185583+584040961+583557066+582929293+582405194+581668760
3018+580312668+578701023+577791937+578012759+578596047+578356612+577009231
3008+575298715+574015436+573369535+573093172+572770352+572256750+571836361
2998+571803379+572021708+572047319+571576936+570776400+570195047+570180083
2988+570302480+569593779+567574737+564935293+562995430+562530817+563168640
2978+563821205+563602356+562452755+561056758+560077910+559448686+558646958
2968+557554126+556505593+555573277+554485731+553284982+552449417+552265187
2958+552455410+552478415+551968797+550928565+549669520+548475919+547321888
2948+546174222+545457406+545689954+546542793+546909763+546194436+544943767
2938+543964176+543339418+542525629+541078745+539174804+537541233+536814068
2928+536931329+537265280+537209813+536492886+535135119+533335000+531440887
2918+529969434+529360832+529407178+529247480+528426358+527496016+527007839
2908+526614141+525791604+524751484+524052759+523832905+523752163+523354109
2898+522410626+521114431+519861752+518829449+517958444+517267686+516890926
2888+516781557+516554965+515742218+514269164+512610428+511303996+510407864
2878+509646749+508953311+508560022+508631905+509066141+509595527+509810765
2868+509228966+507773966+506072533+504933839+504537907+504233923+503194435
2858+501347301+499551389+498701677+498810972+499107064+498843135+497873222
2848+496577585+495425154+494620188+493991820+493121039+491789255+490407999
2838+489646029+489521062+489301803+488415127+486988307+485462280+484170403
2828+483307290+482902760+482830319+483038112+483551379+484003186+483545981
2818+481776462+479454701+477678556+476649789+475825465+474935290+474208683
2808+473779435+473413767+472839414+472066461+471272886+470481172+469576031
2798+468612000+467765378+466984273+466040604+464939285+464008905+463531115
2788+463310367+462695847+461351853+459897300+459185174+459106144+458826469
2778+457993695+456924799+455841906+454690406+453547543+452587346+451746941
2768+450841056+449914771+449239908+448991986+448979701+448682790+447714477
2758+446303925+445026119+444025941+442953323+441676299+440486829+439576253
2748+438844882+438231925+437788345+437361367+436548919+435180803+433716050
2738+432834957+432568497+432274973+431626242+430957521+430453412+429764478
2728+428693311+427590540+426821943+426315154+425752452+424926490+423894782
2718+422920291+422252389+421908573+421617841+420970265+419776849+418341876
2708+417196929+416545629+416170135+415824123+415467167+415148143+414862474
2698+414512293+413955547+413166252+412324953+411628351+411046254+410395029
2688+409622040+408865467+408207988+407525866+406688141+405816020+405156717
2678+404680341+404022751+402978647+401855029+401094287+400716298+400393478
2668+399905674+399233156+398389065+397487163+396804111+396465916+396195993
2658+395613376+394698854+393808083+393274752+393086353+392931606+392527075
2648+391857126+391107738+390466043+389978797+389500299+388801909+387864718
2638+387007412+386557615+386443518+386250131+385651507+384715320+383818965
2628+383264303+382944572+382507730+381888370+381382437+381076629+380630071
2618+379842005+378972340+378247409+377549317+376819844+376296564+376132883
2608+376130500+375970244+375495097+374766592+374011880+373478400+373238853
2598+373146161+372986054+372669264+372280256+371895269+371403072+370667978
2588+369835726+369229879+368946406+368790021+368581409+368263651+367745620
2578+366953273+366060901+365408299+365143029+365074348+364863092+364324773
2568+363618529+363099046+362906961+362813786+362548777+362105383+361630123
2558+361186580+360743596+360311630+359988363+359809680+359607023+359166682
2548+358523163+357913072+357441685+356998290+356533305+356222546+356225264
2538+356381425+356318030+355858182+355194598+354637852+354311160+354136312
2528+354036882+354040270+354122166+354096443+353840070+353498823+353253097
2518+353032312+352688087+352311885+352160675+352318623+352560552+352573506
2508+352282067+351879658+351533907+351197723+350763970+350265407+349805038
2498+349375864+348914639+348514315+348347544+348329937+348155423+347763326
2488+347431646+347282110+347045467+346485520+345780318+345312132+345246912
2478+345450536+345682415+345721241+345419081+344840446+344285449+343996095
2468+343900723+343755804+343447501+343106366+342995471+343221691+343506764
2458+343421183+342911936+342361891+342065873+341927766+341768068+341642394
2448+341661901+341711076+341595937+341343212+341112823+340922749+340675087
2438+340350070+340001304+339646991+339287763+338976185+338789350+338741887
2428+338769732+338800927+338792551+338722418+338650089+338721785+338954445
2418+339110048+338990629+338753837+338702093+338833462+338836291+338537109
2408+338156999+338018110+338121597+338164332+337939340+337610973+337551822
2398+337905912+338356453+338437010+338058314+337570323+337312499+337266450
2388+337151758+336705126+335798719+334370224+332362759+329736232+326454125
2378+322509477+318081082+313561857+309301982+305463632+302146198+299328332
2368+296719301+294086967+291687144+290110658+289819275+290823082+292730950
2358+295388988+299317034+305112837+312789426+321661850+330239671+336591215
2348+339399701+338876905+336853730+335245324+334100227+332323858+329616552
2338+326438975+323021962+319304018+315436687+311932064+309412487+308215088
2328+308086213+308283751+308137640+307604179+307258520+307697243+308976947
2318+310623287+312055244+313012556+313716343+314617836+315934878+317524299
2308+319175738+320766612+322125830+323084464+323740453+324401059+325187264
2298+325886621+326247598+326304404+326346916+326590557+326953321+327214384
2288+327312659+327368982+327466587+327548074+327546697+327518256+327560656
2278+327649328+327677433+327638942+327623605+327661501+327696679+327645717
2268+327436360+327124372+326939287+327038456+327298365+327495028+327559763
2258+327556785+327551015+327584965+327706916+327951972+328252978+328416734
2248+328337331+328205478+328319761+328721946+329205432+329633117+330045540
2238+330467157+330810749+331051152+331335481+331800541+332402256+333029358
2228+333661412+334325293+335021709+335769758+336636891+337670237+338821066
2218+339959648+340989681+341963577+343051942+344392436+346005533+347825641
2208+349737883+351598642+353337823+355058502+356902397+358848775+360819052
2198+362862886+365031575+367229859+369354585+371391086+373344090+375279821
2188+377333744+379500013+381559594+383271376+384518545+385355712+385997928
2178+386648780+387338831+387952682+388301039+388233772+387822578+387306520
2168+386816854+386308017+385685270+384861058+383776527+382384253+380581193
2158+378293382+375657586+372975444+370427129+367846017+364913645+361654990
2148+358391868+355206287+352240561+350487570+351136412+354107909+358208458
2138+362522011+366812076+371022366+375197106+379510957+383993441+388511140
2128+393003042+397544938+402320126+407506807+413068274+418818848+424692527
2118+430722553+436851042+442933705+448869811+454698596+460550610+466454367
2108+472382544+478636557+485941932+495034993+506360808+520122443+536144454
2098+553340114+569592923+582776929+592045657+597952876+601581442+603606254
2088+603808538+601501369+596265923+587851374+576018174+561122051+544126740
2078+525960348+507494439+489597821+472794557+457444915+444041651+432788909
2068+423405675+415558109+408935339+403162095+398138574+393977124+390518456
2058+387519376+384986136+382830848+380813444+378984997+377511682+376268682
2048+375133599+374260845+373844551+373982658+374680935+375857339+377641227
2038+380576540+385320943+392480581+402727523+416537068+433751898+453580897
2028+474770455+495755085+515034857+531464265+544368073+553919046+561066511
2018+566510048+570109987+571468312+570570691+567726469+563192763+556982825
2008+549016844+539328434+528044200+515379082+501794567+487990829+474618314
1998+462064873+450567783+440308742+431112827+422305584+413405538+404772028
1988+397067966+390484097+384860835+380085386+376067738+372642759+369647513
1978+366988525+364678230+362781102+361234229+359909333+358903906+358371282
1968+357975835+357040728+355430497+353763162+352595209+351910295+351467571
1958+351160311+350895414+350498663+349889131+349178122+348588506+348323385
1948+348490007+349185158+350451052+351780527+352068802+350848509+349064993
1938+347870573+347437974+347306009+347154985+346988549+346915140+346918081
1928+346984157+347467159+348698247+350159650+351051128+351616250+352431826
1918+352770877+351516299+349324233+347955187+348104201+349011091+349533366
1908+349194911+348396980+347774196+347524449+347470286+347494557+347694533
1898+348231066+349034729+349732039+350244375+351122713+352501736+353305399
1888+352611774+351101755+349951633+349416329+349189215+349102331+349101177
1878+349154186+349292479+349617496+350612908+353211479+357643336+361969323
1868+362992841+360024062+355819988+353062800+352232148+352375727+352558095
1858+352511340+352437968+352539296+352792170+353194653+353990648+355545599
1848+358278702+362307145+366195620+366957405+363823530+359883610+357887796
1838+357818147+358250783+358613547+359974403+363431768+367901074+370522798
1828+370353124+369198535+367978205+365972117+363405077+361693221+361383355
1818+361764954+362203137+362981040+364695093+367084307+368802901+368798285
1808+367658288+366965855+367898915+370668164+374384322+377250470+377877163
1798+376913466+376683524+379093807+383703267+386997249+385562872+381051278
1788+377743225+377362444+378817705+380730207+382785024+384664879+385635760
1778+386052910+387787512+392445514+399310436+404584820+404753899+400998506
1768+396475074+393062156+392180654+394512279+398283270+400493094+400869184
1758+401190776+401747224+402403028+404834902+410554876+417739529+421961545
1748+421474746+418921926+417314040+417767672+419920614+422414543+423814598
1738+425007269+429032139+436663276+442755804+441688471+436299284+431367859
1728+428370044+427787389+429617549+432798811+436973737+443891594+455080791
1718+467844817+474830537+472830963+467014277+462701133+461890396+464952537
1708+471412147+479307772+486031460+491928256+500204066+511397469+520452038
1698+523826130+523575266+520730821+516527045+514863247+517824283+524187106
1688+532786481+544877022+560026948+570126664+568866242+563304216+561183660
1678+564585633+572431710+581503590+588912266+595506819+602784908+608215342
1668+608762149+607609607+609806550+615712615+621268350+623313190+623927784
1658+627430528+636801403+652745426+669435599+673030401+665769845+662301983
1648+665118025+667374045+663119904+655925311+651681593+652221066+657463176
1638+666473409+674989957+675074608+666084699+657214583+653835913+654884707
1628+657157479+659028363+660913617+662176235+661129674+659209280+660096068
1618+664297275+667186428+664650471+659765207+657034932+657044983+657992077
1608+658295838+657920380+657702089+658017316+658449282+658490453+658220791
1598+658142915+658476308+658836726+658750884+658316163+658048734+658199126
1588+658505343+658622232+658595429+658749320+659447970+661447283+665947635
1578+672980593+678954111+679020969+675553031+674961442+678540758+682054408
1568+681714836+679444819+678762921+681381221+689198150+704413296+722819495
1558+728395518+718433352+707475325+701314042+699246681+699879292+701909353
1548+705250575+711720235+722777877+737375525+752685596+763782101+763376640
1538+753968986+747136822+747291830+750800938+752004219+750854915+752099069
1528+757836354+765978412+774136700+782386415+789919016+793197102+791940961
1518+789835333+787719653+784487651+781707718+782534871+788612323+799720815
1508+812765559+818322522+809856527+797291397+790207216+789713605+793531463
1498+797881051+798945852+796825779+795813690+798989555+805132970+809527974
1488+808696354+804628936+801379290+800649742+801614704+802857220+804330684
1478+807327717+812791989+820153278+826596955+827586411+822302460+816279730
1468+814396487+816617664+819264926+819348460+819042466+822908568+832521112
1458+843598111+846435372+838446832+828377455+822176266+820474981+821455355
1448+822013143+820268602+817510855+815928916+816271987+818853062+824433477
1438+832056089+836749791+834558245+829704474+828137723+830140907+831818665
1428+830828389+829054068+828850444+830405208+833332853+837609628+841284614
1418+840492825+835208130+829613643+826209362+824657650+823931006+823783518
1408+824543293+825874331+826457061+825907834+826074754+828575868+832425889
1398+835515241+837155699+837304080+835390461+832284952+830462983+830743440
1388+831030747+829087497+826104832+825481899+828840467+835038679+841929361
1378+848227040+853730399+858153247+860728737+861566090+862088737+863222629
1368+864674428+866307440+868610663+871170221+872096990+870338899+867442077
1358+865430852+864419507+863270129+861619025+860138711+859194298+858529225
1348+857949250+857383942+856922866+857398460+859802415+863503013+866022739
1338+865473438+862592028+859607204+858095622+858325304+859668552+861193238
1328+862215826+862716287+863351653+864914905+867600807+870672664+872842842
1318+873350376+872884460+873010431+874495361+876576942+878085696+878878229
1308+879764496+881353582+883420124+885267110+886325136+886457287+886016685
1298+885627528+885701384+886065152+886101187+885280213+883452585+880706303
1288+877256235+873462871+869567510+865314187+860373307+855358349+851801368
1278+850632186+851026629+851245068+850484028+849425853+849079060+849635508
1268+850488197+851073607+851506913+852273240+853468703+854694169+855531597
1258+855742442+855297150+854673919+854722833+855758896+857239209+858668449
1248+860184276+861924200+863532570+864749921+865924315+867470294+869286680
1238+871139547+873221575+875880302+879073514+882402823+885414300+887669501
1228+888851414+889096731+889150559+889904005+891493092+893001548+893621577
1218+893930326+895159590+897468397+899969957+902375997+905536004+910012382
1208+914927651+918746625+920817337+921614783+921720876+921479654+921721398
1198+923624668+927409618+931925382+935876061+939002788+941630469+943617571
1188+944645593+945301509+946847413+949573593+952363578+954513133+956673856
1178+959296548+961638709+962939371+963511231+964272197+965780131+967854938
1168+969828639+971146946+972029268+973302309+975334306+977431596+978672846
1158+979162884+979875308+981309834+983094503+984841278+986616716+988586918
1148+990539996+991890988+992507220+993256497+995272189+999138440+1004591172
1138+1009910934+1012464089+1011550573+1009397444+1008275837+1008594413
1130+1010005934+1011971967+1013373287+1013905390+1015188705+1018624480
1121+1023019557+1025566757+1024798569+1021768182+1018924667+1018231526
1113+1019777282+1022121080+1024203853+1026788724+1030746252+1034465239
1104+1035487231+1034307924+1033625504+1034426003+1035649832+1037106247
1095+1039912015+1043791965+1046475558+1046615452+1045669922+1045900051
1087+1047630520+1049353470+1049625738+1048547759+1047672659+1048353367
1078+1050149949+1051380702+1051209017+1050525778+1050978218+1053273177
1070+1056255469+1058232446+1058977851+1059407807+1060061935+1060788579
1061+1060716138+1059148717+1057388393+1057902925+1061107900+1064739407
1053+1066816372+1067240446+1066381726+1064602193+1063112871+1063065222
1044+1063836984+1064029142+1063276217+1062183497+1061688247+1062477281
1035+1064584623+1067402005+1070046512+1071828129+1072566462+1072263669
1027+1070755287+1068372179+1066520950+1066429449+1067694822+1069354786
1018+1071288730+1073163858+1073741823+1072635553+1071020855+1069669863
1010+1068443131+1067864422+1068890806+1071057261+1072336333+1070858030
1001+1066212722+1059709334+1053760460+1050439638+1050071626+1051070389
993+1051661531+1051811700+1052180010+1052470369+1051863220+1050028891
984+1047487201+1044753428+1041535349+1037499274+1033285187+1029872046
975+1027589447+1026312758+1025452176+1023537291+1019597408+1015013001
967+1011997429+1010466861+1008201609+1004085797+999320697+995013918+990634028
957+985623611+980990959+978124811+976872840+975744308+973475259+969949994
947+966211948+963728107+963110460+963616803+964114435+964114732+963879690
937+963941782+964158063+963499021+961664022+960047240+959903177+960689903
927+961316633+961919092+963001166+963704060+962615806+959996687+957554539
917+955937533+954428184+953083223+952843192+953561349+954095685+954203937
907+954162765+953281338+951137590+949089660+948702737+949711328+950674503
897+950984741+951199086+951480140+950869863+948671840+945676147+943307854
887+942488072+943598958+946220683+948614438+948962051+947483524+945957796
877+945359357+945264134+945236140+945502378+946235946+947099654+947683203
867+947875212+947423964+945544368+941748548+937281401+934926733+936574264
857+941144451+945430979+947125265+946389464+944532279+942472884+940870545
847+940502458+941652208+943415138+944214670+943239285+941169616+939349730
837+938457507+938176454+938048249+938211074+938836836+939459546+939929407
827+941296480+944368114+948103926+950674652+951505006+951613258+952247806
817+953862280+956305024+959116972+961347158+961670574+959780183+957636435
807+957663387+959232446+958716573+954368697+949154507+946932660+948297648
797+951333471+954264540+956318277+957496318+958350646+958987352+958441625
787+956390941+954618183+954871690+956794094+959729556+964206158+969363840
777+971627678+968953912+963847006+959434060+955441316+950171511+944448596
767+941181453+941708419+944647827+948454070+953087541+958082994+960779542
757+958790578+953894071+951130666+953831085+960416592+965926428+966981327
747+964835420+962874822+962399004+961890056+959845477+956867950+954909809
737+955563267+958901585+963243058+966263022+966884764+965667412+963396948
727+960355840+956862143+953506627+950921234+949894776+951315081+955509141
717+961450943+966237857+966422645+961949915+957271252+956261173+957462964
707+956205632+951390128+947158247+947283400+950503861+951974793+948994512
697+943339943+937601095+932658726+928433620+924614125+921081043+918978168
687+919790431+921944156+920933629+914969567+907486997+902985305+903132495
677+906598943+910848990+912683096+908419126+896855812+882155347+873952462
667+879157867+889697999+894004703+890065043+882507948+876434293+873710347
657+873834606+876142147+880210756+884591093+886677067+884791664+879845871
647+874949215+872463215+872073537+872321758+871934537+869873206+865914710
637+861286675+857827523+856805159+858836560+863294624+867245823+867130052
627+862579371+857595607+856171579+856600195+853970950+848487470+845219286
617+846665351+850731132+854234880+855481863+854311714+851433207+848281985
607+845693763+842756291+839817255+838933966+840039120+839906597
##END=
