##TITLE=<SNM>
##JCAMP-DX=4.24
##DATA TYPE=INFRARED SPECTRUM
##DATE=2/5/2025
##SAMPLING PROCEDURE=Instrument type and / or accessory
##ORIGIN=Admin
##XUNITS=1/CM
##YUNITS=ABSORBANCE
##RESOLUTION=4
##FIRSTX=4497.3318
##LASTX=599.83466
##DELTAX=-1.4281778
##MAXY=1.7158613
##MINY=0.21466544
##XFACTOR=1
##YFACTOR=1.5980204e-09
##NPOINTS=2730
##FIRSTY=0.23351248
##XYDATA=(X++(Y..Y))
4497+146126094+145479132+146183730+147560307+148458338+148376588+147621058
4487+146821105+146529716+146987730+147963463+148929238+149515412+149657363
4477+149398703+148840784+148203296+147667495+147209836+146713115+146167561
4467+145733297+145663212+146076402+146755524+147278504+147335748+146935045
4457+146477199+146504884+147145243+147916168+148190391+147657760+146437158
4447+145091884+144335916+144353046+144597802+144511856+144179279+144060295
4437+144295857+144544996+144493355+144229978+143918894+143425512+142689191
4427+142176245+142397587+143149611+143684264+143430454+142293467+140662491
4417+139361202+139091203+139692613+140342736+140537241+140367978+139925098
4407+139137016+138246389+137805496+138022604+138583591+139173989+139739153
4397+140218800+140398199+140130840+139586274+139165447+139130684+139294604
4387+139197459+138684653+138103506+137805710+137642928+137146869+136171816
4377+135229605+135031808+135698799+136652862+137327639+137679108+137876616
4367+137845844+137429978+136773683+136134815+135476729+134747057+134333830
4357+134592658+135174355+135520994+135696076+136047013+136481668+136692212
4347+136708736+136764647+136885543+136881635+136657412+136400254+136363981
4337+136489483+136418484+135885145+135013830+134332105+134424085+135331403
4327+136445134+137190229+137475269+137342997+136801545+136123486+135702482
4317+135603052+135645713+135692420+135662264+135665090+136091968+137116041
4307+138307821+139164477+139615003+139680892+139259748+138553733+138110891
4297+138118211+138106014+137601694+136839842+136559409+137064960+137773810
4287+137909252+137404624+136739088+136125724+135431001+134777186+134650527
4277+135292892+136289448+136981289+137220311+137418751+137830477+138222732
4267+138414281+138619715+138950222+139068097+138746858+138366567+138372012
4257+138582323+138578546+138434871+138485998+138716795+138914229+139077449
4247+139233331+139201217+138888222+138484646+138208139+138170346+138468766
4237+139034677+139462114+139402725+139121332+139265054+140046320+140982676
4227+141502512+141514504+141236990+140773633+140161658+139656163+139584437
4217+139920436+140366784+140814932+141307793+141665957+141650133+141311634
4207+140795462+140181622+139775557+140020910+140890230+141800756+142260793
4197+142263227+141993172+141527074+140980288+140633221+140619709+140681626
4187+140522163+140227967+140126383+140412131+140996318+141543327+141768007
4177+141871297+142367151+143295711+144058952+144248870+144211794+144543812
4167+145345126+146182704+146584350+146399095+145791680+145056627+144469484
4157+144211878+144278364+144406812+144293153+143996560+143935427+144337287
4147+144911394+145196200+145043983+144680597+144405843+144311700+144334368
4137+144476543+144745348+145012409+145254657+145711468+146439350+147002621
4127+146953685+146299170+145291229+144173106+143303012+143104842+143640764
4117+144494624+145248298+145807019+146129506+146061072+145704745+145522744
4107+145763453+146130980+146286386+146333336+146491578+146601852+146329150
4097+145687774+145056021+144788177+145036691+145691289+146281248+146368948
4087+146232219+146582242+147476179+148158314+148080648+147502764+147033169
4077+147028880+147413974+147796466+147820291+147492899+147084987+146776962
4067+146544235+146314323+146125599+146141712+146478476+146977109+147282793
4057+147275109+147252795+147528659+147979689+148168813+147852806+147224420
4047+146728678+146740437+147278895+147971445+148447344+148700148+148869056
4037+148836700+148385288+147723369+147507622+148154341+149287710+150096512
4027+150191933+149902473+149775423+150041785+150554815+150987988+151077785
4017+150835742+150465102+150078226+149682539+149332357+149055524+148782000
4007+148540144+148568631+149095695+150076734+151159116+151906421+152120480
3997+151905237+151477836+151107074+151107475+151613661+152425903+153266018
3987+154086765+154907829+155469049+155368631+154579765+153610931+153091290
3977+153334695+154227960+155290312+155922839+155857015+155282339+154494779
3967+153748798+153412193+153735277+154450114+155052372+155407338+155685001
3957+155905187+155982676+156040890+156382904+157204238+158296522+159034932
3947+159078907+158967029+159293992+159586790+158931800+157520460+156429304
3937+156304716+157229658+159090153+161187348+162202031+161656831+160792463
3927+161015474+162291120+163490639+163857345+163790971+164135913+165024581
3917+165524388+164571603+162374036+160296665+159347889+159551076+160837744
3907+163705463+168325995+173352657+176548254+176908264+175050100+171859987
3897+168328736+165914928+165750365+167441485+168908382+168627464+168024898
3887+169115541+171180342+172080984+171983185+172305748+172175350+170215621
3878+168060519+168204959+170769754+174333324+177826977+180027975+179678427
3868+178043349+177683450+178604047+178361193+175788509+172594909+171086535
3858+172700111+178192993+186635428+192359042+189518999+181871724+175405728
3848+172264122+172345956+174745404+178436201+182662743+186757508+189513516
3838+189599211+187499945+185281267+183895607+182709162+181308191+180346136
3828+180238808+180628527+181852048+184983136+189132581+190986661+189828674
3818+188233375+186840368+184372644+181323819+179640905+180494456+183745647
3808+187575830+189772688+191074742+193697500+196795410+197416010+195801950
3798+194224703+192692141+190604103+189154811+189577689+191352415+193407929
3788+195683469+198540614+201590259+204379948+207424334+211160617+214738249
3778+217325852+219709112+223286856+228891039+236479549+244643491+251433746
3768+256784053+262074979+267837645+274424993+283122703+294438340+306535225
3758+317264316+327222006+338881876+354106939+372521145+390427897+404253462
3748+415667270+427612068+438839194+445433517+448538663+453372546+462455238
3738+475170970+488972066+500231419+506606909+509226869+511020729+513540355
3728+516300559+518353238+519893278+521762185+523547355+523930416+523138594
3718+523229119+525875338+531272548+538275034+544523558+548159134+550036134
3708+551926674+554685050+559156610+565640975+572342720+577020469+579789811
3698+581917759+583923702+586219683+589835789+595457129+601690621+604620312
3688+601694798+595592300+590459690+588029321+588079898+590179611+594740688
3678+601534487+606532224+604573166+598505356+594777726+594671984+595305508
3668+593884787+590201991+585920507+583239153+583341539+585696004+589332923
3658+593790794+598553360+603457887+609510665+617036271+623105536+622899645
3648+616960218+611605305+610519866+612997045+616407484+618286834+618376538
3638+618634573+620487291+623722760+628722885+637022744+647669162+653957633
3628+650504113+642980820+638552378+638913209+642966572+648659675+653633951
3618+657014141+660478029+664884837+668158500+668698665+668669497+671296246
3608+676208009+680004082+680891949+680550588+681718571+685207375+689127058
3598+691558508+692883147+693794661+693344461+691631167+691683311+695172413
3588+698408703+696713983+691434377+686712615+684015670+683213069+684850050
3578+689071407+693771759+696617975+698232726+701131235+706320205+711865455
3568+714111454+711099705+705180793+700458136+699011381+700181228+701527873
3558+700706846+697858393+695808735+696669896+698777963+698774606+696222605
3548+693585562+692686804+693389220+694910574+696737705+698371404+699545503
3538+700160415+699533941+696989996+693737892+692606164+694613300+697491221
3528+699027643+699867991+701217769+702302202+701533244+698761253+695536601
3518+693930579+695190615+698769459+702329281+703157618+700559217+696893317
3508+695394790+696943820+699513277+700655448+700215469+699945125+700769360
3498+701822536+701851331+700870664+700196446+700929522+702976718+705026599
3488+704979826+701814778+697587676+695418289+695655361+696390675+697227442
3478+699769447+704130676+707493558+707138024+703409536+698777217+695444398
3468+694520351+696220591+699785635+703327403+704359319+701886615+697890768
3458+695146677+694567796+695518921+697374549+699790633+702279076+704296358
3448+705306640+704806534+703101819+701700941+701968450+703556046+704832122
3438+704711496+703840862+703464738+703611174+703384247+702506824+701567783
3428+701069990+701193450+701790235+702232228+702137564+701712280+700854327
3418+699212572+697117186+695060591+693045323+691382830+690727858+690967318
3408+691679879+693297614+695926600+698257045+699174452+698767743+697648548
3398+697098387+698838239+702850647+706444634+706924673+704379460+700642095
3388+696889885+693566465+691638850+692412209+695886093+700156462+702927632
3378+703494205+703058328+702794698+702551359+701855433+700990841+700995690
3368+702373443+703953804+703849963+701836933+699939008+699674931+699927744
3358+698790869+696799398+696608949+699244201+702409697+703661379+703378951
3348+703248478+703833328+704671959+705233086+705107090+704318364+703449520
3338+702814616+702088926+701257679+701012251+701644768+702309661+702050881
3328+701254397+701367786+703349857+706930342+710665768+712408380+711152520
3318+708560013+706953692+706316400+705357367+704460847+704758269+705607569
3308+705483214+704342161+703341055+702976568+702937404+702986266+702819763
3298+701979938+700921987+701008447+702396941+703420129+703168136+702974480
3288+704409300+707293784+710050334+711408019+711925581+713257157+715261608
3278+715426470+712667310+709623259+709252731+711394964+713937342+715503306
3268+715826241+714914354+712926240+709989834+706279996+702902492+701563307
3258+702681607+704651893+705492389+704937081+704447419+705161994+706359592
3248+706314610+704439959+702111081+701279462+702669448+705330586+707514669
3238+708139279+707461406+706690957+707054996+708464900+709396630+708781942
3228+707203670+705717899+704632945+703864360+703309723+702697049+701915410
3218+700867978+699249274+697666899+697827583+700371826+703577307+705339836
3208+705678437+705990929+706477383+705872243+703653621+701381512+700996959
3198+702095938+702415516+700998600+699301418+699159309+700575106+701608663
3188+700571153+698062717+695933015+694716992+693518573+691905315+690184709
3178+688193984+685547393+682798229+681119548+681102838+682394579+684129134
3168+685325687+685369029+684593059+683954276+683982176+684534574+685323226
3158+685790135+684865193+682276490+679772605+679362539+680669199+681577804
3148+681217048+680483897+679980733+679436316+678785746+678173818+677234255
3138+675652775+674012885+672948072+672131148+670973833+669624502+668562449
3128+667877788+667490624+667394914+667315691+666958366+666673327+666997978
3118+667899794+668764685+668548126+666382991+663098511+661128301+661596404
3108+662865541+663220927+663370272+664630905+666155765+665890121+663757063
3098+661883233+661452877+661238184+659943384+658273953+657573999+657802120
3088+657683957+656187594+653563009+651204739+650296731+650550737+650804744
3078+650657189+650597958+650850472+651084636+651063152+650839208+650449060
3068+649890469+649244599+648525473+647567857+646228672+644738277+643602595
3058+642897419+642136743+641288040+641176143+642102726+642832519+641973746
3048+639870527+638119038+637551943+637418413+636545018+635182931+635062903
3038+636949116+638984973+638687848+636027456+633115818+631397003+630541586
3028+629727870+628800094+628115656+627887684+627714094+626800268+624980708
3018+623407285+623546821+625326508+626976767+626948345+625266978+622952647
3008+620952261+619638477+618738600+617762633+616654590+615811892+615557252
2998+615744866+615818606+615390637+614662560+613849142+612642779+610997667
2988+609692946+609281761+609369899+609467212+609498207+609257629+608345891
2978+606805179+605237015+604209239+603632969+602773226+601253513+599792472
2968+599281214+599627461+600089969+600087023+599274425+597620026+595671076
2958+594093102+593050855+592350080+591767991+591256099+591077176+591359380
2948+591570456+591041182+589735342+587879304+585553298+583240757+581748459
2938+581136456+580681967+579953815+579102129+578399713+578130190+578404040
2928+578722163+578362041+577324381+576333271+575976953+576206641+576375493
2918+575559875+573403095+570708499+568633404+567468778+566755471+566154621
2908+565566974+564876494+564120480+563606350+563581919+563941258+564218054
2898+563803661+562474771+560675875+559067018+558001346+557391246+556778758
2888+555700070+554209226+552775787+551597174+550489504+549425660+548732681
2878+548688482+549029246+549028798+548289084+547218191+546451397+546173966
2868+546184335+546107388+545459578+544037066+542231196+540615401+539369836
2858+538304724+537258971+536344025+535762757+535327589+534499624+533139253
2848+531777950+531038533+531121039+531774257+532460709+532659476+532192156
2838+531108693+529453547+527497138+525834346+524718396+523563468+521678299
2828+519338492+517520910+516697794+516494887+516337224+515832904+514768911
2818+513359939+512297774+512083006+512451297+512656852+512189234+511130761
2808+509907054+508727956+507382766+505721690+504098808+503029258+502582714
2798+502398904+502128038+501555423+500477406+498891674+497264130+496199093
2788+495799061+495575155+494943607+493693380+492149983+490929707+490290252
2778+489859672+489247221+488513437+487742764+486774257+485688183+484877712
2768+484347282+483585897+482335856+480901148+479592213+478351273+477029805
2758+475749478+474849564+474439759+474072848+473185616+471891562+470842788
2748+470254022+469678162+468837329+467978295+467246749+466373541+465184932
2738+463921016+462874964+462103993+461632458+461587513+461892209+462052632
2728+461503665+460076939+458070846+456068260+454657498+453980707+453524801
2718+452668825+451462163+450540578+450240880+450171914+449806495+449133770
2708+448505505+448095140+447724947+447071170+445917696+444348749+442752200
2698+441575975+441058339+441048977+441001346+440379235+439170111+437766809
2688+436434562+435231816+434324442+433959136+434088228+434253947+433904306
2678+432799694+431197365+429676533+428642715+427966334+427211625+426184558
2668+425085542+424189731+423643822+423487315+423600779+423675824+423357290
2658+422424665+420984138+419544619+418653432+418404722+418454293+418363581
2648+417805476+416724400+415444595+414422265+413871246+413697731+413631898
2638+413396243+412914414+412314682+411684328+411007052+410323249+409703040
2628+409090963+408403690+407724586+407208181+406841681+406464662+405999729
2618+405485599+404915446+404261444+403641571+403230125+403001072+402723418
2608+402203767+401450625+400631426+399906220+399322714+398855842+398427910
2598+397895503+397193535+396455238+395810001+395180729+394458209+393708946
2588+393066544+392574570+392201243+391899755+391632097+391327327+390861984
2578+390246475+389750509+389548871+389355027+388739071+387672616+386504597
2568+385591590+385098310+384944303+384877351+384727334+384529873+384348450
2558+384124992+383750584+383183191+382499238+381882461+381514841+381411672
2548+381372322+381163037+380781169+380444284+380255924+380019858+379498044
2538+378746692+378078330+377735030+377674083+377680014+377613659+377438391
2528+377085691+376525086+375951576+375641845+375569149+375369077+374770128
2518+373942835+373332362+373180406+373283649+373229715+372828116+372283102
2508+371929880+371837714+371783481+371616829+371431565+371278378+371003223
2498+370578274+370294280+370337882+370422514+370148440+369549306+368991759
2488+368706198+368655210+368684714+368597956+368222989+367564921+366864594
2478+366467248+366545650+366830354+366758702+366100150+365215753+364524154
2468+364077423+363850495+364011665+364622325+365335259+365610749+365175880
2458+364242695+363316895+362782624+362644878+362647377+362589825+362478785
2448+362374348+362203742+361864619+361438589+361113267+360942810+360833263
2438+360698353+360538116+360439087+360491343+360625507+360611744+360292166
2428+359726750+359098596+358594947+358357539+358417777+358692708+359079686
2418+359471288+359680909+359535368+359116873+358748731+358641496+358714752
2408+358840002+359015830+359179647+359136417+358836048+358481036+358251124
2398+358118191+357962430+357715510+357391493+357054161+356749278+356483075
2388+356251895+355959433+355277756+353714254+350879414+346723032+341587848
2378+336013952+330395148+324848891+319449518+314425970+309987569+306068390
2368+302461851+299192049+296497938+294468068+293100274+292767958+294154569
2358+297616126+302946459+309915433+318766237+329428096+340090328+347718693
2348+350263756+348180418+344231604+341153985+339191384+337014052+334035834
2338+330667655+327391195+324255874+321070311+317993997+315722224+314812649
2328+315018913+315546955+315863065+316136616+316939478+318596675+320888553
2318+323285203+325347878+326990565+328453770+330015108+331760555+333634981
2308+335559761+337421283+339042672+340275518+341156148+341905561+342672541
2298+343368393+343894719+344355624+344844465+345275269+345645947+346171192
2288+346939068+347690084+348090117+348059084+347790904+347559389+347480128
2278+347430297+347254208+346974092+346727135+346629449+346743435+347008295
2268+347205682+347177223+347043543+347052867+347271850+347544506+347684191
2258+347630891+347482030+347412169+347533652+347818617+348164491+348530544
2248+348979028+349548547+350109898+350417503+350358086+350141602+350160251
2238+350582216+351177434+351668327+352100847+352659101+353281660+353739357
2228+354004590+354306526+354856799+355693603+356771508+358034230+359341749
2218+360479705+361361380+362139364+363050804+364218115+365630070+367261083
2208+369140060+371230374+373326208+375273181+377229926+379458843+381931621
2198+384336328+386405568+388186784+390050953+392347791+395025005+397731425
2188+400202114+402353896+404179013+405711482+406962082+407892805+408573476
2178+409226918+410014413+410858788+411469635+411542443+411055466+410351484
2168+409810051+409469026+409025950+408164417+406793341+404988253+402911218
2158+400809268+398796312+396647999+394073805+391022631+387593430+383980010
2148+380403889+376864358+373543213+371540888+372123201+375150691+379273094
2138+383509147+387697681+391826686+395831411+399720844+403495098+407178864
2128+410868113+414627485+418569808+422901048+427627137+432451620+437072413
2118+441411038+445664025+450149759+454892147+459514581+463727136+467632906
2108+471449046+475254146+479154620+483577355+489223201+496581558+505474808
2098+514986252+523742130+530637419+535566601+539095837+541481596+542443278
2088+541564288+538505393+533053242+525071021+514556194+502090404+488859721
2078+475870700+463590248+452288971+442182271+433431988+426226781+420520250
2068+415861449+411844789+408356656+405307347+402637816+400398158+398471438
2058+396631438+394895951+393354866+391959322+390773659+389912984+389215156
2048+388477903+387767617+387191720+386738126+386398705+386203481+386307769
2038+387084821+388893228+391899867+396268257+402270645+410187629+420202723
2028+432134205+445137736+457896436+469135647+477984437+484168881+487949401
2018+489788244+490146874+489386086+487592785+484646160+480463444+475056163
2008+468591417+461481061+454108866+446536152+438755346+431023029+423669073
1998+416804220+410484082+404965203+400451234+396651841+392961435+389145146
1988+385529077+382548585+380365396+378771683+377340182+375806818+374266106
1978+372920804+371854200+371062416+370447280+369870674+369402832+369239500
1968+369244796+368995377+368405530+367832579+367484206+367205582+366888615
1958+366642553+366481235+366242334+365896311+365597434+365400793+365219632
1948+365085803+365234551+365811195+366494662+366606410+365881988+364880173
1938+364279546+364184769+364322962+364485288+364564474+364443028+364079773
1928+363710102+363810212+364571486+365508252+366105447+366613833+367326692
1918+367546757+366504435+364867305+363980483+364221099+364897517+365187032
1908+364827880+364159294+363702157+363669483+363845796+363911778+363842774
1898+363922110+364289132+364662608+364836757+365140670+365838125+366462734
1888+366413089+365819214+365203444+364849812+364815086+365001246+365165697
1878+365210904+365324778+365734359+366679479+368521045+371213589+373537992
1868+373754774+371735813+369200485+367587898+367036245+367022966+367121995
1858+367190812+367278539+367460708+367709157+368035710+368647974+369837627
1848+371902615+374890716+377744094+378373702+376277122+373550188+372014363
1838+371707317+371843757+372106305+373062391+375341960+378340543+380306800
1828+380504634+379910124+379140906+377879042+376308155+375280715+375136815
1818+375431888+375707901+376120541+377178454+378902490+380475168+381053489
1808+380784451+380594748+381294479+383086810+385455822+387366690+388049822
1798+387864184+388108941+389873745+392847785+394898301+394104465+391620796
1788+390050132+390357962+391775624+393362549+394845000+396052072+396738636
1778+397372608+399165871+402937626+407943756+411606075+411837404+409624041
1768+407068235+405385115+405460049+407630257+410618881+412485363+413207099
1758+414061546+415230163+416499076+418787261+422940324+427789611+430796027
1748+431131420+430312929+429915508+430553359+432196905+434298743+436159780
1738+438286497+442412555+448858242+454141167+454579394+452159282+450167289
1728+449517241+450317679+452500718+455499450+459207423+464743535+472973608
1718+482133397+487819190+488201505+486342520+485514220+487048666+491161819
1708+497469126+504673400+511050568+516751915+523889909+532938137+540698018
1698+544934258+547134715+547992855+547827135+548822497+552581906+558680376
1688+566530931+576993427+589780996+599395946+601357578+600213802+601254035
1678+605823281+613051949+620928502+627904021+634652016+641945175+647790980
1668+649985955+650831002+654079451+660133983+666187992+670004804+672788208
1658+677086178+684575902+695601800+706761303+710591617+708807156+709568430
1648+713698032+716223849+713489754+708621929+705730283+705809879+708719205
1638+714080720+719542196+719987099+714040661+707050445+702962022+701703403
1628+701599114+701627312+701714741+701098785+698730370+695887884+695111690
1618+696570158+697157096+694386298+690326893+687731625+686720001+685972901
1608+684732483+683441041+682657537+682216140+681676647+680943795+680177299
1598+679460412+678754937+678008732+677242013+676604498+676353923+676644632
1588+677246489+677649990+677580241+677191734+676859549+677252084+679290029
1578+683071258+686390501+686275694+684101756+683728318+685849441+687734684
1568+687268222+686105909+686657040+689873337+696626181+707737121+719503405
1558+721776633+714665569+707880125+704569536+703811097+704521122+705952585
1548+708192766+712369216+719320789+728532461+738480864+745952163+746170884
1538+740955805+737870876+739638925+743602173+745855633+746370285+748246054
1528+752652564+758065999+763194992+768605592+774243717+777968027+778892223
1518+778677978+778238222+777546026+777508279+779569126+784532735+792313317
1508+800849727+804212834+798911519+791450217+787747988+788318067+791311241
1498+793985583+794334254+793197156+793209613+795706487+799764101+802832321
1488+802868650+800646522+798694141+798732260+800472783+802311403+803510716
1478+805172986+808604051+813643526+818408480+820078657+817759924+814231956
1468+812688969+814102901+817079887+819230103+820319161+822688471+827955843
1458+834057968+835435571+830871510+825751246+823462800+823812888+825038461
1448+825058378+823218491+820934744+819805851+820290963+822419993+826366829
1438+831459343+835016106+834624317+831849044+829736052+829272127+829658545
1428+830074355+830677481+831747217+832918333+834099072+836011469+838572944
1418+839873786+838789950+836622502+834750686+833478789+832717664+832400622
1408+832421883+832410171+831666801+830126201+829166794+830149699+832669623
1398+835111592+836397514+836256822+834868775+833420080+833527799+835332104
1388+836919999+836272189+834151962+833475432+835908374+840709135+846186948
1378+851396731+856330276+860844580+864149351+865826689+866655101+867615179
1368+868940414+870627525+872831302+875126089+876239093+875277076+872680987
1358+869660883+867422268+866689491+867207575+867798466+867298062+865520017
1348+863254696+861495673+860981543+862108198+864460276+866571253+867066808
1338+866253540+865659142+866008634+866671438+866855845+866535894+866173198
1328+866117995+866525972+867403246+868457317+869339887+870179713+871371566
1318+872872853+874260826+875373009+876365089+877194844+877653920+878047574
1308+879220704+881531306+884190206+886065229+886830158+886902071+886691630
1298+886330724+885790335+884981543+883856529+882358673+880293052+877503754
1288+874027408+869945400+865516063+861522080+858769261+857055444+855339017
1278+853004693+850337661+847797148+845585240+843961016+843293736+843646137
1268+844726541+846183890+847588199+848440781+848625710+848555364+848706350
1258+849319397+850403009+851702434+852935242+854245259+856005924+858148754
1248+860131199+861435397+861993913+862429865+863571663+865438033+867261509
1238+868685065+870232379+872509262+875436865+878177674+879802868+880408306
1228+881294159+883533892+886728705+889635271+891638528+893071707+894395823
1218+895749555+897347745+899676922+902817875+905999484+908372375+909938637
1208+911423661+913537025+916251426+918603654+919794538+920542608+922246951
1198+924853781+926948347+928071944+929527502+932399529+935932122+938566778
1188+939945127+941168536+943381638+946605320+949832509+952179067+954035739
1178+956612805+960196721+963725063+966288552+967810129+968047873+966493174
1168+963873364+962560213+964350344+968221463+971460662+973290554+975574897
1158+979176642+982268734+983473344+984150993+986065553+988840976+991147027
1148+992853832+994544225+996119587+996956503+996948148+996811261+997207974
1138+997984167+998632424+999463596+1001480953+1004433098+1006010774+1004610343
1128+1002166286+1002143906+1005681796+1011041595+1015722999+1018136919
1120+1018234941+1017606228+1018032109+1019764724+1021796254+1023237117
1111+1024162805+1025320045+1027327629+1030082836+1032316228+1031778823
1103+1027524867+1022405050+1021258178+1026227829+1034370063+1039807668
1094+1039204020+1035034807+1032363747+1033493908+1036844631+1039802148
1085+1041004296+1040570583+1040104643+1041987275+1046799972+1051645939
1077+1052991018+1051018868+1049148320+1049951667+1053379599+1058178197
1068+1062979555+1065939458+1065495301+1062245435+1058747828+1057197679
1060+1057709124+1058817204+1059799288+1061962186+1066578913+1071894028
1051+1073741823+1070051231+1063735159+1059994810+1061096251+1064245410
1043+1064892548+1062152411+1059565871+1060425316+1064355815+1068138834
1034+1068899660+1066909681+1064752080+1063816247+1063297044+1062616859
1025+1062762400+1064334629+1066082612+1066980326+1067846782+1069222894
1017+1069380892+1066424793+1061531680+1057703231+1056014554+1054985100
1008+1053754231+1053905068+1056559642+1059834126+1061056341+1059643229
1000+1056632450+1053688659+1052600795+1053713799+1054985697+1053796230
991+1049767634+1044948671+1041349984+1039270935+1037987325+1037293264
983+1037563757+1038322121+1037851631+1034928728+1030175710+1025447682
974+1022106583+1019993890+1018240312+1016205574+1013447309+1009683387
965+1005038387+1000051653+995416799+991768877+989491322+988454558+987743712
955+985740753+981502760+976566604+973535981+972329357+970191599+966137192
945+962760062+962217882+962899336+961855112+959076855+957039058+956916792
935+957709397+958699687+960374713+962549023+963811149+963584445+962653610
925+961487119+960152261+959300649+959277747+959046717+957749531+956256300
915+955610878+955280259+954375757+953546524+954143608+955916879+956733355
905+955109131+952327890+950862261+951273446+952099694+952452469+952719530
895+952590997+950840329+947524070+944318590+942358599+941467600+941426272
885+942437673+944426832+946626133+947809035+947016356+944349473+940991067
875+938383341+937423860+938185731+939980486+941796726+943083320+943946345
865+944393113+943930307+942382620+940494616+938879941+936989475+934261274
855+931746646+931191114+932829214+935187857+936722414+937025208+936879145
845+937491148+939299331+941427690+942535173+942091836+940811360+940037405
835+940496780+941696765+942757923+943109504+942184040+940062320+938438469
825+939306269+942802458+946994051+949553437+949623858+948255878+946938177
815+946038374+945186091+944716422+945609435+948072590+951319025+954499142
805+956977440+958256425+958270002+957092918+954588809+951421672+949635495
795+950693595+953311540+954764711+954110635+952490439+950783187+949321885
785+949192233+951202055+953949280+955001187+953851332+951859787+949937543
776+948364120+947993889+949628557+952144080+953235749+952224944+950539027
766+949627737+949585216+949936349+950415567+950510680+949614682+948021863
756+946786743+946413305+946502524+946951977+948692650+952450081+956903663
746+959381812+958734524+955893754+951928193+947728991+944882775+944648761
736+946207712+947142501+946161685+944543503+944414971+946200998+948146218
726+948883994+949546201+951813610+955174703+957332453+956703591+953707731
716+949567163+945146629+941685501+941467749+946056278+953327131+957699177
706+955845563+950994822+948115260+947279389+944935069+939725361+933837034
696+929474686+926581846+924964336+925552542+927610853+927350878+921626817
686+911940551+902570582+895834895+891425775+889361720+891245620+897618611
676+905220903+908420491+903503953+890723732+873983321+862593682+865727325
666+877760223+886962719+888902717+884597437+877744632+872588933+871027669
656+871920832+873172961+873976532+874722812+875482295+875545927+874356908
646+871954774+868083207+862604947+857448203+856067318+859395960+863970166
636+866123291+865505321+863183455+859949776+857162940+855884926+854330525
626+849234281+841239602+835556420+834918532+835997295+835472647+835272127
616+838783907+845208818+849101198+845536528+836056750+827433507+824785872
606+828253042+833821865+836381252+834952549+834822300
##END=
