##TITLE=<SNM>
##JCAMP-DX=4.24
##DATA TYPE=INFRARED SPECTRUM
##DATE=3/5/2025
##SAMPLING PROCEDURE=Instrument type and / or accessory
##ORIGIN=Admin
##XUNITS=1/CM
##YUNITS=ABSORBANCE
##RESOLUTION=4
##FIRSTX=4497.3318
##LASTX=599.83466
##DELTAX=-1.4281778
##MAXY=1.7504375
##MINY=0.19809762
##XFACTOR=1
##YFACTOR=1.630222e-09
##NPOINTS=2730
##FIRSTY=0.21890943
##XYDATA=(X++(Y..Y))
4497+134281977+133984113+134025840+134187281+134329581+134367871+134184502
4487+133693708+133067442+132817484+133408550+134657243+135666088+135600696
4477+134542045+133389217+132918277+133133071+133493456+133502551+133093840
4467+132650403+132586145+132875572+133216918+133494928+133645747+133391704
4457+132752942+132405984+132775163+133181050+132701901+131525619+130684202
4447+130741806+131343393+131803346+131718750+131095930+130160648+129237487
4437+128782351+129155122+130091838+130810369+130950906+130869875+130766842
4427+130314466+129440198+128663925+128319216+128119906+127736112+127228581
4417+126794002+126518094+126436130+126584564+126960251+127461300+127867507
4407+128057138+128233277+128614749+129035919+129193055+128967137+128271201
4397+127160036+126250869+126254955+126991969+127642997+127887352+128005009
4387+128122209+128073728+127687584+126759167+125162785+123271226+121864592
4377+121515733+122219009+123437694+124420342+124727630+124535111+124356842
4367+124557240+125142154+125815211+126100251+125568836+124268471+122912970
4357+122303458+122510520+122963371+123283209+123504484+123602169+123492217
4347+123404002+123628860+124056227+124385589+124502497+124367911+123920828
4337+123251281+122561396+121977670+121605146+121543475+121665181+121696671
4327+121669148+121901977+122427807+122891965+123146557+123402567+123606694
4317+123314945+122512229+121889537+121924408+122304720+122612647+122968709
4307+123580625+124176289+124346285+124175201+124173757+124594570+125041846
4297+124895743+124071985+123213101+123085837+123811296+124702475+124956573
4287+124481748+123807987+123247195+122659365+122047906+121737950+121881100
4277+122292508+122832003+123563230+124461858+125216285+125509002+125479734
4267+125614091+126063597+126445244+126420994+126098496+125836216+125949514
4257+126487638+127094370+127308488+127032617+126525754+126177269+126342577
4247+126981740+127548611+127664715+127568145+127553684+127524032+127386704
4237+127273023+127129580+126667314+125917997+125382113+125438940+125922768
4227+126430308+126789807+127062488+127316761+127548044+127691917+127706871
4217+127713717+127933109+128333101+128564083+128432541+128144403+127924334
4207+127802573+127908210+128466288+129317047+129908204+129956850+129746873
4197+129677112+129783234+129790839+129552663+129324167+129419549+129669123
4187+129605423+129165697+128769371+128676923+128702691+128666476+128820823
4177+129588485+130957624+132399147+133430907+134020474+134339599+134373602
4167+133962953+133128382+132146995+131262471+130555494+130194222+130438357
4157+131171623+131853254+132168201+132295201+132421386+132475370+132409403
4147+132322577+132223776+131941570+131407614+130868549+130611288+130633454
4137+130835433+131277005+131904441+132343088+132364952+132266188+132433443
4127+132787448+132885718+132414183+131478591+130520321+129964144+129897117
4117+130127057+130543081+131201193+131981103+132476074+132484063+132353371
4107+132536786+133017644+133480852+133831813+134175645+134430036+134338365
4097+133856428+133288744+132997946+133110978+133500010+133920732+134190224
4087+134335660+134515290+134718604+134683221+134217033+133478649+132889694
4077+132842575+133341467+133834912+133704339+133008384+132345410+132008936
4067+131829991+131750825+131920903+132270631+132470197+132312897+131954934
4057+131824781+132221034+132923459+133406987+133450925+133271139+133152650
4047+133208590+133323579+133189715+132603649+131741062+130963054+130448933
4037+130130366+129884521+129753573+129981831+130740846+131821216+132718866
4027+133047552+132845216+132506046+132419585+132702431+133245820+133830131
4017+134165133+134033948+133504206+132919218+132632223+132739067+133101957
4007+133625684+134336025+135165212+135932115+136516097+136765653+136458237
3997+135706151+135071576+134935674+135091082+135172122+135103532+135020480
3987+135084227+135351360+135636683+135654809+135410253+135324523+135902015
3977+137237042+138785537+139697848+139540941+138666161+137807249+137421517
3967+137509330+137957977+138759303+139785771+140673202+141169233+141384987
3957+141508842+141506767+141336689+141324248+141962717+143122546+143823445
3947+143447923+142826300+143132299+144108659+144331743+143145453+141406395
3937+140400703+140881388+142780515+145101882+146302049+145691111+144411815
3927+144163648+145261806+146518122+147013615+147387985+148721339+150705839
3917+151566671+149998414+146792705+143854861+142323688+142307372+143896140
3907+147663665+153734641+160540308+165400003+166837541+164994509+160411280
3897+154675663+150719422+150620274+153621992+156360526+156401238+155734470
3887+157356757+160510126+162117788+162013074+162115814+161508021+158663073
3878+156026694+156769146+160535756+165072058+169090710+171276258+170016687
3868+167025142+165854381+166738347+166793483+164513221+161618238+160490840
3858+162716185+169371801+179473669+185870972+181274252+171004399+162821320
3848+159210117+159907561+163606312+168584505+173610814+178218284+181435528
3838+181444029+178246766+174360524+171534424+169662983+168416428+167991849
3828+168190729+168735508+170958129+176530112+183258834+185476483+182802720
3818+180131699+178177152+174057350+168348880+164717842+165331485+169835155
3808+175473956+179148191+181694755+185756843+189937869+190424696+188173592
3798+186653094+185737794+184021542+182466585+182759686+184855053+187859723
3788+191649057+196462884+201864560+207471350+214037992+222183284+230720944
3778+238199376+245479750+254712825+267061189+281787345+295832949+305498281
3768+310193647+311840376+311916645+312234883+315270101+321692011+329402523
3758+336223144+342963841+352503783+367287524+386955220+405939018+418533556
3748+427500567+438262311+450484097+458498294+461898624+467136098+478451541
3738+495889815+516014430+532914616+542361617+545518441+546885176+550294061
3728+557135523+565940270+573281137+576593205+575486245+570706530+564167767
3718+558915156+557527983+560553366+565232278+565876323+559738136+551408479
3708+546279046+545543815+547924276+551080918+552374638+551322339+550244007
3698+551213273+554522782+559484431+565385036+571973487+578518100+582227929
3688+580892784+577044018+574883552+576257563+580434695+585524056+590924927
3678+597248887+601707512+599284163+593352700+590706577+590234412+585823099
3668+576755212+567801547+561827525+558854060+558240509+559879559+563540102
3658+567565647+569945267+571747897+576465091+585237480+594365365+596927395
3648+590696084+581061994+573041069+567965127+565287560+564034571+563427929
3638+563217184+563625731+565279700+569606700+578059462+589019849+595575175
3628+592664086+586227587+583601757+586339285+593268789+601700638+607002170
3618+607067104+605843620+607314594+610910751+614107721+616434911+618653657
3608+620209309+620578807+620954814+622711632+626025418+630159443+633950514
3598+635708940+634131716+630813177+629926688+633950440+641403955+648453969
3588+651672035+650578018+647527846+645171553+644902162+646230104+646827166
3578+644663483+640480246+636790599+635315091+636594625+640673075+646384982
3568+650429795+649935253+646127511+641839412+637575226+632835803+629041076
3558+628523646+631166003+633848724+633563685+630641992+628083729+627917882
3548+629380154+630325070+629689691+628472679+628352096+629705047+631400587
3538+632447584+632955873+632879897+631111233+627363671+623763456+622733277
3528+623953068+624735866+623115426+619590675+616227676+614626906+614727525
3518+615503011+616221680+616645436+616658306+616119963+614894176+613022991
3508+610910861+609084099+607725701+606664627+605674447+604534471+603206565
3498+602083591+601671388+601728718+601146098+599437067+597597910+596731311
3488+596734784+596997960+597516815+598589333+599949268+600693091+600038589
3478+598202358+596179805+594435711+592553887+590338834+588334197+587193343
3468+587275535+588284801+588799159+587493630+585283147+584493219+585563360
3458+586435444+585584749+583887491+582893947+582840676+583023561+582864844
3448+581946765+580166730+578306331+577097947+575963200+574159656+572349274
3438+571388636+570807698+570188626+570254803+571095480+571373024+570372497
3428+568856990+567519798+566523439+566114819+566015772+565208623+563490634
3418+561893776+561258543+561613782+562619318+563552058+563472389+562214939
3408+560576071+559070253+557301808+555037323+553101752+552574195+553419478
3398+554477883+554730712+554095808+553171403+552573061+552174715+551053167
3388+548739140+546082085+544271119+543682137+543951747+544243843+543692959
3378+542528048+542210943+543832444+546757098+549042899+549181434+547657847
3368+546432718+546635126+547709290+548768682+549402526+549276057+548361305
3358+547346555+546887516+546869600+546779182+546352829+545735329+545154719
3348+544465155+543299220+541614795+539707085+537958274+536747770+536202626
3338+536158495+536496111+536961257+536885134+536066797+535462349+536011478
3328+537403734+538571021+538664219+537354411+535070840+533150991+532925073
3318+534352282+535880622+535915722+534376193+532572795+531845352+532474991
3308+533534091+533888123+533571969+533597965+534279340+534682549+534051264
3298+532963098+532591223+533277533+534200512+534327968+533480381+532369801
3288+531859319+532185966+532732243+532742919+532180262+531576363+531295345
3278+531423679+532002606+532782919+533181923+532975602+532658790+532735497
3268+533020135+532918894+532091453+530619272+528819676+527248010+526583381
3258+527103662+528370801+529511435+529711577+528669807+526787800+524736217
3248+522989673+521964101+522072252+523177457+524370119+524761262+524310888
3238+523593865+522984043+522348883+521451022+520305855+519101164+518016434
3228+517111408+516315337+515573379+514855515+514012132+513035810+512382259
3218+512360760+512417615+511812582+510777613+510232140+510481312+510933844
3208+511019655+510592754+509489524+507573002+505374365+503869937+503333202
3198+503017633+502222806+501155516+500547156+500778010+501357778+501280851
3188+500092321+498301902+496624717+495244491+493966895+492674783+491414408
3178+490280575+489330760+488478237+487486595+486210132+484770346+483319189
3168+481711837+479680254+477298733+475007411+473239514+472194198+471898117
3158+472303666+473170741+473890908+473685538+472229920+470026493+467959518
3148+466568871+465889397+465705562+465673717+465398585+464669350+463594200
3138+462461500+461602177+461283792+461430955+461534390+461134728+460343886
3128+459690554+459439005+459193746+458353946+456988967+455880252+455474813
3118+455244799+454436736+453106125+451970317+451451718+451213405+450626397
3108+449427703+447802692+446180277+445142054+445125857+445889972+446580488
3098+446558075+445907083+445104687+444499472+444139626+443887383+443591447
3088+443161731+442588398+441961318+441330874+440565443+439571899+438557405
3078+437872118+437692853+437832704+437721994+436871153+435533960+434468827
3068+433923391+433343550+432174580+430534323+429019292+428111377+427817050
3058+427758770+427564807+427161452+426707970+426287942+425693769+424668306
3048+423365519+422216768+421317153+420425179+419586770+419174822+419187985
3038+419061187+418399665+417500014+416906827+416712279+416525190+415953941
3028+414903031+413591249+412466337+411848361+411537143+411070389+410388393
3018+409852682+409651224+409615502+409536784+409279970+408704992+407789911
3008+406746131+405839020+405135379+404401830+403259990+401629823+399990846
2998+398922861+398438594+398109131+397760766+397609069+397670969+397485890
2988+396632673+395289923+394084720+393507255+393546487+393771857+393728128
2978+393305943+392688187+391983339+391136191+390192043+389324676+388509775
2968+387480913+386171105+384963599+384292608+384096488+383875067+383299028
2958+382538971+381888857+381351940+380792025+380229514+379763528+379371836
2948+378945702+378361839+377514947+376484731+375562375+374935258+374533183
2938+374204597+373765850+373038516+372160619+371542826+371259140+370951760
2928+370489540+370142125+369992988+369702171+368941237+367735997+366373065
2918+365198465+364504440+364413107+364753977+365113714+365096822+364586047
2908+363795753+363089333+362664735+362369641+361875721+361022576+359946292
2898+358934724+358168268+357547185+356840984+356008095+355211549+354585822
2888+354182028+354000204+353881267+353554144+352977374+352457787+352277060
2878+352319289+352197683+351696963+350954675+350218859+349616605+349171715
2868+348825032+348403834+347748455+346912787+346160043+345721661+345547076
2858+345348835+344961641+344534959+344253649+344018736+343547265+342736094
2848+341856918+341307386+341157883+341121760+340991232+340811273+340573837
2838+340092641+339301543+338416260+337686550+337149230+336726973+336436120
2828+336293746+336099198+335605059+334877652+334201615+333717604+333413406
2818+333286205+333258345+333116410+332693311+331977751+331051884+330080899
2808+329287315+328777454+328425944+327983248+327287687+326419405+325638033
2798+325096765+324689900+324262157+323802533+323324262+322771842+322144982
2788+321505544+320828337+320065977+319346467+318877190+318659828+318474201
2778+318129382+317594000+316917342+316169241+315439239+314721630+313816129
2768+312568916+311231760+310326295+310066483+310092516+309871314+309246720
2758+308471856+307793918+307216417+306659061+306096075+305483455+304770491
2748+304031348+303428783+303039833+302764080+302334163+301494236+300318758
2738+299223059+298513422+298082462+297637810+297073325+296543976+296242630
2728+296118592+295865380+295279945+294547310+293998839+293653800+293205729
2718+292485324+291733330+291268714+291032266+290675875+290039545+289329432
2708+288823209+288545171+288262508+287753689+287067214+286477537+286150378
2698+285931278+285556149+284965065+284263325+283501111+282724455+282137612
2688+281929920+281972094+281904345+281530331+280981531+280489932+280112866
2678+279754756+279366392+278949070+278432243+277801197+277256492+276967997
2668+276810998+276596798+276363787+276230974+276161250+275982991+275523348
2658+274768172+273951243+273335881+272929491+272591729+272300528+272093769
2648+271880519+271522538+271030464+270534241+270112641+269755976+269441138
2638+269124216+268716876+268201676+267690920+267287235+267016400+266895598
2628+266851468+266660156+266229525+265789004+265563726+265471772+265322140
2618+265071652+264759885+264408449+264081235+263887911+263834622+263739670
2608+263413479+262937073+262614027+262580152+262634209+262539933+262337305
2598+262260030+262426371+262666292+262668340+262321492+261856657+261582403
2588+261547651+261540064+261372408+261106234+260973349+261091353+261309301
2578+261350269+261055102+260493688+259908052+259529742+259407624+259430603
2568+259497494+259594475+259741291+259947265+260229361+260634361+261168189
2558+261647338+261749347+261371201+260814741+260434110+260227515+259940007
2548+259454752+258924654+258555156+258371156+258234212+258032278+257778609
2538+257539364+257324505+257066175+256715561+256348146+256091077+255956418
2528+255858870+255762729+255706917+255731925+255820625+255861886+255748927
2518+255577559+255577066+255769219+255905194+255801247+255535951+255282264
2508+255121792+255043805+254989492+254893735+254760155+254658329+254599226
2498+254503908+254336142+254142325+253944523+253741255+253574586+253435338
2488+253189036+252744019+252198418+251741755+251482016+251346060+251117509
2478+250673131+250150930+249757465+249514307+249320618+249118210+248890591
2468+248632297+248382192+248199454+248079713+247935328+247686357+247361099
2458+247050503+246777327+246504043+246237357+245994419+245731536+245448727
2448+245262771+245232223+245238933+245176192+245102281+245080782+245013215
2438+244763861+244350414+243915908+243576537+243359009+243254258+243274386
2428+243418953+243611892+243755802+243837116+243875397+243818433+243620430
2418+243368077+243193803+243117936+243081886+243083659+243187203+243414584
2408+243693920+243919802+244017533+243960642+243814338+243755838+243926182
2398+244246212+244473263+244459845+244313541+244301256+244596058+245116266
2388+245640057+246022371+246219478+246188016+245891935+245364579+244695526
2378+244015376+243505953+243309321+243384950+243541601+243626846+243626353
2368+243642459+243869711+244435056+245118021+245486276+245556567+246069920
2358+247812150+250821537+254566484+258797618+263671316+268884057+273421857
2348+276402122+277835821+278599114+279406135+279823822+279005211+276924305
2338+274234619+271403546+268412184+265212198+262163652+259752388+257990890
2328+256439607+254744378+252888476+251094328+249668984+248792732+248363783
2318+248099200+247764655+247317023+246890817+246644040+246618464+246768132
2308+247028931+247273880+247293459+246960413+246421759+246009830+245890509
2298+245899321+245809999+245637535+245541394+245544959+245509804+245352769
2288+245174473+245132683+245242187+245367815+245386461+245286208+245136832
2278+245011442+244914461+244774628+244513482+244100438+243579645+243081977
2268+242735293+242536029+242389707+242247223+242115106+242007576+241949899
2258+241945786+241929351+241822004+241619248+241377790+241155857+240999627
2248+240950286+241002204+241062934+241038876+240969664+240989865+241154377
2238+241374573+241535612+241640948+241804436+242087007+242442228+242864212
2228+243407400+244013548+244552750+245044933+245601393+246216718+246829813
2218+247482980+248267222+249209798+250283431+251468287+252797089+254336215
2208+256090766+257952865+259776811+261480011+263062755+264581736+266137626
2198+267809893+269520533+271067703+272406193+273751503+275285547+276913483
2188+278403195+279646897+280716308+281690583+282508280+283089639+283516815
2178+283909786+284228481+284356175+284256506+283968103+283546978+283020152
2168+282376144+281618903+280763199+279791574+278696534+277475609+276104962
2158+274665012+273333431+272147771+271023152+269953686+268976450+268155754
2148+267622256+267406447+267690499+269421358+273729163+280504009+288483966
2138+296708835+304979627+313244989+321469164+329799479+338399844+347331425
2128+356548340+365896695+375300479+384786894+394158576+402958058+410746703
2118+417177827+422082292+425655195+428355905+430771868+433729136+438258911
2108+445252472+455087143+467450607+481318646+494879014+505864958+512867148
2098+516135743+516581511+514888677+511705491+507414979+501835757+494668050
2088+485522432+473768644+459234001+442449790+424109707+405125617+386639359
2078+369434060+353957207+340595592+329294335+319611837+311415230+304769778
2068+299414171+294981286+291229574+287896593+284908467+282452267+280523350
2058+278954225+277768327+276965876+276448136+276399508+277144995+278810425
2048+281567642+285740003+291601980+299579725+310284907+324010024+340741402
2038+360495092+382791324+406140294+428686063+448858099+465379829+477597775
2028+485787326+490784879+493521273+494576644+494039544+492089860+489137821
2018+485116883+479496089+472085645+463213989+453338917+442809014+431738246
2008+420065736+407808740+395164185+382468077+370143441+358535427+347776827
1998+337926216+329195178+321849229+315753674+310198217+304531282+298855225
1988+293691789+289274516+285534742+282398301+279815779+277731856+276083555
1978+274717131+273436153+272170659+270969716+269957617+269372675+269319824
1968+269382291+268877823+267673205+266343124+265409689+264873850+264560511
1958+264456711+264526051+264581096+264521975+264436748+264427809+264543693
1948+264881473+265660250+267008009+268409515+268700002+267348678+265318045
1938+263881550+263337137+263267980+263311745+263356076+263407300+263503477
1928+263766708+264529817+266001102+267683369+268857202+269678135+270632283
1918+271141303+270261102+268561139+267640464+268196576+269545066+270519726
1908+270526069+269920067+269451485+269442363+269679232+269953175+270386310
1898+271182801+272176692+272860169+273174202+273837607+275149352+276042898
1888+275426531+273860202+272612587+272063440+271897411+271901030+272005306
1878+272100880+272115011+272171262+272854429+275142698+279311493+283554711
1868+284754978+282081781+278085743+275384466+274529640+274688960+274973945
1858+275022792+274913489+274869157+275033267+275532452+276566890+278334969
1848+281115403+285032303+288827341+289713684+286862246+283089621+281020835
1838+280758501+281076044+281456731+282855805+286284781+290740408+293509891
1828+293640693+292817347+291912393+290194606+287842353+286286426+286174326
1818+286820400+287440643+288159585+289612351+291757899+293479033+293763341
1808+292990487+292492436+293387444+296004810+299591607+302459937+303332789
1798+302849051+303099137+305729465+310289660+313593903+312551330+308629110
1788+305709063+305449270+306988304+309067017+311225362+313086053+314129321
1778+314856984+316948018+321714899+328406493+333548796+333936941+330662861
1768+326713037+323910940+323526085+326048664+329743100+331890550+332412038
1758+333051110+334031235+335146495+337921097+343740497+350915590+355449935
1748+355778118+354166087+353251591+354146563+356632396+359395518+360951390
1738+362057472+365514838+371889217+376344149+374185841+368492142+363436016
1728+359938943+358252764+358501022+360025742+362828753+368565815+378261220
1718+388840993+393436617+389784337+383029454+377892782+376041231+377758123
1708+382532207+388471166+393219437+397242495+403468066+412124260+418389538
1698+419146852+416269583+410797817+404462670+401085594+402175918+406284312
1688+412375297+421517514+432829155+438818789+434702278+427303423+423266033
1678+424220382+429071832+434854925+439157758+443017858+447674577+450427681
1668+448473646+445217994+445636266+449995954+454289463+455467354+455638465
1658+458976273+468167009+483806344+500816766+506451929+501896048+500691760
1648+505599040+509988306+507759506+502518668+500307563+502979645+510536302
1638+522465187+535448127+541892340+539178211+534940423+535392662+540926181
1628+548973650+557391971+566116720+574951741+582254290+588215954+596022332
1618+607513420+619101691+624647020+624688043+624086666+624812720+625974231
1608+626391114+626231995+626725659+628813951+632524658+637506562+643610563
1598+650731726+658463334+666156405+673307038+679845911+685863259+691190019
1588+695657345+699540845+703286432+707053299+710863966+715231478+721436244
1578+730300698+739570847+744772637+747096536+752677623+763854275+776776704
1568+786291893+793518503+802853440+815862814+832638835+854677704+880115039
1558+895221991+894220185+889705619+888203275+888920993+889823423+889476228
1548+888377531+888868562+892097890+896892157+901787774+903619983+896132538
1538+881695700+870236201+864563855+860833331+855176926+849127476+846677656
1528+848684268+852703853+856334269+859495444+862166539+862985461+862200615
1518+861408383+860004903+856590790+852291430+850103835+852568719+860501858
1508+870837504+874154874+864997118+852855001+845702979+844045903+846025970
1498+848595422+848292686+845230887+843543830+845791752+850210232+852397973
1488+849848777+844503224+839518980+836420253+835093919+834952204+836357073
1478+840500019+847520856+855206907+859554675+857459948+850604958+844246776
1468+841807267+843154514+845224305+844855831+843449353+845286900+852034251
1458+860020040+861384325+854330509+845670365+839826249+837334968+837228060
1448+837347253+835509706+831637174+827328309+824062565+823114212+825479427
1438+830170661+833084968+831177294+827305786+825235703+824779113+823608169
1428+821152499+819250090+819160586+820391711+822533750+825980111+829358247
1418+828736030+823098271+816230192+811347079+808835103+807515205+806540308
1408+806398812+807636592+809038828+808901354+807976255+808422388+810494958
1398+812503251+813196326+812227279+809591504+806681877+805730599+807032290
1388+808093840+806371171+803038445+801827795+804562800+810016650+816172131
1378+822378799+828842207+834649907+837954114+838720971+839179828+840751275
1368+842937992+845442436+849061152+853581567+856632324+856200962+853152033
1358+849678470+846921454+844868262+843455203+843126727+844153469+845847912
1348+847216585+848229799+849724684+852321265+855829051+859202580+861026161
1338+860919838+860236050+860469536+861817954+863889280+866703041+870234665
1328+873805924+876812806+879642142+883262467+888095270+893616687+898996316
1318+904024801+909218839+914791444+919920621+923593010+925932193+928035328
1308+930655455+933558866+936012196+937667663+938987196+940559301+941939528
1298+941882710+940080116+937741519+936034280+934987721+934259912+933838349
1288+933430387+932030124+928936662+924906840+921529947+919549221+918548292
1278+918249359+918956474+920315567+920981951+920357833+919450430+919330725
1268+919906801+920575964+921106994+921695501+922814965+924815727+927250263
1258+929182214+930418312+931633862+933163409+934478847+934921324+934375156
1248+933314338+932272751+931006892+928662957+925138133+921345892+917807467
1238+914141293+910144085+906328298+903290411+901216086+899969604+899304463
1228+898909152+898364008+897377557+896188040+895255117+894623467+894260696
1218+894568696+895761797+897399641+899105052+900955909+902900510+904618134
1208+906047353+907456757+909090433+910968418+912864246+914671227+916789939
1198+919445531+921760289+922694456+922842899+923936330+926693346+930222631
1188+933286477+935315026+936402827+937249318+938834439+941524326+944680456
1178+947293197+948801977+949455052+950204652+952127098+955662159+960344984
1168+964992635+968319804+969974540+970774011+971549131+972315989+972866544
1158+973377757+974349217+976277512+979055150+981752349+983739071+985503933
1148+987354862+988471913+988377655+988048302+988609972+990126942+992187153
1138+994616425+997293662+999751306+1001399387+1002389714+1003547934+1005123841
1128+1006347435+1006561763+1006174349+1006163527+1007286281+1009497715
1120+1011963476+1014108000+1016548460+1020139242+1024357287+1027464204
1111+1028241518+1027052878+1025351489+1024922394+1027061141+1031252861
1103+1035357124+1038148216+1040300711+1042517410+1044778641+1047093326
1094+1048866012+1048874714+1047665965+1047817552+1050432268+1053761629
1085+1056041946+1057110443+1056481644+1053326099+1049051676+1046651069
1077+1047673204+1051288776+1055364447+1057642351+1057312193+1055850799
1068+1055087012+1055329932+1056280917+1058037516+1060182406+1061433421
1060+1061144214+1060601264+1062208176+1066756744+1071698942+1073741823
1051+1072953686+1071798172+1071423408+1071303777+1070753148+1069303015
1043+1067373769+1066812904+1068610087+1071451561+1072968896+1071488928
1034+1067507514+1063634105+1061894837+1061727894+1061682410+1061031529
1025+1059686987+1058346906+1058380836+1060442291+1063275210+1064741211
1017+1064062688+1062528096+1061632393+1061034746+1059496936+1057337129
1008+1056169256+1056569686+1057684982+1058727593+1059455986+1059674044
1000+1059277928+1058375644+1056824452+1054226263+1050830065+1047971406
991+1046952269+1047751447+1049168748+1049480844+1047182465+1042691958
983+1038701404+1037485781+1038457899+1039019715+1037291489+1033545755
974+1029633298+1027042129+1024933655+1021207738+1016285796+1013253320
965+1013531925+1014832665+1013866908+1009840304+1004524366+999595624+995022705
955+990147051+985319074+981513086+978857055+976662148+974545264+972516642
945+970456284+968534644+967593750+967967636+968365580+967055626+964099199
935+961496842+961049685+962702301+964771214+965441474+964279378+962309987
925+960833236+960512073+961258383+962578428+964077701+965468384+966121386
915+965249083+962914508+960465420+959449427+960152154+961461815+962245418
905+962498502+962772061+962868293+961957381+959996984+958245285+957814946
895+957911398+956422069+952390492+947397254+944145258+943726181+944732229
885+945391958+945661642+946171466+946799972+947502114+948430358+948763586
875+947341752+944562653+942148152+941184736+941403525+941821212+941857848
865+941987644+942296668+941072051+936969470+931919706+929650285+931877147
855+937010346+942089872+945477222+947159306+947035872+944988311+942500905
845+941460269+941344513+940190095+938121328+937264089+938555615+940758273
835+941977626+941273802+939532706+938695210+939558226+940964631+941467582
825+940673961+939317866+938854768+940236018+942304858+942619294+941198045
815+941128430+944184306+948231605+950512653+951572813+953343086+955151457
805+954471691+951184960+948471527+948986616+951891783+954288514+954889744
795+955133614+956622870+958918616+960399242+960214383+958767175+957174448
785+956618701+957530857+958964977+959464417+958856167+958222689+958071394
776+958268319+959068155+960453939+961601483+961682798+960552731+958601401
766+956632083+955687972+956025369+956875661+957990665+960119979+963064998
756+965029929+965041410+964165596+963610947+963428354+963248395+962991070
746+962860762+963133882+963887357+964581456+964268117+962858568+961584884
736+961575816+962632320+963786811+964540067+964827447+964262048+962345014
726+959144132+955358692+952338354+952088268+955707131+961421889+965866693
716+967739268+968407187+968885130+968150666+964804120+959193418+952988066
706+947622477+943933708+942734173+944726964+949179811+953322026+954062047
696+950314412+943881058+938266042+935898122+936024115+935442921+932281965
686+927952771+924373688+921826028+920444632+920765210+921861128+921478540
676+919270544+917653174+916999441+913116014+902860073+891522985+888729114
666+892410351+894666976+893964687+892759229+892900213+894537399+896775011
656+897271673+893795477+887883209+884071444+884795450+887806501+888784835
646+885592947+879452603+873359717+870003299+870235982+872910879+875394774
636+875443622+873095665+869221451+864073408+858937503+856362787+857429455
626+861118517+866567760+872840167+876187810+872330781+862777567+855012542
616+855047057+861611523+869008513+874103760+877259378+877590267+873851261
606+868632725+864770285+861467394+859048799+861767205
##END=
