##TITLE=<SNM>
##JCAMP-DX=4.24
##DATA TYPE=INFRARED SPECTRUM
##DATE=2/5/2025
##SAMPLING PROCEDURE=Instrument type and / or accessory
##ORIGIN=Admin
##XUNITS=1/CM
##YUNITS=ABSORBANCE
##RESOLUTION=4
##FIRSTX=4497.3318
##LASTX=599.83466
##DELTAX=-1.4281778
##MAXY=1.7252631
##MINY=0.19769901
##XFACTOR=1
##YFACTOR=1.6067765e-09
##NPOINTS=2730
##FIRSTY=0.21937513
##XYDATA=(X++(Y..Y))
4497+136531207+136169449+136003575+135817781+135434720+134958327+134571575
4487+134423610+134732877+135606520+136712281+137469656+137552102+137074799
4477+136482120+136247285+136463080+136794531+136853866+136380700+135260824
4467+133801522+132788455+132848893+133854412+135091658+135884896+136084889
4457+136060851+136199311+136475953+136569341+136236917+135529639+134826090
4447+134584216+134847605+135077237+134690662+133789281+133134855+133276098
4437+133935818+134454946+134522247+134207527+133629648+132898175+132159394
4427+131524462+131073294+130910369+131036903+131180983+130971586+130335524
4417+129586068+129070427+128891338+129029733+129407906+129700369+129525314
4407+129016833+128815690+129363419+130446700+131375217+131523544+130848215
4397+129825169+128867068+128106224+127731418+127986191+128644883+128967449
4387+128455555+127382865+126373035+125736341+125427324+125335966+125336986
4377+125258853+125003198+124623959+124322843+124463844+125289198+126437553
4367+127142346+127007540+126181018+124947694+123704864+123111712+123625080
4357+124901778+126092488+126705589+126833727+126660796+126255905+125809336
4347+125552290+125425200+125216573+124926614+124671024+124425218+124124659
4337+123794877+123457185+123148446+123040766+123271307+123700459+124102754
4327+124490043+124912750+125097598+124775477+124244024+124025223+124064814
4317+123883759+123441011+123232310+123589422+124302227+124887330+125065352
4307+124961966+124829367+124722773+124663661+124861455+125417206+126067217
4297+126529004+126835424+127086887+127169472+126963182+126631787+126512617
4287+126774383+127236068+127534151+127495238+127266923+127021126+126721958
4277+126334130+125971176+125660137+125377263+125436932+126207207+127321286
4267+127926838+127814280+127523097+127390294+127294169+127236921+127431470
4257+127821393+128069703+128030716+127956969+128231997+128902161+129487644
4247+129497140+129100716+128955838+129435756+130271543+130823305+130618620
4237+129796791+128944162+128397102+128046055+127870749+128118252+128822284
4227+129645941+130274649+130565082+130420046+129954902+129626604+129778067
4217+130164401+130319813+130210121+130098463+129991701+129691235+129185164
4207+128633012+128206420+128144006+128624684+129473334+130267814+130704599
4197+130766113+130662328+130608623+130612202+130555604+130393449+130154672
4187+129966216+130119709+130794788+131715487+132384732+132598413+132542714
4177+132530769+132749198+133210790+133931348+134948181+135980928+136385532
4167+135827398+134775982+133992937+133742688+133756859+133784106+133891823
4157+134219406+134662636+134953523+134956203+134777225+134674646+134862518
4147+135259702+135474635+135203697+134601233+134121195+134033677+134168409
4137+134130191+133739916+133225295+132970753+133194839+133883384+134794020
4127+135471714+135550626+135109214+134505953+133948218+133491142+133305060
4117+133565046+134148507+134764835+135318972+135833287+136129191+136014240
4107+135715554+135675073+136024553+136621730+137285234+137674332+137437503
4097+136760997+136266974+136243585+136431401+136518771+136468422+136449364
4087+136638608+137002824+137304886+137393285+137287080+137044576+136887336
4077+137220048+138063300+138744676+138649321+137973714+137316747+136949657
4067+136873703+137093208+137407243+137357822+136746455+135919340+135384761
4057+135398830+135921306+136711270+137443773+137884461+137990036+137861416
4047+137676827+137597266+137569843+137314605+136740316+136248593+136286681
4037+136733583+137151458+137434211+137686240+137746975+137441927+137087161
4027+137233699+137982654+138808017+139102223+138812895+138407364+138268403
4017+138390077+138645129+138959859+139166297+139086532+138868121+138921150
4007+139403460+139994776+140330966+140469871+140710076+141120466+141533899
3997+141841024+141960686+141705949+141044012+140351081+140088248+140311222
3987+140736052+141159222+141535531+141744325+141633918+141331606+141212482
3977+141477773+141958293+142337894+142436087+142316462+142186952+142148214
3967+142119957+142136548+142476401+143248605+144160921+144927552+145498576
3957+145724045+145376429+144753007+144688608+145638789+147011194+147672742
3947+147240261+146588200+146690668+147327835+147474280+146811498+146115544
3937+146239908+147470329+149543233+151587897+152320492+151249147+149584474
3927+149060607+150069000+151362874+151728842+151559222+152038676+153330073
3917+154176460+153258719+150776723+148251140+146928369+146920041+147967644
3907+150493719+155043982+160709483+165130337+166718315+165561445+162195781
3897+157682912+154198467+153703674+156005718+158330864+158312260+157567618
3887+158895629+161797985+163535978+163711682+163729266+162826744+160062755
3878+157797315+158488632+161413097+164750624+168039908+170574255+170677920
3868+169115000+168468847+168847669+168102414+165623414+163291573+162965667
3858+165640200+172029913+181186155+186852167+182809208+173909427+166824260
3848+163544807+163768198+166402871+170223274+174617752+179415128+183392836
3838+184175019+181352252+177479822+174579488+172651137+171257244+170540480
3828+170496651+170989580+172992011+177633139+182904692+184270281+181892756
3818+180121228+179430894+176921364+172707671+169921165+170502920+174132873
3808+178538518+181437517+183668142+187119794+190336593+190362282+188270357
3798+186666280+185148988+182682247+180390247+179922543+181464337+184261842
3788+187664602+191153071+194233561+197215748+201264809+206529147+211267540
3778+214413968+217625184+223152327+231822003+243124627+255234010+265730115
3768+273946555+280796330+286756084+292797133+301024702+312164864+324213874
3758+335317943+346716515+360993906+379394865+400505523+419743734+434013706
3748+446471177+460962648+475737642+484246526+486247250+488706033+495776269
3738+507328083+520758985+532175809+538447446+539485942+537974400+536707208
3728+536572736+536669481+535978016+534774591+533593276+531839127+529140965
3718+526691715+526269751+529142894+535478373+543058267+547847593+548464682
3708+547420546+547846740+551396844+557326273+562761140+565422021+565852332
3698+566045230+567623804+571286754+576773963+583335133+589397142+591840234
3688+589271610+585185991+583309797+583891088+585297834+587008395+590870550
3678+598270084+605073007+603992481+597061726+591961388+590064643+587566835
3668+582554601+576857874+572383714+569431371+567282449+565815607+566135707
3658+568643382+571757055+574555190+578925779+586801809+596585193+601947983
3648+598136910+589511953+583019188+580922312+581568335+582953492+584828165
3638+587575776+590619708+593136991+595636765+599812527+606451524+612896324
3628+614371772+611354882+608938388+610503719+616570922+625068603+632183798
3618+636221526+639687238+644790877+650237058+653495107+654313811+654022832
3608+652710828+649936286+647023524+646390967+649335185+654947704+660981780
3598+665851641+669288047+671550222+672732094+673210185+674031782+675381030
3588+675013411+671149143+666196632+663705872+664723039+668324150+672888045
3578+676598069+678356039+678574978+678727442+680394898+684060110+687660479
3568+687652837+683654505+679356586+677117262+676146317+675480373+675405885
3558+676357985+677954959+678866996+677419741+673753119+671063377+672292880
3548+676226221+678387941+676162861+671808483+669148344+669584665+672147687
3538+674955468+676498281+676836743+677513000+679595112+681907219+682148564
3528+679723241+676226592+673406496+671931715+671658023+672234491+673473639
3518+675007921+675658952+674110796+670707554+667697676+667139013+668894015
3508+670834199+671183790+670451964+670419543+671450286+672053241+671475586
3498+670656214+670074997+669306669+668871164+669864515+671790603+672938124
3488+672550176+671176816+669889815+669875792+671252269+672237236+670985031
3478+667861936+664770299+663309837+664228774+667054806+669752115+670064758
3468+667655684+664549505+663041338+663340479+663694521+662397504+659684985
3458+657688193+658498959+662149704+666245673+667913203+666430706+663651638
3448+661839954+661581693+661885730+661680961+660906550+660329339+660427866
3438+660542788+659472723+657449444+656439549+657473483+659262093+660105132
3428+659782028+659100875+658653871+658950859+660172127+661227948+660710535
3418+658402361+655285276+652420739+650230381+648976172+649102521+650592139
3408+652588041+654316111+655950774+657776333+658971188+658196999+655442785
3398+652554952+651649295+653136391+655439224+656626363+656023037+654151035
3388+651544907+648531023+646044047+645414828+646754209+648297690+648449041
3378+647750305+647750008+648997614+650974152+653099369+654859936+655211901
3368+653168590+649510648+646650044+645883051+646105403+646106145+646456478
3358+647735095+648703296+648239524+647549542+648426487+650650305+652654368
3348+653822515+654890354+656399114+657776036+658164800+657499821+656287901
3338+654841017+653365198+652372811+652134211+652121302+651905627+651969728
3328+652855205+654178486+655420676+656652627+657429339+656540449+654037225
3318+651887227+651639798+652894972+654372126+655192685+655281641+655406431
3308+656502463+658378620+659611758+659135597+657346689+655482032+654257723
3298+653379665+652381417+651629189+651828468+652687532+653283736+653888694
3288+655675079+658148997+658864278+656848715+654452401+654405586+656809319
3278+659666660+661018653+660277331+658402064+656944942+656365283+655512822
3268+653261255+650357397+648941228+650026799+652138440+652948464+652162478
3258+651822903+653467434+655943800+656612341+654670154+652191858+651534150
3248+652898236+654718897+655675895+655752980+655622254+655626483+655593542
3238+655473723+655619509+656137811+656527095+656485102+656281001+655852693
3228+654573705+652394846+650286767+649148148+649142732+650024722+651210155
3218+651913269+651865267+651310833+650368674+649386674+649075960+649354104
3208+649393648+649137465+649328805+649968930+650062411+648897752+646685730
3198+644308409+642777317+642409030+642588945+642410588+641236803+638900733
3188+635994723+633736850+632998199+633527037+634391665+635123194+635898941
3178+636492474+636027293+634360282+632630135+631692576+630958524+629530039
3168+627702033+626645396+627095814+628631357+629936832+629720044+627726961
3158+624934761+622629406+621309649+620492095+619448702+617827504+615694533
3148+613616130+612567729+613135555+614775151+616238543+616668298+616111713
3138+615302616+614870562+614531655+613560005+612061631+610881837+610449968
3128+610754598+611836645+613061660+612892540+610933066+608897583+608114194
3118+607738673+606694538+605696253+605816629+606409197+605891118+603878931
3108+601595165+600422456+600456139+600554554+599877593+598838429+598067764
3098+597388280+596530254+595789859+595310359+594752068+594179568+594107083
3088+594345053+594104190+593433609+593170266+593291272+592792705+591413743
3078+590073398+589503607+589554910+589699843+589388165+588191343+586135198
3068+583724231+581631806+580658894+581387604+583112633+583943356+582865649
3058+580944940+579754573+579557224+579664319+579714955+579905998+580265456
3048+580187481+579038179+577080523+575175914+573753031+572726664+572025035
3038+571635269+571620245+572235145+573254908+573472216+571959635+569463236
3028+567574282+566914385+566726012+566009544+564717572+563586039+562996030
3018+562665210+562323817+561921365+561375389+560693346+559929692+558785213
3008+556962993+554995915+553933603+554248472+555384864+556140506+555514440
2998+553572327+551404152+550043775+549671000+549847390+550084247+550048969
2988+549579447+548830038+548335700+548474475+548763303+548202934+546499866
2978+544471060+543021690+542157321+541264834+540007843+538632183+537597433
2968+537105839+536876105+536380505+535420726+534338827+533544532+533023447
2958+532470757+531759149+531058928+530573419+530381225+530457049+530558543
2948+530260404+529425230+528368964+527257018+525844559+524200510+523077732
2938+523131818+524146721+525131392+524950847+523157710+520521758+518468506
2928+517849340+518375432+519046087+518918181+517708302+515896209+514168658
2918+512802940+511659462+510599895+509720354+509133313+508630108+507829173
2908+506737184+505881014+505694088+505913398+505844437+505187508+504304109
2898+503717290+503643989+503906368+503980819+503258601+501629094+499694549
2888+498188348+497340079+496803674+496037497+494858036+493663626+492928165
2878+492632252+492494701+492408972+492282401+491907845+491327370+490803207
2868+490275445+489419756+488252871+487169860+486441150+485996037+485605567
2858+485144763+484683403+484287146+483807794+483042619+482016438+480943071
2848+480003583+479222383+478473271+477648965+476848178+476230793+475663153
2838+474750968+473382541+472066049+471456936+471606209+471946452+471923378
2828+471271345+469883666+467985326+466298172+465484884+465456729+465520719
2818+465061436+463929124+462409680+460994439+460044601+459520549+459003248
2808+458047549+456619918+455169472+454151601+453496712+452728198+451674604
2798+450809270+450657882+451044791+451221738+450719016+449789952+448942350
2788+448251664+447347417+446062233+444813366+444093448+443788632+443373716
2778+442612176+441652174+440612861+439520687+438512943+437732522+437127155
2768+436524237+435749047+434698234+433493697+432442959+431704826+431135369
2758+430514089+429791982+429106749+428613449+428256402+427796822+427176543
2748+426606344+426158486+425595706+424718762+423598691+422438669+421376765
2738+420344723+419104833+417601007+416156385+415119669+414517345+414208893
2728+414083176+413920919+413393157+412446361+411462469+410797490+410364731
2718+409896953+409359732+408799326+408052773+406992501+405870910+405085480
2708+404705360+404460453+404117317+403668162+403170336+402577768+401825428
2698+400966290+400088974+399195114+398287788+397476169+396871137+396458632
2688+396104775+395594597+394757270+393734131+392982051+392754914+392721305
2678+392359176+391561282+390571864+389502911+388248072+386849746+385722034
2668+385337722+385625733+385854095+385394033+384450984+383648083+383097136
2658+382415946+381541709+380932893+380901399+381200354+381354301+381065251
2648+380281751+379198109+378191997+377486249+376901508+376152099+375260502
2638+374460049+373858503+373400482+372999662+372577437+372117041+371726942
2628+371479921+371196955+370609543+369755709+368985860+368521643+368235115
2618+367930299+367599293+367288616+366916286+366343453+365534356+364589081
2608+363663319+362876628+362285210+361901120+361692790+361566850+361391610
2598+361058675+360566933+360054603+359669883+359421712+359241686+359099832
2588+358940950+358642181+358144021+357503748+356811615+356179577+355731126
2578+355466633+355220020+354827658+354290474+353764900+353414827+353224415
2568+352982550+352514735+351878839+351276812+350823501+350468272+350140716
2558+349895068+349829334+349899408+349899519+349628163+349067423+348412237
2548+347857210+347383386+346928999+346652339+346669811+346665100+346247995
2538+345603938+345254570+345253753+345141353+344671350+344109571+343749334
2528+343525794+343229955+342855956+342598696+342563938+342577589+342373265
2518+341938243+341498472+341177112+340928644+340785528+340829709+340916476
2508+340770653+340394465+340096697+340066872+340131492+339979696+339491887
2498+338818487+338242983+337971850+337951744+337908082+337645333+337240951
2488+336895627+336732108+336762230+336887280+336907238+336672347+336242778
2478+335804231+335441843+335085797+334677966+334272583+333924551+333626226
2468+333434367+333460779+333643550+333737180+333600074+333316142+333028205
2458+332810230+332669637+332559054+332432817+332343936+332397391+332535462
2448+332471916+332008256+331362975+330950210+330856914+330816554+330668727
2438+330518044+330443073+330367287+330241050+330101792+329930484+329648074
2428+329280566+328967032+328779921+328670488+328596445+328567659+328548109
2418+328447097+328263584+328166171+328332731+328679651+328856153+328649121
2408+328304427+328243738+328514797+328734441+328576599+328142912+327800963
2398+327771472+327940369+328029695+327882870+327556168+327168517+326741581
2388+326223464+325578962+324746087+323535318+321679638+319012488+315565213
2378+311501517+307019344+302361096+297830531+293643567+289778426+286149716
2368+282944547+280573514+279230034+278711379+278781361+279551951+281392144
2358+284548810+288949410+294522607+301617047+310323652+319226493+325897244
2348+328713816+327921635+325426424+323150375+321238198+318770067+315592441
2338+312374456+309519304+306742461+303704928+300738749+298629074+297714607
2328+297519743+297313824+296823325+296397781+296601177+297673542+299350773
2318+301078769+302397060+303306445+304246248+305559124+307121246+308632177
2308+309984986+311179990+312163381+312924846+313573392+314214370+314840806
2298+315381515+315812345+316209233+316686915+317263124+317801829+318149565
2288+318318611+318452490+318616824+318723920+318668387+318458685+318198680
2278+317972322+317781390+317635269+317628110+317788735+317930292+317857176
2268+317659345+317602440+317779016+318038723+318212554+318262671+318253322
2258+318294128+318480015+318783755+319027512+319036229+318805901+318507429
2248+318387683+318630327+319182646+319731701+319981875+319962548+319976385
2238+320259797+320774352+321314875+321736580+322059276+322421220+322950799
2228+323632249+324319226+324946256+325662984+326645206+327821699+328917657
2218+329779059+330557477+331539440+332859197+334421412+336047543+337630346
2208+339164665+340698873+342334611+344254282+346564236+349049246+351312720
2198+353239550+355080169+357052552+359127839+361215034+363320368+365453710
2188+367486374+369226834+370660104+371967657+373247090+374385041+375255011
2178+375881226+376403386+376964386+377581214+378095585+378297015+378086125
2168+377500679+376595245+375375276+373937851+372492265+371009918+369156723
2158+366849625+364460285+362231050+359938456+357267003+354200331+350991471
2148+347782499+344411197+341108521+339190780+340063607+343578841+348235402
2138+352848968+357258211+361692864+366248561+370871958+375490310+380139080
2128+384888195+389716101+394668611+399914661+405425204+410939790+416403777
2118+422064558+428038798+434109598+440065550+446002657+452144607+458583472
2108+465455096+473270067+482863966+495022222+510135196+528054874+548052510
2098+568626949+587497392+602564998+613164415+620003618+624236989+626778199
2088+627749664+626447676+621991618+613679453+601211372+585143330+566519759
2078+546227805+525297173+504933958+485844390+468365113+452975368+439891422
2068+428695950+418805544+409856296+401797272+395000693+389802348+385863703
2058+382550604+379636544+377123230+374926083+373047293+371546990+370364970
2048+369453860+368806390+368351707+368166340+368593015+370013042+372821787
2038+377558178+384793712+395061715+408874519+426450504+447444200+471021691
2028+495882919+520243020+542276473+560669494+574875586+585258995+592734279
2018+598029666+601615382+603877706+604700862+603351465+599166578+592074011
2008+582555899+571363876+559078678+545859259+531713187+516874648+501780482
1998+486838928+472447208+459048950+446786232+435260903+424094402+413523215
1988+404045945+395872110+388963687+383162944+378161281+373674100+369628025
1978+366027433+362836342+360032865+357574267+355409246+353659177+352508392
1968+351767811+350856553+349426585+347764842+346373638+345374463+344540030
1958+343763653+343169007+342757986+342302635+341691593+341113826+340791315
1948+340793949+341225225+342179588+343199574+343275732+342021931+340320978
1938+339208178+338825609+338741216+338646029+338503989+338377603+338305823
1928+338368997+338814073+339746030+340691639+341151886+341489792+342198730
1918+342608341+341707618+339997243+338972917+339239784+340125965+340648459
1908+340420654+339760906+339175386+338872387+338765106+338760988+338915159
1898+339325438+339885139+340295382+340615073+341426173+342842267+343841072
1888+343470114+342217426+341195548+340806042+340818469+340971081+341121208
1878+341226115+341353205+341669261+342596693+344778964+348250648+351452423
1868+352022214+349597114+346363919+344333963+343803790+344067541+344471737
1858+344684667+344589924+344321462+344216518+344589590+345564060+347170307
1848+349618481+353002359+356150382+356675807+354059701+350845758+349244073
1838+349250083+349724835+350160859+351368290+354231640+357846291+359829283
1828+359478023+358492982+357746577+356457906+354545247+353187096+352995126
1818+353381144+353694938+354151958+355369739+357314522+359056800+359722855
1808+359460366+359195687+359856512+361855641+364668392+366864426+367305421
1798+366566064+366574263+368826274+372822826+375634205+374629094+371277415
1788+368965457+368922834+370160980+371600408+373148564+374722650+375770495
1778+376457805+378182277+382242820+388072127+392544173+392760701+389707346
1768+386071884+383477368+382986590+384940574+387795652+389270766+389406425
1758+389811511+390806383+392171508+394883285+399770804+405311653+408431039
1748+408191956+406503393+405378945+405741408+407632032+410095527+411738499
1738+413008177+416367423+422565314+427565789+426981345+423092519+419592643
1728+417461749+416985773+418316028+420904795+424659631+430866721+440356975
1718+450553383+455676423+453733012+449012869+445661636+445302103+448282416
1708+454204537+461499980+468064006+473999815+481703090+491533808+499321031
1698+502116644+501714080+499349298+496222123+495255258+497949340+503431319
1688+510955532+521498045+534487099+543350545+543213772+539662110+538749591
1678+542159881+549152883+557145282+563642870+569358700+575749378+580808539
1668+581859759+581448627+583905629+589660485+595330020+598079708+599265253
1658+602213626+609378938+621501509+634413107+637981870+633630460+632244783
1648+635753526+638388292+635090402+629097502+625513604+625761775+629784071
1638+637070575+644456347+645628277+639499682+632763605+629804103+630406390
1628+632650982+635170825+637719380+639618611+639730937+639112550+640420993
1618+644019284+646458258+644734936+641322494+639820115+640723249+642416301
1608+643405201+643696996+644100079+644841995+645487907+645784154+645989071
1598+646428359+647052756+647493824+647503692+647270879+647220799+647549617
1588+648017320+648261411+648264081+648348363+648975134+650939875+655225403
1578+661548604+666573303+666435529+663524696+663101285+666015530+668931853
1568+669139367+668078056+668104617+670426739+676828731+689468676+705380397
1558+711777862+705450285+697610386+693270921+691983252+692749354+695070809
1548+699372140+706753386+717402178+729882315+742317492+751562876+751959355
1538+744962793+739686436+739855518+742658105+743730470+743091978+744297813
1528+748828767+755237140+762151498+769746936+776890324+780327694+779885660
1518+778780057+777926112+776527972+775655850+777572367+783480762+793072695
1508+803376273+806647974+799099351+789668488+785347793+786186381+789982393
1498+793741309+794492351+792422183+791403236+794360067+800370401+805293903
1488+805610108+802032515+797532351+794327126+793234136+793995935+796173606
1478+799934155+805732524+813163998+819533939+820362288+815207531+809904168
1468+809151569+812562823+816124835+816432285+815163832+816624516+822781156
1458+831080523+834555434+830255216+823706251+819510420+818470180+819415084
1448+820101207+818975721+816771712+815076879+814480676+815237133+818130827
1438+823038155+827001915+826849006+824251262+822826338+823369866+824229746
1428+824121427+823605202+823745201+825040067+827866766+832199109+835903940
1418+835473258+831061975+826372325+823452886+821921275+820955746+820479436
1408+820862190+821890412+822443139+821925356+821529024+822685449+825173166
1398+827687000+829304005+829448827+827899930+825968129+825627367+826950574
1388+827651388+825776270+822855867+822342164+825503690+830780566+836244183
1378+841528775+847077637+852210656+855123863+855407349+855066735+855979069
1368+858162973+860924977+864000886+866839901+868225132+867680640+866152071
1358+864678997+863355419+861576527+859075084+856636629+855251398+854868866
1348+854800017+854848761+855188261+855821486+856828414+858251854+859441294
1338+859552581+858791301+858127361+858057324+858438965+859076197+859805129
1328+860268827+860282107+860435535+861694863+864226428+867101649+869331328
1318+870811970+872137254+873855234+875887638+877529350+878381663+879110892
1308+880604962+882790423+884948879+886622122+887619627+887777284+887263285
1298+886675762+886462832+886421508+885821298+884012062+880982894+877280511
1288+873460980+869784119+866305647+863020370+859935781+857193066+855152056
1278+854153734+853956236+853590100+852344201+850796120+850125799+850556629
1268+851272207+851782571+852483755+853663550+854693997+854665804+853550259
1258+852422993+852486130+853927227+855814735+857082521+857551263+857945888
1248+859137257+861483491+864540555+867322443+869206538+870418532+871325969
1238+871945765+872648360+874380733+877438168+880743329+882955722+883829921
1228+884185373+884981226+886523150+888367701+890108681+892071122+894778299
1218+897949025+900705242+902627175+903996603+905318326+907081712+909549769
1208+912425880+915091212+917203521+918808507+920165842+921709917+923877202
1198+926864600+930467269+933790087+935602810+935807208+935866487+936998280
1188+938864495+940763799+943054316+946558162+951270143+956125166+959581826
1178+960568500+959716929+959229120+960505734+962521890+963534086+963768902
1168+964927181+967530045+970461354+972920657+975278243+977996177+980885494
1158+983394356+985133259+986239604+987397437+989302826+991961852+994604630
1148+996342791+996743796+995953507+994791296+994499204+995725813+997811265
1138+999390432+999772593+999723775+1000603094+1002649075+1004718724+1005835529
1128+1006316810+1007123124+1008702663+1010615619+1012035720+1013162467
1120+1015616280+1020090106+1024495380+1026218331+1025676658+1025143369
1111+1024813736+1023198808+1020520566+1018946592+1019882963+1023079953
1103+1027902406+1033267793+1036724156+1036525768+1034772769+1035354876
1094+1038904127+1042414353+1043615218+1043340487+1043475961+1044599963
1085+1046165628+1048004837+1050445518+1053164491+1055022471+1054637416
1077+1051368387+1046475155+1042989932+1043488573+1047499667+1052213429
1068+1055542702+1057087297+1057006279+1056039118+1055661780+1057204890
1060+1060501816+1063681445+1064763232+1062884108+1058869008+1056054476
1051+1058061952+1064560541+1071021292+1073741823+1073636842+1073415454
1043+1073640181+1073056812+1070810885+1067766210+1066025231+1067086764
1034+1069838975+1070844197+1068028923+1062898130+1058027230+1054551651
1025+1052881673+1053850615+1057530666+1061802617+1063910400+1063708079
1017+1063667422+1064954943+1065649450+1063873675+1060636028+1057979228
1008+1056274454+1054813918+1053695035+1053806768+1055425554+1057454322
1000+1058102683+1056286695+1052205342+1047141099+1043331361+1043059894
991+1046595420+1051320459+1053660165+1051709446+1046305405+1040263391
983+1036061551+1034033821+1033109839+1032609120+1032360281+1031752578
974+1030116283+1027975410+1026617927+1026175448+1025018134+1021405746
965+1015279524+1008245643+1002136486+997619925+993861750+989649968+985047122
955+981374936+979354106+978162663+976851772+975770355+975372985+974308039
945+970770881+965532511+961500198+960565681+962301764+965070891+967296490
935+968089672+967648009+967056777+967252271+968335023+969620170+969985193
925+968678679+966163955+963630906+961602137+959762854+957993978+956748821
915+956363841+956554068+956614386+955934197+954529454+953224424+952860737
905+953339124+953884135+953920193+953378594+952541861+951719670+950868470
895+949536064+947385027+944922312+943447754+943887784+945652876+947096348
885+947119941+945981248+944836249+944854872+946195439+947581115+947626521
875+946533085+945719723+946042011+946867467+946859380+945703104+944629107
865+944564337+944753081+944114069+942762892+941419950+940523048+940429863
855+941272308+942354541+942663846+941842322+940262264+938906265+939291467
845+941901008+944505949+944344953+941845809+939312018+937221151+934958976
835+933145363+932484390+932537956+933437603+936366538+941227942+946024724
825+949028816+949976391+949415131+948331860+947831215+948344844+949575311
815+951634276+955261502+960218687+964371709+965203026+962101447+956603776
805+950889466+946618925+944611746+944841517+946608909+949073331+951189423
795+951357096+948928435+945963665+945317679+947262092+950042495+953153052
785+957472782+962288929+964870870+963787747+960971212+959263767+958700059
776+956843489+953514736+952064809+954225936+957157987+957192857+953866478
766+948958705+944612117+942882414+944769700+949208508+953849636+957235666
756+959306650+960087442+959547550+958625348+958871442+960347187+961333638
746+960944429+960195094+959793421+958384523+954251013+948818705+946336626
736+949120962+954918885+959762705+961654071+960529624+957393323+954542512
726+954617890+958397803+963631425+966643975+965742918+962425145+958991632
716+956527730+955274115+954826443+953892742+951791784+949718872+948624027
706+947767410+947042856+947776239+950372648+952592015+950846287+943881255
696+935009574+929327686+928549491+929620075+928859315+925839198+922022338
686+918442223+915646314+913391631+910589119+907422028+905819045+905809029
676+904145728+898766616+891452735+884456692+879338808+879472576+886101148
666+893305967+897140040+898942301+900410701+901078351+899521367+895549891
656+890471774+886228980+883846985+882204532+879756210+877259663+876966903
646+879594324+883291810+885148899+883160342+877083903+869246972+863952142
636+863750712+866495874+867458288+864839176+860979804+858395267+857992851
626+859456948+861028548+860039575+855581699+850360912+847365130+846433803
616+846330602+847493778+850360392+853382141+855212819+857193956+860301248
606+860882613+854052314+841840231+832214096+829975439
##END=
