##TITLE=<SNM>
##JCAMP-DX=4.24
##DATA TYPE=INFRARED SPECTRUM
##DATE=2/5/2025
##SAMPLING PROCEDURE=Instrument type and / or accessory
##ORIGIN=Admin
##XUNITS=1/CM
##YUNITS=ABSORBANCE
##RESOLUTION=4
##FIRSTX=4497.3318
##LASTX=599.83466
##DELTAX=-1.4281778
##MAXY=1.7427555
##MINY=0.29624656
##XFACTOR=1
##YFACTOR=1.6230676e-09
##NPOINTS=2730
##FIRSTY=0.32014087
##XYDATA=(X++(Y..Y))
4497+197244326+198452362+198872533+198373645+197578252+196852027+195751756
4487+193941877+192154859+191645303+192853468+194871697+196134029+195768190
4477+194446549+193679268+194244295+195705613+197249210+198304495+198604874
4467+198342412+198038636+197886086+197609687+197067465+196414431+195751536
4457+195148518+194844834+194949110+195063522+194725335+194178689+194178835
4447+194887855+195504754+195252280+194209995+192963197+191985858+191546021
4437+191740270+192372207+192926217+192895828+192295510+191672845+191523014
4427+191916340+192676057+193521743+193960037+193497579+192241288+191042836
4417+190773194+191445417+192214498+192356912+192010150+191699341+191508067
4407+191158056+190662473+190411101+190638786+191128365+191403442+191071168
4397+190228365+189579260+189712805+190263234+190379537+189943924+189525350
4387+189292707+188892146+188233676+187633229+187255547+186932270+186517056
4377+186147673+186030177+186004874+185658737+185062165+184858570+185356852
4367+186122591+186664887+186871291+186656807+185891748+184786941+183865715
4357+183563224+184033412+185034677+185875241+185918354+185291411+184714779
4347+184617701+184823022+185074577+185412800+185880639+186219633+186089852
4337+185373800+184218664+183091364+182701912+183360767+184463371+185124687
4327+185183628+185060476+184911433+184540472+183968100+183551619+183540125
4317+183831929+184207610+184528169+184648347+184449489+184132896+184226027
4307+185005666+185999531+186361312+185842189+185163265+185125990+185534832
4297+185524201+184937948+184676973+185425397+186646488+187265444+186987465
4287+186406647+185995749+185593994+184914518+183996928+183087343+182522628
4277+182597103+183121588+183460949+183348263+183134165+183047737+182903303
4267+182672772+182696073+183150856+183764303+184177166+184350703+184443815
4257+184393468+184055961+183744179+183918229+184407698+184763548+185098025
4247+185672931+186132415+186039725+185637989+185392694+185335846+185312711
4237+185330007+185358927+185204266+184795277+184336913+184052986+184017162
4227+184307167+184987965+185738299+185874653+185165339+184370626+184448755
4217+185334892+186122995+186407088+186630146+187019598+187099435+186512411
4207+185617699+185031611+184979611+185209665+185420127+185743183+186553743
4197+187691270+188367771+188104942+187281859+186584425+186345778+186508334
4187+186859980+187156485+187187939+186851791+186174206+185328483+184706388
4177+184812794+185824140+187269593+188347463+188569126+188015392+187102832
4167+186293668+185952305+186160986+186570140+186801479+187087886+187865615
4157+188657960+188443091+187303636+186399229+186256669+186416967+186544727
4147+186609636+186326700+185546749+184819808+184736740+185115708+185428793
4137+185651815+186085188+186574033+186630385+186304262+186210379+186599372
4127+187041779+187100133+186772266+186292107+185879445+185607343+185365794
4117+185083758+184955483+185238217+185862461+186443481+186747900+186940753
4107+187169724+187153382+186617164+185924266+185688171+185953608+186316711
4097+186588079+186798817+186797587+186415626+185891564+185610868+185531215
4087+185415279+185448000+185946337+186657156+187026392+187004321+187017230
4077+187285054+187558607+187407361+186646764+185616983+184932825+184822893
4067+184931540+184886976+184770415+184827557+185008438+185107261+185166643
4057+185405878+185862387+186370493+186738003+186804509+186603485+186512062
4047+186874926+187506129+187936087+188008873+187842296+187441881+186782347
4037+186084509+185686721+185750381+186228887+186919050+187402110+187240453
4027+186513090+185928985+186145452+187085278+188041024+188328569+187809924
4017+186921418+186190879+185783634+185608536+185617846+185767494+185923091
4007+186067102+186399339+187073582+188025105+189062799+189890766+190141808
3997+189718038+188968494+188281747+187825513+187790901+188279396+188911444
3987+189222289+189354127+189691689+190087806+190091754+189681608+189303008
3977+189347718+189784232+190200951+190256642+190057454+189884762+189771176
3967+189673290+189774004+190235214+190886321+191439909+191805454+191979064
3957+191887604+191637334+191684964+192467596+193935561+195469500+196228904
3947+195926982+195303491+195278170+195746137+195810844+195084840+194060586
3937+193461259+193886260+195551962+197728855+198772792+197642096+195344126
3927+193966078+194493831+195965872+196842920+196999343+197517089+198828153
3917+199914396+199499182+197650799+195623150+194493978+194531968+195694926
3907+198213770+202222832+206891760+210563738+212116130+211292901+208108702
3897+203615716+200261965+200075410+202747023+205413182+205564887+204556828
3887+205260927+207647639+209131138+209020931+208871815+208407704+206221117
3878+203707433+203557932+206079988+209711993+213350240+215923875+215931348
3868+214202592+213311167+213535657+212747425+210114776+207447166+206674008
3858+208640256+213898558+222091983+228423106+226670424+219569541+213027919
3848+209483720+209010960+210779727+213820741+217523916+221544142+224940860
3838+226054205+224471020+221747811+219146872+216663504+214319795+212885193
3828+212813490+213805905+216114139+220573450+225820956+227776369+225710491
3818+223243502+221719644+219455496+216144197+213660664+213563769+216057548
3808+219581861+222019986+223968000+227547435+231739601+233034929+231666925
3798+230536632+229794470+228241582+226571711+226409284+228119476+231096133
3788+234911148+239163412+243017814+246294813+250288084+255891312+261756543
3778+266206654+270148752+275983264+285315372+298257360+312888479+326043664
3768+336637976+345811862+353537375+359241188+364429551+371139917+379009643
3758+386016294+392130051+400099150+412861762+430573189+448572712+462003323
3748+473113490+486613985+501974230+512545884+516324874+519400133+526292464
3738+537023571+548201933+555004181+555616361+553372852+552357265+553524850
3728+555710740+557602402+558300184+557473246+555111744+551132097+546177663
3718+542173411+540918681+542733076+546419229+549428973+549246568+546145823
3708+542354421+539482757+538383771+539313939+541540923+544044838+546650404
3698+549580274+552826370+556543261+561415325+568103106+575832108+581550023
3688+582666599+580518351+578041611+576870647+577781719+581298834+587154756
3678+593474495+596330000+593133664+587955070+585457361+583853281+578546081
3668+569837922+561757330+555959505+551587211+548073915+546546109+548159187
3658+551602965+553652611+553535610+554307941+558694043+566009722+571131726
3648+568573901+559869341+551091628+546322059+545894525+547634482+549279362
3638+550188268+550863575+551825987+553710010+557774562+564793882+572063694
3628+573833911+569582364+564774088+564028382+569220821+578791173+587288650
3618+590450649+590912814+592994372+596348913+598349864+599149039+600466199
3608+601646234+601310545+600799575+602455435+606377831+610593426+613735521
3598+616369805+619637898+623536460+626876091+629196499+631868424+636204362
3588+640798833+642420834+640808968+638751941+637891364+637759086+637748363
3578+638289887+639832272+641672337+642589982+642276511+641379798+640558882
3568+639910933+639207165+638595426+638700749+639707045+640393626+639132837
3558+636168373+633683444+633368356+634851763+636740744+638619810+640804268
3548+642128075+640351468+635619651+630941524+628431916+627705159+627732922
3538+628274152+629525320+631067485+631888989+631492596+630354242+629563439
3528+629826893+630252225+628769772+624729164+620162089+617799742+618827265
3518+622201269+624946273+624365014+621213701+618919147+619097182+619943731
3508+619702972+619210657+619698345+620455436+619870211+617797686+615528911
3498+613986893+613322199+613840844+615492334+616531535+614824776+610800399
3488+607514972+607340977+609707252+612057149+612295007+610389647+607617945
3478+604779332+602195286+600738834+600879191+601283957+600553785+599495011
3468+599640216+600728809+601564855+602082142+602737692+602949807+601827171
3458+599685312+597505518+595619291+593923586+592639734+591947240+591323161
3448+590120836+588730633+588206846+588709553+589143551+588759607+588356678
3438+589002900+590451567+591390108+590470884+587191186+582775594+579540478
3428+578589378+579076808+580014725+581305077+582382543+581733823+579173611
3418+577042145+577818920+581264277+584373689+584553487+582448719+580567780
3408+579943518+579673564+579033034+578178553+577048168+575392124+573945624
3398+573858038+574815786+575282321+574573852+573529510+573105501+572962904
3388+571888706+569739099+568126462+568446360+569957787+570758873+570193258
3378+569255525+569015170+569559558+570320064+570939111+571514715+572127189
3368+572719501+573481770+574636465+575719109+575800121+574553948+572608743
3358+570869778+569881256+569826758+570712491+572122525+572950859+572298393
3348+570916710+570559758+571671487+573174064+574524128+576052926+577120880
3338+576210396+573368221+570555902+569242855+569284500+569985954+570844549
3328+571493195+571934207+572520423+573001170+572257961+570004096+567995139
3318+568157530+570031308+571428158+571314572+570667762+570614990+571132864
3308+571615227+571663665+571168045+570243239+569337675+569077196+569726356
3298+571033858+572532028+573618381+573620731+572400007+570672866+569280276
3288+568713707+569521586+571975961+575054011+577002594+577308207+576963924
3278+576774027+576676710+576486042+576314360+576334301+576543588+576599187
3268+575922741+574360672+572617116+571554303+571293970+571557571+572277755
3258+573165324+573604757+573746730+574392034+575245744+575080562+574057153
3248+573840962+574967380+575891783+574994629+572346097+569422396+567827240
3238+568135202+569534219+570551679+570108280+567992752+564881431+562014505
3228+560363749+560145024+561096124+562466166+562862780+561512936+559724504
3218+559558991+561181433+562892893+563588729+563825595+564363887+564867843
3208+564326356+562386109+560087956+558899511+558914384+558700029+557257789
3198+555258822+553842398+553043185+551960835+550145007+548316510+547414582
3188+547360598+547311866+546781102+545982918+545373088+545205152+545269969
3178+545043128+544364148+543618295+542965829+542005585+540457618+538578699
3168+536821298+535537079+534846825+534407906+533596685+532242434+530799607
3158+529645462+528748859+528003997+527294206+526474355+525796183+525758799
3148+526166466+526153135+525398358+524449791+523817046+523415732+522778360
3138+521627961+520318990+519385554+518766764+518185578+517946619+518365854
3128+518822032+518265709+516419070+514061938+512324478+511705615+511735067
3118+511787398+511820082+511899919+511662575+510792486+509518550+508360108
3108+507760708+507838231+508159121+508116154+507722773+507499311+507476579
3098+506971558+505563067+503755759+502385203+501720178+501457017+501324005
3088+501280304+501225513+500963454+500539923+500264974+500300155+500500518
3078+500656520+500598717+500163140+499377332+498558509+497931676+497277558
3068+496211256+494768502+493443152+492592931+492084862+491574589+490886722
3058+490054642+489231192+488632967+488352474+488152221+487614883+486582146
3048+485391094+484676823+484849056+485561124+485835044+485100171+483934606
3038+483272408+483192498+483165433+483098376+483209024+483154746+482271364
3028+480534785+478541510+476724176+475102285+473690084+472799247+472703509
3018+473097809+473380836+473507091+473892578+474409791+474293561+473170337
3008+471505994+469994089+468991466+468500767+468318361+468107899+467532590
2998+466516562+465356615+464456266+463949519+463596313+462990156+461948825
2988+460781277+459996350+459725037+459659045+459426549+458820722+457942958
2978+457285828+457312049+457836423+458195468+457958161+457139155+455932936
2968+454582027+453321789+452224272+451219959+450317443+449654254+449376001
2958+449573169+450150021+450644723+450468009+449458849+447984108+446509588
2948+445255372+444169717+443213218+442742240+443230882+444346650+444895776
2938+444112575+442451206+440836035+439717439+439001075+438444384+437951261
2928+437522735+437051720+436439063+435842711+435453773+435057931+434166359
2918+432678765+431250773+430784129+431436815+432323135+432396729+431434170
2908+430005151+428800548+428173826+428050472+428014850+427571414+426591853
2898+425559042+425099081+425199446+425179579+424483890+423226846+421967342
2888+421189539+420946834+420853299+420506924+419965987+419633089+419697171
2878+419951885+420145528+420166681+419835031+418954366+417742529+416790180
2868+416404657+416266209+415768680+414579207+412975935+411704679+411203881
2858+411034146+410507495+409644016+408956149+408533279+407973723+407160336
2848+406561964+406630086+407231175+407800609+407822313+407098824+405794297
2838+404321099+403085979+402302778+401955117+401806607+401535368+400966338
2828+400129998+399197846+398454894+398098052+397968272+397734417+397317275
2818+396831608+396235329+395398438+394463716+393814739+393602147+393490177
2808+393048247+392298281+391608725+391120560+390614915+389934098+389220672
2798+388677495+388276218+387787870+387071505+386267078+385618322+385148922
2788+384654625+383982806+383173972+382375237+381731952+381290683+380912578
2778+380385450+379688622+379012030+378455339+377874080+377095029+376141725
2768+375196793+374468274+374099203+374053666+374044485+373712138+372981892
2758+372151024+371510089+370967721+370198805+369100223+367948575+367115541
2748+366711289+366521796+366303732+366068922+365934037+365760555+365197328
2738+364097497+362713464+361485468+360729589+360465952+360432901+360247888
2728+359659835+358776599+358025238+357719992+357668286+357403106+356792798
2718+356174449+355838613+355568916+354837679+353474431+352007696+351163020
2708+351064234+351142234+350834125+350143944+349462724+349063724+348909779
2698+348785911+348459990+347823977+347005741+346254747+345676499+345203611
2688+344791391+344452250+344138484+343773270+343349591+342872333+342284758
2678+341549848+340748175+340036695+339511182+339130250+338779284+338370883
2668+337870893+337296354+336715757+336215253+335869024+335712288+335660839
2658+335531388+335247883+334888948+334469750+333923819+333336428+332892184
2648+332581173+332211184+331667420+330992039+330315960+329814502+329602020
2638+329592802+329533420+329211209+328630684+327995516+327508342+327194981
2628+326938431+326617211+326147995+325485358+324720335+324125819+323920938
2618+323964346+323864458+323457342+322972225+322626584+322307530+321824213
2608+321245488+320772343+320447010+320166002+319853192+319479898+319027061
2598+318554136+318215179+318090466+318041918+317821320+317347991+316843411
2588+316609483+316636548+316555536+316098696+315437307+314868240+314405892
2578+313957058+313610168+313407418+313126337+312627889+312121106+311804366
2568+311556225+311207536+310847279+310675524+310711843+310763219+310628114
2558+310281775+309853616+309473271+309193035+308997482+308802848+308493600
2548+308038431+307553241+307204937+307068730+307120583+307331082+307649052
2538+307888636+307804925+307354860+306747161+306196438+305743344+305318417
2528+304881958+304482187+304217760+304144441+304178153+304110803+303835487
2518+303556774+303589605+303930545+304262268+304382483+304357107+304273414
2508+304112988+303850764+303498678+303098557+302752218+302561403+302477821
2498+302312198+301966722+301593924+301422150+301447783+301434342+301245584
2488+301034387+300991806+301023333+300866396+300495709+300161838+299988081
2478+299824147+299584729+299415122+299411816+299443876+299323515+298987146
2468+298541452+298222068+298193553+298342631+298386828+298169223+297754028
2458+297309068+296971433+296765983+296647036+296630437+296772851+296994128
2448+297099322+297034175+296947306+296951547+296981311+296932506+296809776
2438+296664113+296472820+296193281+295905278+295760716+295774560+295798908
2428+295724084+295571865+295396750+295238765+295164749+295222662+295347944
2418+295410337+295367628+295314783+295368785+295533306+295690519+295732053
2408+295704455+295773753+295976962+296096056+295936015+295635966+295485180
2398+295515458+295503817+295325671+295102448+295012494+295088089+295185057
2388+295055791+294444364+293182032+291204621+288425114+284636833+279677349
2378+273696715+267172334+260659246+254534931+248861819+243436737+238111047
2368+233125526+229019936+226141074+224338448+223321521+223309788+225115149
2358+229482174+236444536+245550722+256576718+268996076+280590533+288128572
2348+289776739+286528807+281659791+278053677+275780018+273391084+270400362
2338+267346293+264644696+262127395+259513383+257073330+255510765+255140519
2328+255507019+255858500+255816947+255680960+256157025+257725483+260280297
2318+263281595+266104233+268415258+270363180+272253795+274109431+275793826
2308+277368601+278977437+280521254+281745210+282587977+283240001+283853503
2298+284366989+284714503+285071767+285687638+286521426+287247852+287627095
2288+287734750+287819489+288038049+288349042+288592316+288621364+288391990
2278+287981403+287543403+287234338+287144035+287229509+287318637+287259126
2268+287064731+286868168+286781060+286826818+286916331+286909170+286802029
2258+286768611+286913761+287136800+287328001+287515933+287730766+287892220
2248+287912712+287812622+287705665+287712110+287859059+288028685+288050921
2238+287896168+287746538+287826577+288173981+288614662+288958633+289178790
2228+289368246+289539157+289553112+289325463+289009954+288854191+288935332
2218+289148713+289364629+289488405+289468960+289360277+289310572+289405061
2208+289549531+289576945+289465012+289368999+289410790+289538900+289655038
2198+289766714+289936596+290164667+290380767+290517874+290570186+290586987
2188+290616715+290683276+290800846+290941460+291028036+291048656+291107487
2178+291275185+291489980+291672165+291810319+291895683+291896656+291816084
2168+291693226+291566126+291484453+291524849+291734283+292039216+292260310
2158+292295179+292256876+292330617+292552959+292839787+293130655+293387150
2148+293552461+293614928+293650531+293745902+293890666+293973036+293928803
2138+293868870+293970613+294290951+294775481+295336560+295810990+295992514
2128+295853020+295646524+295679208+295997362+296377651+296633559+296804984
2118+296971194+297062746+297022203+296991594+297166141+297548064+297949452
2108+298187842+298229780+298172969+298153451+298275152+298533704+298792310
2098+298950001+299102146+299378986+299727712+300031782+300297806+300549748
2088+300701342+300683513+300571672+300494828+300494883+300526428+300554063
2078+300598296+300676590+300750588+300781803+300815442+300965200+301305718
2068+301769536+302154159+302276815+302146612+301953520+301877870+301957101
2058+302125257+302300300+302409368+302423488+302422625+302538488+302787253
2048+303058547+303297121+303557417+303823717+303935503+303810717+303626181
2038+303618268+303775242+303871035+303766685+303574328+303525412+303721479
2028+304041909+304324606+304567954+304863964+305244547+305720759+306318635
2018+306936599+307354255+307510843+307600063+307843760+308332274+309028734
2008+309768050+310332820+310662487+310915585+311283187+311816962+312409421
1998+312898798+313290417+313818610+314561048+315115903+315037095+314472655
1988+313937925+313663454+313547077+313501614+313522289+313550199+313492102
1978+313351158+313243301+313247340+313286267+313277160+313357437+313725994
1968+314237295+314428771+314063519+313403452+312849699+312576917+312579304
1958+312805704+313126777+313345796+313344621+313160196+312937872+312844447
1948+312996005+313506314+314487969+315668885+316184960+315445827+314025290
1938+312942426+312505123+312376077+312295579+312306522+312486724+312745221
1928+312963542+313327912+314179749+315364484+316287712+316813885+317232276
1918+317271166+316327887+314742058+313622617+313542413+314131274+314648010
1908+314649625+314233145+313777003+313518984+313433785+313447373+313648067
1898+314194769+314967687+315543254+315832047+316347020+317307008+317999576
1888+317713720+316751933+315810160+315147963+314783593+314767985+315038013
1878+315422948+315820296+316251025+317019059+318771649+321784919+324904503
1868+325976460+324353100+321746176+319932735+319231243+319068228+318975942
1858+318892212+318950860+319224707+319639682+320175660+321010421+322365774
1848+324475169+327461961+330442216+331291115+329240294+326386661+324835756
1838+324709354+325006447+325290833+326336607+328999535+332547975+334799710
1828+334846827+334012727+333210576+331973988+330258378+329015987+328812723
1818+329241028+329727026+330349158+331614575+333513949+335115128+335472557
1808+334763648+334049744+334330421+336029505+338693718+340985702+341714443
1798+341238801+341269905+343234463+346812245+349466910+348727520+345711533
1788+343533833+343582491+345069497+346763954+348287831+349576420+350314671
1778+350754985+352161861+355692233+360837262+364849667+365231040+362830795
1768+359813596+357363444+356458211+357774673+360288834+361930006+362386955
1758+362823120+363371144+363819647+365332323+369109037+374046615+377143797
1748+377049528+375347580+374039160+374010516+375211556+376846595+377841616
1738+378581410+381165750+386346695+390631183+389944675+386162820+382666160
1728+380360625+379449039+380053984+381604779+383894780+388226348+395796888
1718+404620578+409189637+407070143+402088202+398276014+397140525+398861129
1708+403013487+408218375+412633415+416425038+421855702+429371414+435326416
1698+437045587+435971022+432991575+429081152+426984977+428113709+431570892
1688+436708209+444716345+455345839+462399863+460851823+455803560+453224435
1678+454744712+459324935+464323290+467800377+470850847+474809966+477814275
1668+477429597+475655817+476087134+479107124+481987638+482614361+482380947
1658+484196077+490191364+501099625+513184285+516658837+512165282+510023460
1648+512561969+514790899+511861469+506286629+502788353+502925258+506651623
1638+513454055+520679872+522593090+517529330+511502571+509136222+510401271
1628+513053659+515490885+517772146+519596126+519807984+519265284+520717109
1618+524909165+528536267+527929449+524798848+522750928+522768151+523900445
1608+525019335+525787884+526505607+527365523+528106419+528441814+528596824
1598+529097989+530113025+531269190+532127270+532599129+532805625+532808563
1588+532694720+532731921+533185419+533999762+534970987+536460490+539513935
1578+544447768+548807099+548896851+546148578+545339780+547754715+550505705
1568+550686164+549327911+548881464+550770334+556578332+568040199+582299475
1558+587888894+582183869+575423706+572120946+571626244+572684173+574568674
1548+577627150+583234050+592144665+603336798+615019226+624506693+626848181
1538+622455982+619118629+620946281+626084627+630403599+633077947+636863327
1528+643077670+650382919+657677593+665867804+675064238+682432505+686124166
1518+687882485+688983822+689339378+690010316+692860202+698831289+707915276
1508+718435223+724167166+720039670+712523481+708810593+709975167+714335931
1498+719218607+721852854+721763175+721686497+724287178+729402314+734097261
1488+735594476+734307907+732428254+731566721+732297591+734390975+737504536
1478+741747931+747267026+753468662+758463492+759618959+756904288+754015841
1468+753927778+756465810+759185549+759967905+759942052+762289488+768754799
1458+776907038+779594387+774123988+766681760+761813405+759986267+760223427
1448+760751583+759745287+757083204+754189396+752292924+752127228+754299053
1438+758255564+760959952+759625496+756149180+754012903+753969864+754574185
1428+754743259+754893899+755508650+756369007+757671955+760063313+762544276
1418+762317986+758892569+754892871+752179889+750717855+749801311+749168346
1408+749215131+750120364+751107270+751527754+752200087+754108898+756640981
1398+758511894+759575405+760162980+759956447+759211916+759355431+761077835
1388+763009121+763232767+762351918+763193840+767271686+773425875+779638161
1378+785275138+791082952+797106332+801608554+803293720+803573186+804678047
1368+807138666+810390307+814185896+817933378+819981591+819420677+817441283
1358+815505664+813749401+811671147+809267671+807027026+805199741+803636276
1348+802336780+801674803+801969840+803224460+805229707+807484674+809099845
1338+809501159+809241157+809354485+810175107+811334540+812654087+814509650
1328+817129575+819939359+822119631+823710123+825552686+828111576+831000169
1318+833748479+836438766+839350936+842381135+845148320+847531085+849707831
1308+851693100+853387153+855131591+857434078+860007070+861933656+862889200
1298+863467153+864321488+865434649+866013925+865076595+862537609+859385709
1288+856401267+853350136+849732435+845672437+841821469+838756236+836585292
1278+834995828+833649693+832587137+832270287+833111768+834805454+836312290
1268+836778605+836360839+836081300+836993070+839208302+841534879+842544701
1258+842176879+841619343+841769836+842622261+843843756+845225807+846727355
1248+848481120+850606674+852858262+854708537+855927829+856863102+858061755
1238+859758452+861712580+863520990+865157975+866978356+868993372+870669357
1228+871879835+873383147+875708476+878200088+879826276+880511463+881190259
1218+882848102+885758803+889382086+892864204+895720187+897980809+899717608
1208+900823718+901510153+902581964+904780964+908032018+911618797+914915021
1198+917817790+920729739+924081782+927659748+930714111+932854060+934235670
1188+935027575+935499324+936338382+938175068+940997853+944193748+946911725
1178+948766920+950360938+952490751+954964149+957021838+958804100+961351166
1168+964809927+967706967+968663099+967988122+966890311+966120073+966409674
1158+968832761+973250446+977546943+979720898+979794345+979032480+978652319
1148+979461924+981474149+983823128+985705058+987208002+988820969+990274190
1138+990765843+990663532+991727043+994979198+999227514+1002736367+1005301279
1128+1007456946+1009245158+1010560445+1011680143+1012887684+1014123208
1120+1015023373+1015059949+1014267678+1014071868+1016049646+1019530956
1111+1021931128+1021904246+1020493184+1018916573+1017366476+1016215783
1103+1016606962+1019166072+1022985605+1026736538+1030463014+1035094870
1094+1040177248+1043450483+1043564914+1041722424+1039941043+1039275835
1085+1039581521+1039747217+1038775661+1037177897+1036389812+1036863985
1077+1037598675+1037345870+1036662447+1038647423+1045772360+1056012842
1068+1063609455+1064635215+1060724901+1056680841+1056008876+1058841209
1060+1062773115+1065112987+1064688757+1062477492+1060787992+1060795264
1051+1061565648+1062109008+1062658758+1063218938+1062917512+1062375914
1043+1064399817+1069561372+1073741823+1073687325+1071407166+1069967460
1034+1069276912+1068362058+1067950167+1068217000+1067651238+1065429470
1025+1062549690+1061045057+1062555272+1066495184+1069157928+1067515949
1017+1063327272+1059677916+1056443314+1052249863+1047838275+1045103773
1008+1045015270+1047211699+1050169259+1051875504+1051329133+1049552672
1000+1048357765+1048146238+1047513272+1045588155+1043796271+1043611993
991+1044002363+1043194521+1041466389+1040100276+1039366762+1038896922
983+1038303177+1037030195+1034931817+1032706743+1030938583+1029150004
974+1026060313+1020591162+1013148273+1005971262+1001241135+998680261+995851233
964+991212547+986033072+982449891+980530356+978514679+975630052+973066094
954+971790762+970907196+968718257+964499688+959108758+954365410+951636270
944+950872643+951068011+951472777+951952532+952538198+953008111+952802019
934+951566642+949914748+948993136+949028978+948836474+947415497+945389317
924+944098488+944151663+945342605+946913340+947638188+946822633+945183739
914+943885198+943219402+942784816+942385339+942115054+941691706+940267056
904+937527634+934659018+933207928+933207781+933505388+933532269+933436201
894+933045683+932190394+931485157+931491914+931524745+930510517+928821385
884+927930621+928409788+929517588+930448234+930923729+931055713+931329670
874+931958375+932065828+930836254+929038641+927863710+927191010+926392349
864+925863457+926413428+927650494+927947513+926306195+923826040+922572816
854+923158849+924352508+925057084+925556963+926341817+926802917+926063233
844+924423164+922791467+921154115+918900838+916407609+915227978+916694199
834+920322256+923450873+923699271+922013003+921216325+922014179+922979491
824+923432438+923492738+922678946+921240489+921253562+924340389+929736239
814+935470313+940023874+942441966+942606120+941594022+940487911+939203031
804+937366271+935899096+936469925+938945159+940900830+940512883+938254391
794+935489188+933234222+932215880+933013514+935908864+940289091+944191618
784+945491335+943969662+941364280+939607577+939745510+941583078+943417782
774+943302690+941511688+940489601+941982629+944944008+946558518+945372498
764+942936851+942021630+943702829+946683158+949033679+949838143+949247042
754+947916919+946896815+947373045+949557135+951728446+951440387+948242876
744+944367156+942387542+943074932+945349068+947337570+948079604+948566704
734+950080297+951889735+951971996+949904098+947308925+945588211+945080399
724+945983796+947998078+949433965+948718225+946180854+943373714+941709994
714+941839702+943329278+944903833+946282285+948671145+951605129+951972951
704+948477466+944539169+944159596+946694615+947154026+941955013+933593891
694+926606079+921721199+917261870+913247776+911011098+910384155+910130249
684+909747664+909117930+907633495+905015627+901963541+899136790+896294982
674+892743898+887164577+877265183+862921296+852123867+855607674+868201614
664+877325483+879562529+877599513+874360064+871823795+871384583+872369800
654+871949022+868346525+862809069+858453300+857659266+859491546+860911128
644+861938870+866045654+873712336+879626941+878456565+870937732+862374484
634+857565327+857610130+860370191+863479860+865357310+863906292+858257638
624+851335194+847201455+846981335+849090950+852220449+856044903+859088763
614+858000060+850737703+840510589+833943114+833914983+836982493+838455618
604+837244038+834641520+832497311+833822734
##END=
