##TITLE=<SNM>
##JCAMP-DX=4.24
##DATA TYPE=INFRARED SPECTRUM
##DATE=2/5/2025
##SAMPLING PROCEDURE=Instrument type and / or accessory
##ORIGIN=Admin
##XUNITS=1/CM
##YUNITS=ABSORBANCE
##RESOLUTION=4
##FIRSTX=4497.3318
##LASTX=599.83466
##DELTAX=-1.4281778
##MAXY=1.85967
##MINY=0.38942215
##XFACTOR=1
##YFACTOR=1.7319527e-09
##NPOINTS=2730
##FIRSTY=0.40952462
##XYDATA=(X++(Y..Y))
4497+236452543+237793082+239935415+242047996+242976453+242209935+240345552
4487+238373917+236799117+235642352+235088379+235586119+236979020+238135457
4477+238180231+237548480+237006827+236500741+235823047+235320902+235242006
4467+235199349+234756621+234137139+233977334+234571917+235654793+236831484
4457+237896068+238671741+238927976+238543753+237491093+235889381+234410203
4447+234094396+235224386+236721804+237081558+235845279+233965892+232813481
4437+232964114+233846369+234459760+234371142+233994284+234071768+234980971
4427+236356681+237301503+237013744+235401036+233293118+231909716+231860882
4417+232627676+233186020+233162291+233090140+233592871+234670343+235752841
4407+236262488+236110014+235609848+235000312+234273026+233375025+232397871
4397+231733117+231966758+233044610+233891797+233801510+233592991+234258933
4387+235255634+235211566+233696235+231503932+229728512+229008522+229208643
4377+229669112+229980582+230339820+230969592+231559133+231610033+231115253
4367+230571431+230408547+230611421+230786317+230458947+229542879+228595373
4357+228308974+228760564+229379271+229511493+228879449+227854786+227376163
4347+228152576+229796464+231051293+231129139+230505510+230048913+229801626
4337+229285285+228740707+229031855+230205242+231111484+230766494+229373851
4327+227790362+226682156+226280692+226399130+226627798+226685598+226549677
4317+226299603+226031959+225817091+225715740+225925343+226549729+227109828
4307+226957921+226322230+226099034+226653919+227610493+228547141+229195497
4297+229324948+228978839+228486141+228057368+227728157+227529326+227361313
4287+227010387+226550486+226403483+226763203+227267379+227454371+227452943
4277+227881389+228889585+229797221+230004105+229679505+229231529+228694006
4267+228019271+227611646+228006847+228941258+229328579+228604510+227532303
4257+227165545+227630798+228276641+228452225+228068346+227761247+228187077
4247+229039357+229474944+229479900+229821260+230700314+231373913+231120535
4237+229940679+228341289+226917088+226105985+226081878+226796258+228031901
4227+229374677+230340612+230699867+230600340+230391494+230357097+230350368
4217+229675393+227910125+225887486+225104431+226085750+227931066+229370547
4207+229824271+229555544+229130333+228834401+228593825+228324030+228092781
4197+228017395+228168700+228392464+228287017+227677481+227022397+226972307
4187+227567199+228184324+228208500+227611543+226910670+226698073+227306422
4177+228663153+230222466+231256473+231372881+230687374+229658392+228834401
4167+228497515+228459624+228336781+227934886+227354517+226946651+227060770
4157+227595299+228024020+228053978+227963640+228139791+228513191+228602669
4147+228064561+227080799+226116998+225456941+225150014+225173794+225391192
4137+225559136+225623939+225864738+226564785+227643548+228736611+229554546
4127+230036937+230166405+229790183+228803100+227488889+226385175+225700649
4117+225297790+225413957+226662265+228890118+230773497+231144058+230186400
4107+228902748+227950080+227358165+226986503+226852096+226968831+227069959
4097+226746994+225937336+225110334+224845719+225348466+226402176+227559731
4087+228277106+228156001+227360539+226598064+226434990+226785487+227204245
4077+227523613+227921206+228329262+228202340+227215085+225855309+224945177
4067+224896240+225597646+226561722+227138082+227050308+226654057+226419624
4057+226505747+226916693+227532733+227948927+227805883+227358388+227336862
4047+228136126+229329387+230062008+229838794+228818415+227492347+226308619
4037+225507841+225169217+225369115+226112111+227031380+227528603+227424551
4027+227159093+227207050+227520981+227730773+227795851+228040402+228447459
4017+228509681+228059898+227621592+227619871+227851912+227970505+228002597
4007+228196163+228629926+229116739+229411398+229421343+229181439+228767911
3997+228410738+228480428+229063448+229714574+229896800+229547990+229054121
3987+228790642+228819826+228965331+229035795+228872876+228420220+228043258
3977+228404475+229583970+230779124+231336143+231499338+231664029+231626517
3967+231145744+230641809+230838920+231982727+233514732+234426859+234153658
3957+233179515+232573851+232998649+234409239+236420658+238268986+238705020
3947+237190980+235086434+234242758+234725545+234998729+234128157+232755802
3937+232069676+232868028+235236362+238271825+240299316+240322013+239381700
3927+239444231+240941994+242234025+242018537+241352682+241924878+243497354
3917+244155536+242627970+239582148+236614671+234869519+234733925+236362067
3907+240106198+245989272+252714628+257825815+259510019+257500991+252501395
3897+246466449+242357729+242130901+245002929+247515908+247195060+246334279
3887+248090118+251381076+252920669+252947168+253644668+253584167+250586612
3878+247302554+247498512+250976083+255242388+258795277+260449712+259177401
3868+257081579+257195922+258759606+258354459+255116809+251825249+251147778
3858+254243054+261509823+271340556+276699305+271507330+261299945+252991099
3848+248844023+248978843+252507916+257823956+263524185+268886512+272708093
3838+273066127+270063788+266365824+263649747+261498896+259408444+257901045
3828+257368305+257855859+260535422+266635911+273518043+275359815+272033926
3818+268593333+266020042+262239501+257900150+255468631+256133334+259767183
3808+264646328+268194845+270767241+274741211+279100677+280036963+277776003
3798+275292672+272802975+269596728+266890734+266210786+267601398+270574915
3788+274993109+280300356+285323579+290042093+296093059+304054351+311670842
3778+316804174+320859672+326884345+336650929+349921171+364080449+375492262
3768+383110026+388133679+391034632+392617950+394892659+398349616+401023742
3758+401911125+403178619+407621523+416060629+426174320+433307697+436702604
3748+441200228+449348185+457868234+461658016+462252703+465269289+473527270
3738+487309948+504825657+521309992+531752034+536277464+539250276+544016231
3728+550996153+558972587+567004464+574894242+581072576+582769428+580514989
3718+578672701+580678597+586687542+594102810+598006677+594326850+584774222
3708+574892486+569333582+569633506+573292065+575609551+574789999+573159465
3698+572864084+574592528+578670843+584888479+592144338+597946589+598319989
3688+592517600+585906604+583101392+583976008+586390130+589758711+595747902
3678+605062931+613241380+613756430+609244318+606839349+605973544+600896480
3668+591763299+584113529+580242975+578595750+577311496+576450165+577008957
3658+578673321+579997392+581269428+584931979+592287022+600799637+603608015
3648+596659479+585091595+575227410+569134665+565690579+563304125+562127349
3638+563279897+566560617+570472847+574453974+579518408+585494935+588236479
3628+583902911+576357245+571380706+570733159+573875979+578807538+581809877
3618+581135624+579849409+581038299+584151041+586986675+588744991+589500669
3608+589130642+588504845+589039788+591185476+594621715+598602120+601688156
3598+602570343+601353507+599380512+598517254+600423484+605256479+610904621
3588+613996920+612881952+609213414+605324552+602348299+600629284+599890194
3578+599397995+598865049+598693457+599419401+601858165+606952780+613986665
3568+619125813+618375985+612939356+607316819+604078464+603157251+603478891
3558+604350753+605826180+607916048+609583647+609378329+607265403+604784723
3548+603255539+602723075+602436676+601749896+600535470+599115450+597946864
3538+597009890+595613478+593423808+591503468+591485228+593633325+596231222
3528+597253752+596183592+593759352+590959096+588705552+587536347+586808269
3518+585190503+582667698+581005468+581526093+583381390+584552729+584114630
3508+582899584+581905412+581070236+579980598+578948088+578573243+578469035
3498+577441756+575356053+573944155+574832295+577175765+578214435+576248219
3488+572292765+568985684+568326092+569764557+570498658+568560662+565163862
3478+562840594+562492454+563247203+563952774+563875100+562623712+560373610
3468+558152898+557150087+557339885+557298862+555853341+553384327+551145650
3458+549994169+549832041+549714618+548838213+547666151+547290205+547986415
3448+549268259+550476078+550502061+548353929+544855674+542239812+541652801
3438+542281970+542807999+542723821+542228903+541478249+540218258+538217215
3428+535818441+533773622+532758320+533042034+534077057+534559000+533609361
3418+531633544+529774771+529204726+530509146+532837990+534239907+533651657
3408+531906349+530257919+528910067+527346056+525214926+522640533+520251292
3398+519006650+519484120+521028204+521954132+521201276+519478682+518060349
3388+517140306+516275533+515498346+514889963+514140686+513419285+513491728
3378+514531637+515905782+517201908+518429309+519263762+518981011+517260172
3368+514684507+512320044+510932375+510738861+511738161+513759199+516108760
3358+517645652+517534045+515973785+514174722+513377092+513665212+513947791
3348+513406138+512585726+512593813+513531304+514178783+513392923+511547400
3338+509953173+509102028+508431389+507615382+506977540+506709380+506763033
3328+507364327+508629755+509827903+509913665+508713865+507002800+505720680
3318+505518735+506378758+507234893+506807015+505261863+504079030+504128208
3308+504902023+505449011+505258938+504480030+503768678+503743383+504406933
3298+505224420+505692804+505630066+505003719+503761313+502108306+500844529
3288+500817169+501873598+503029622+503800099+504546175+505471724+506122988
3278+506017782+505270433+504375891+503556339+502643937+501791312+501814542
3268+503175024+504966998+505716654+505026639+503713133+502610830+501983794
3258+501631181+500951456+499457582+497625068+496537632+496493650+496716692
3248+496441890+495630908+494798072+494486068+494625275+494589691+494258724
3238+494327106+495015917+495409827+494640865+492916723+490993010+489307412
3228+487828921+486424732+485260036+484752040+484951921+485135695+484425754
3218+482746936+480839191+479419068+478698390+478689098+479292732+479833525
3208+479325116+477679714+475974500+475242431+475630938+476668129+477594641
3198+477550591+476206146+474219075+472620684+471877980+471767371+471797037
3188+471468996+470517842+469211150+468083724+467179168+465912535+463922366
3178+461695288+460051194+459281337+458987848+458579655+457821224+456963403
3168+456334543+455865230+455163892+454015887+452595488+451264568+450412873
3158+450293144+450659110+450776086+450131086+448881728+447412083+445948666
3148+444808679+444409606+444714279+445069542+444829844+443911660+442636801
3138+441300891+440113997+439327173+438993282+438711357+438014975+436974687
3128+436072850+435586604+435371891+435160413+434848581+434415850+433678240
3118+432429158+430925442+429874967+429692329+429980896+429925144+429083223
3108+427756329+426680009+426301620+426288232+425957748+425253003+424802377
3098+424798592+424515909+423411163+422035504+421245583+421107924+421089925
3088+420852773+420466296+420101087+419779929+419397995+418845054+418042537
3078+417018149+416065653+415570494+415477884+415195718+414234756+412740057
3068+411305170+410453096+410304081+410571552+410769815+410486134+409634646
3058+408541703+407704222+407411593+407579021+407809118+407632708+406908588
3048+405974951+405239234+404719021+404140372+403358298+402576774+402126630
3038+401991208+401765000+401214744+400527275+399823460+398914155+397783219
3028+396802503+396211981+395764693+395084658+394130683+393157779+392414628
3018+391982654+391753487+391536536+391286582+391095959+390863109+390273069
3008+389283543+388287237+387613673+387167520+386634953+385795337+384666776
2998+383589492+383048699+383160444+383431047+383258457+382529898+381496803
2988+380353512+379262497+378504100+378257931+378362311+378453407+378221521
2978+377519495+376466543+375479288+374942522+374777193+374500155+373765986
2968+372721741+371796054+371250409+370961084+370638687+370290101+370243503
2958+370495694+370404151+369482112+368155150+367229222+366927440+366852450
2948+366630372+366243310+365826961+365404107+364908811+364351774+363805062
2938+363260380+362647799+361950935+361201555+360454790+359797951+359236751
2928+358607065+357783417+356897445+356130273+355393316+354501390+353591947
2918+353064404+353082919+353356000+353423040+353024621+352257586+351493269
2908+351069659+351004477+351025298+350835708+350309507+349508470+348669543
2898+348157727+348158966+348330489+348106449+347470087+346932013+346649055
2888+346235390+345593006+345180476+345182128+345086455+344465993+343685329
2878+343382170+343551009+343616569+343302879+342913545+342698970+342450358
2868+341890534+341113587+340427220+339944692+339524110+339036350+338480208
2858+337844431+337084726+336272642+335589614+335137060+334842470+334585083
2848+334399553+334464631+334793670+335056323+334878055+334241521+333466157
2838+332865208+332500584+332231392+331949983+331677212+331388438+330952370
2828+330360471+329830657+329559434+329481864+329357799+329055328+328644623
2818+328192551+327648867+327034840+326516039+326147285+325780940+325340122
2808+324934270+324628530+324329466+323956479+323542814+323150556+322836246
2798+322655534+322524724+322167740+321427583+320523474+319793125+319350965
2788+319131468+319002929+318756864+318291887+317809565+317526504+317310311
2778+316891587+316225800+315417468+314555654+313765252+313125827+312495831
2768+311709421+310915955+310441479+310385693+310568711+310722235+310570982
2758+309948041+309016779+308206657+307794644+307640466+307381530+306822498
2748+306105915+305511229+305134560+304857624+304577730+304277633+303873949
2738+303246156+302473029+301829130+301476001+301286169+300981702+300373629
2728+299533359+298774825+298355551+298193698+297997431+297597808+297039326
2718+296484148+296095812+295841900+295462306+294822984+294130595+293635986
2708+293381421+293298103+293226968+292918922+292358237+291884071+291694068
2698+291538066+291154686+290660560+290279623+289991366+289654411+289278155
2688+288997125+288868586+288810907+288711999+288519036+288221658+287815547
2678+287328407+286844502+286440835+286109800+285803233+285520895+285278272
2668+285040621+284773821+284496232+284232701+283991592+283778186+283554336
2658+283257027+282919935+282653049+282463734+282256970+282030797+281890298
2648+281844802+281743244+281452371+281009764+280559860+280187115+279868073
2638+279574189+279333544+279147343+278930376+278623293+278294237+278044507
2628+277868768+277674222+277393466+277050300+276732102+276489065+276298907
2618+276170677+276165928+276241658+276253737+276187730+276159992+276153969
2608+276008188+275666020+275238314+274859632+274616767+274547611+274615597
2598+274705901+274682878+274477371+274131744+273728008+273295105+272850897
2588+272500968+272402766+272605520+272965928+273267711+273428221+273524703
2578+273609827+273615299+273475851+273240213+273021663+272908542+272916405
2568+272973586+272968767+272855010+272707629+272661083+272770160+272945692
2558+273060207+273097582+273132461+273170438+273104929+272861910+272509692
2548+272199616+272047950+272055573+272086925+271974182+271676134+271270815
2538+270825832+270388508+270040300+269829905+269700988+269557444+269353520
2528+269108986+268872471+268661698+268460303+268279024+268153186+268105660
2518+268183454+268420193+268674655+268689075+268411090+268075220+267906347
2508+267902527+267935513+267924690+267872173+267810158+267752565+267666098
2498+267495263+267248372+267008071+266814988+266640471+266509832+266491283
2488+266547448+266575926+266565705+266548050+266477104+266294706+266025084
2478+265758060+265612142+265652459+265765993+265716470+265396654+264946424
2468+264585345+264390127+264271792+264135183+263988232+263870448+263753163
2458+263571677+263316819+263052170+262848331+262711154+262595521+262495374
2448+262470234+262542884+262610818+262517692+262219884+261843198+261544840
2438+261350534+261184139+261020050+260898308+260807075+260688585+260578819
2428+260603133+260776858+260922605+260864117+260634055+260419238+260336195
2418+260331119+260308767+260282181+260322309+260417087+260483525+260485727
2408+260455133+260436256+260466988+260560459+260688740+260831888+261017882
2398+261285869+261701960+262472592+263958051+266540616+270601879+276684850
2388+285543833+297910224+314232500+334607384+358769846+386055237+415524826
2378+446298698+477763893+509347681+540073992+568441897+592815769+612120011
2368+626440590+636802239+643937509+647381664+646283697+640937372+632551472
2358+621547507+607055474+587574478+562266522+534366553+511337883+499315518
2348+500258275+512694717+531596307+549272389+560608284+565694192+566695144
2338+565727024+564489643+564092291+565093380+567150313+568621232+567638830
2328+563878094+558352778+551708262+543868970+535128392+526248812+517385821
2318+508037513+498186819+488546847+479515085+470528648+460613461+449255713
2308+436712619+423774238+411275401+399666563+388961800+378996299+369593581
2298+360569116+351804550+343356428+335381233+327966102+321084365+314658210
2288+308634432+303056668+298072249+293816595+290283237+287320337+284760089
2278+282538534+280661573+279070065+277614581+276184856+274794158+273505620
2268+272336999+271270797+270299012+269414984+268608269+267907895+267370389
2258+266955933+266481371+265809614+265038500+264368515+263832798+263319537
2248+262812437+262396225+262042304+261616732+261113383+260681839+260417294
2238+260278465+260190690+260102812+259978214+259816619+259644356+259454611
2228+259223413+258990718+258853111+258857154+258934777+258965561+258891982
2218+258749041+258579445+258362994+258065978+257731639+257484472+257437720
2208+257599314+257859782+258066872+258131262+258088209+258055481+258117720
2198+258264206+258424630+258513937+258463880+258303818+258179873+258194551
2188+258281758+258329904+258331504+258323296+258292306+258223872+258143273
2178+258063792+257975587+257888346+257814664+257729935+257603444+257449954
2168+257325666+257281030+257322345+257414129+257511625+257565071+257512555
2158+257335749+257117439+256960285+256850708+256692762+256480888+256350766
2148+256419578+256640727+256869929+257039645+257220443+257528454+258007352
2138+258599887+259231879+259911982+260721055+261721198+262914476+264264204
2128+265734039+267350291+269209477+271361756+273728317+276180400+278634495
2118+281050132+283393533+285570229+287379427+288631193+289285417+289361508
2108+288807190+287605463+285903105+283908755+281748372+279486276+277203187
2098+275007925+273020648+271350192+270031472+268970863+268000746+267007779
2088+265997277+265066858+264331880+263818189+263424382+263042654+262669358
2078+262355306+262152191+262137014+262353362+262695960+262973566+263115785
2068+263226979+263393529+263518007+263451518+263234568+263053271+263018650
2058+263122100+263288994+263375427+263292006+263187419+263314874+263715427
2048+264201999+264617075+264975900+265346374+265663747+265788758+265762551
2038+265795280+265950112+266072852+266060221+265994386+266028267+266260756
2028+266669878+267133995+267552908+267902768+268223736+268651546+269297200
2018+269964157+270231404+269961180+269478875+269191616+269256935+269573172
2008+269914307+270119780+270205129+270249610+270283267+270354592+270525633
1998+270769668+271115243+271789995+272831728+273706309+273816866+273268967
1988+272646594+272302223+272235149+272329583+272457778+272556359+272673782
1978+272850364+273049040+273233468+273390623+273577030+274024800+274912493
1968+275906390+276317904+275941424+275329410+275046590+275106110+275295890
1958+275623501+276153608+276710507+277060160+277245191+277522625+278054452
1948+278872989+280129504+281963326+283817384+284425406+283250712+281347785
1938+280041695+279625277+279693849+279919867+280185876+280426383+280605959
1928+280872139+281677134+283302007+285185885+286510180+287414444+288379467
1918+288763208+287619039+285617704+284418730+284730820+285929140+286908582
1908+287023166+286479310+285906822+285650191+285635255+285752472+286130552
1898+286976895+288118672+288977921+289461689+290330591+291850207+292847442
1888+292270273+290859958+289938436+289740517+289787562+289855393+290011705
1878+290286644+290638534+291137582+292305652+295055524+299564815+303955581
1868+305213025+302713450+298977424+296370304+295344642+295265179+295484985
1858+295692575+295893075+296243313+296826505+297701052+299032591+301030399
1848+303983284+307996280+311797178+312646086+309802054+306102508+304116091
1838+303919514+304332800+304864611+306383263+309785638+314067792+316623393
1828+316584642+315648356+314675899+312901546+310459272+308782863+308549359
1818+309096759+309710167+310613312+312409829+314838027+316567710+316618919
1808+315596252+314979231+315872740+318549378+322224146+325165330+326034198
1798+325459645+325583951+328110300+332624305+335924366+334834314+330794785
1788+327776408+327497512+329025525+330985993+332919721+334525029+335321661
1778+335876770+337989971+342996932+349957754+355109395+355204861+351571873
1768+347280565+344066128+343214571+345349625+348803898+350787183+351137490
1758+351594930+352370466+353215278+355670423+361182661+368059787+372250603
1748+372243858+370386840+369185182+369528675+371225768+373300837+374608733
1738+375932426+379898446+386939076+392002030+390112008+384438744+379401670
1728+375992446+374420657+374781874+376419566+379292024+384975269+394481919
1718+404823126+409205598+405348053+398329793+392803961+390465516+391762847
1708+396360411+402378890+407257932+411207708+417059791+425150895+430954041
1698+431495040+428406595+422516415+415656325+411820117+412551636+416418301
1688+422479591+431915794+443727541+449751526+444791024+436335331+431554027
1678+432097091+436680820+442149248+446135504+449859313+454466926+456898531
1668+454245054+450198057+449799465+453137795+456237941+456396696+455915888
1658+458844511+467723953+483106260+499801660+504789384+499447980+497699472
1648+502429671+506993130+504982313+499758091+497466726+500073055+507525800
1638+519280247+532276583+539344503+537803894+534976829+537174208+545051838
1628+555976718+567326241+578686261+589880883+599243955+606807137+615839415
1618+628512218+641763188+650146060+654454506+659053481+665115356+671266021
1608+676369516+680353087+683461423+685806097+687498682+688880639+690501090
1598+692843354+696054797+699770897+703400272+706789777+710093107+713044581
1588+715356355+717587047+720497017+723856305+726888654+729859469+734375023
1578+741484344+749089926+752984914+753979567+757267824+764719640+773115384
1568+778782729+783405794+790859607+802392939+818048327+839199261+864014674
1558+878859389+877255664+871187525+867320413+865805272+865951672+867021350
1548+868756539+871881739+876819974+883251738+890639957+894909927+888284545
1538+874376530+864699458+861531584+859629002+853992148+846397992+841774170
1528+841537259+843944912+847622330+852559808+857056089+857725731+855009929
1518+852124255+849126941+844690059+840213807+838898821+843097002+852961221
1508+864158046+866162771+855253516+843173816+837046621+835849816+837313129
1498+839330175+839204561+836076333+833260797+834363926+839160786+843162803
1488+841816156+836082321+830385930+827432942+826921539+827275598+828047451
1478+830187495+834337496+839812738+844056484+842998370+836258594+829673202
1468+828168315+831433583+834995367+834833962+832866886+834177330+840862868
1458+849295779+851152866+844391821+836073305+830425438+827483531+826157533
1448+824867532+822398277+819220904+816677795+815680113+816976446+821094303
1438+826823457+830338989+828953934+825250774+822644067+821336996+819831697
1428+817740108+816207553+816002510+817028756+819546605+823796615+827674877
1418+827512096+823445585+818993423+815855972+813596922+811738803+810543374
1408+810466009+811278197+811823257+811325482+810646480+811049683+812709642
1398+815142280+817660404+818733042+816927164+813448732+811107981+810812772
1388+810818003+809202921+806828513+806412439+809150955+813848631+818804349
1378+823598249+828564979+833112057+835835981+836637844+837177535+838758065
1368+841306818+844314870+847421761+849771115+850091792+848468174+846874085
1358+846975333+848394527+849316910+848523926+846758039+845772058+846318701
1348+847538358+848235600+848376150+849097482+851442500+855090046+858080753
1338+858447889+856555562+854689183+854466038+855675027+857178743+858281253
1328+859339987+861197349+864116267+867661945+871534770+875703492+879724988
1318+882893963+885012739+886325660+887069844+887790144+889639659+893466781
1308+898655761+903553181+907314984+910547901+913618588+915595782+915848523
1298+915442017+915667295+916236859+916085021+915206758+914665758+914927999
1288+915118587+914255742+912537484+911059579+910659542+910972303+910592571
1278+908766045+906479739+905042374+904555543+904576261+905187535+906675765
1268+908882367+911252783+913299082+915210750+917734587+920740023+922753077
1258+922953233+922497169+922898789+924254935+925920813+927861871+930211157
1248+932238459+932947952+932470001+931834292+931764775+932381004+933156918
1238+933012583+931582996+929947334+928995148+928210355+927018918+925935956
1228+925421456+924621933+922317937+918783960+915931394+915441122+917187806
1218+919762921+922108627+924122851+925993703+927527154+928213383+928201958
1208+928790243+931020866+934113097+936267113+936844592+936658752+936399472
1198+936186445+936549382+938424227+941844567+945437118+947661478+948337727
1188+948787596+950546807+953801200+957117470+959020810+959395999+958912954
1178+958192310+958275525+960429954+964486072+968376654+970286877+970806746
1168+971998045+974646670+977383190+978659975+978942795+979942543+982389841
1158+985759316+989425928+992908421+995384835+996373845+996217189+995854871
1148+996380521+997964836+999506891+999793152+999255526+999729347+1001962105
1138+1004513955+1005821232+1006233658+1006853192+1007596274+1007741642
1130+1007360740+1006907085+1006315565+1005817584+1006599831+1009254306
1121+1012487636+1014553138+1014992063+1014585557+1014595812+1016154455
1113+1019635984+1024231449+1028680720+1031952457+1033087936+1032138365
1104+1030854972+1030820489+1032037255+1033941077+1036547440+1039777260
1095+1042761704+1044477414+1044157771+1041490768+1037551455+1034565979
1087+1033657362+1033977074+1034524956+1035692166+1038301695+1042169014
1078+1046420056+1049968281+1051045805+1048853864+1045752204+1045074854
1070+1047133060+1049620899+1051537316+1054395389+1058861936+1062334655
1061+1062185296+1059757957+1058374761+1059189082+1061380955+1064420531
1053+1067780094+1070388798+1071823410+1071908070+1069725489+1065883913
1044+1063727487+1065431360+1069141265+1071324396+1070601756+1068808062
1035+1068795810+1071162303+1073522120+1073741823+1072458980+1071163335
1027+1069879392+1068187978+1066960198+1067202340+1067865856+1066911123
1018+1064063513+1060559132+1057079254+1053452426+1050038143+1048146848
1010+1048832733+1051625762+1054517148+1055427417+1054046148+1052472433
1001+1053089282+1055906883+1059076409+1061200897+1061970135+1061150308
993+1058085058+1052826354+1047113030+1043409526+1042987877+1045161992
984+1048174586+1050442309+1051435586+1051877334+1052465894+1052233732
975+1049476426+1044494002+1039431048+1035620790+1032974849+1031553246
967+1032155022+1035015091+1038263839+1038452432+1034138755+1028022160
958+1023556714+1020840981+1017594435+1013340846+1009675542+1007229138
950+1005763829+1005319466+1005188621+1003942258+1001522629+999298819+997505607
940+994782164+990604012+986477895+984416179+984888831+986318349+986472458
930+984733689+982410559+980622027+979520412+979011418+978970809+978918430
920+978192279+976573343+974538676+972808649+971709030+971377135+972344739
910+974798439+977687829+979539822+979978334+979904549+980290131+981263241
900+981476681+979350334+975724745+973149355+972517294+972470559+971884821
890+970893746+969642152+968026863+966828474+967401823+969753449+972051801
880+972595278+971365434+969237641+967064215+966048706+967050518+968706554
870+968128042+964522964+960705203+959822879+961706327+963501673+963491831
860+962799751+963052561+963882851+963285480+960196623+956451889+955410569
850+958075300+961356536+961665442+959387533+957707476+958231405+959333639
840+958651678+956173268+954038868+953792046+954961388+956220691+956762172
830+956334398+955194514+954338964+954627497+955813359+957199790+958717478
820+960759234+963497131+966663490+968944222+968561599+966286580+965637657
810+968592985+972734933+973834896+971033194+967152730+964135042+961362042
800+957944731+954294844+951664184+951705138+955314896+960726403+964441264
790+964887072+963609598+963116917+964986186+968557882+970575479+968756317
780+965970240+967052032+972214858+976667364+976726419+974207745+972973909
770+973551731+973446285+971374588+969071831+968249113+968297019+967783689
760+966341437+964758774+964457094+966142864+968445140+969497541+969850223
750+971529592+974452709+976465074+977205334+978945411+983029748+987860059
740+990366413+988566249+983122806+976597846+971634901+969684826+969805209
730+969200336+966725850+964783208+966481299+971806424+977515136+979923408
720+977769116+973673766+971555678+972840792+975726672+977227360+976316816
710+974474734+972949336+971515482+969866742+968434471+967675489+967812941
700+969131575+971078415+971746680+969835631+966168469+961971251+957380536
690+953575164+953573787+957938674+961827398+960089662+954300420+949858582
680+948244119+946819282+943749283+939529903+935794737+934421728+934682591
670+931445406+920797427+910137747+908160140+911732937+915500522+918550904
660+921773634+924345308+924407736+921508022+916972439+912720570+910417194
650+910548245+911923457+912368646+910469160+906885832+902880236+899039623
640+897543960+900440508+905680285+908836802+908288851+907123844+908428850
630+910896591+911103423+908010229+902983342+896244598+887532928+879651134
620+876679768+879211314+883389053+884723311+882631379+880199292+880690321
610+885402727+894732760+907401984+915113425+908119462+891729802+881938129
600+886137412
##END=
