##TITLE=<SNM>
##JCAMP-DX=4.24
##DATA TYPE=INFRARED SPECTRUM
##DATE=3/5/2025
##SAMPLING PROCEDURE=Instrument type and / or accessory
##ORIGIN=Admin
##XUNITS=1/CM
##YUNITS=ABSORBANCE
##RESOLUTION=4
##FIRSTX=4497.3318
##LASTX=599.83466
##DELTAX=-1.4281778
##MAXY=1.7030058
##MINY=0.17937575
##XFACTOR=1
##YFACTOR=1.5860477e-09
##NPOINTS=2730
##FIRSTY=0.19785538
##XYDATA=(X++(Y..Y))
4497+124747432+125405018+126436051+127003415+126195226+124201414+122377618
4487+121801826+122345214+123384816+124575567+125552926+125790868+125251849
4477+124598181+124512629+125159344+126199341+126931167+126623494+125170891
4467+123382664+122396267+122782727+124185179+125715791+126668488+126904992
4457+126713678+126420127+126084861+125525689+124701640+123951813+123604070
4447+123501457+123307231+123129737+123338949+123818393+123922970+123359007
4437+122668567+122495123+122687198+122510465+121636359+120586263+120084966
4427+120215953+120468382+120472328+120271957+119885131+119119989+117947878
4417+116701480+115892679+115960719+116886724+118046875+118778344+118942769
4407+118687136+118169050+117853241+118307064+119288379+119735137+119001291
4397+117579081+116415144+115941309+115925280+115985578+115985879+115985081
4387+116039873+116131175+116122992+115856677+115373353+114827532+114227351
4377+113641384+113456986+113953407+114875738+115806920+116580705+117067618
4367+117081354+116744068+116488604+116439411+116151600+115306976+114348642
4357+113957888+114193021+114663314+115203094+115776254+116093914+115942680
4347+115572041+115276564+114991985+114673668+114579350+114809954+115039505
4337+115005796+114828969+114629576+114331327+114048129+114174841+114850569
4327+115646977+115960897+115548619+114616479+113627047+113096062+113279868
4317+113913919+114484055+114787264+114980109+115190993+115452037+115845807
4307+116352600+116754450+116890454+116763619+116467183+116258461+116394249
4297+116693203+116697853+116353427+116090344+116264878+116833350+117461707
4287+117793309+117735445+117478882+117198267+116883821+116502415+116205190
4277+116286439+116875844+117728445+118463090+118969460+119435244+120062060
4267+120842732+121483378+121557628+120887706+119733756+118614587+118022138
4257+118165959+118892429+119881861+120819469+121426612+121645820+121758383
4247+122021213+122329872+122495715+122551475+122526071+122277118+121846538
4237+121640991+121885716+122163756+121960689+121492632+121497160+122326583
4227+123653978+124866864+125424626+125152636+124512882+124307251+124882798
4217+125811621+126466097+126658172+126549489+126170535+125358089+124125285
4207+122883002+122294086+122848672+124318685+125715096+126170046+125797125
4197+125391808+125436417+125735943+125892298+125812007+125731734+125872295
4187+126157833+126316197+126189447+125847069+125469816+125284168+125521847
4177+126244362+127234151+128187750+128969436+129549098+129800578+129594523
4167+129092136+128737131+128773039+128863073+128547452+128063189+128207301
4157+129238701+130393985+130756356+130206730+129262489+128446699+128138782
4147+128577254+129548760+130361638+130521562+130223322+129961432+129951849
4137+130053214+129968667+129510014+128870439+128566299+128978295+130002564
4127+131167723+132039274+132484820+132569113+132405083+132246230+132380196
4117+132692979+132735145+132391338+132029127+131870170+131714455+131376756
4107+131018753+130967268+131352206+131990926+132587547+132983073+133225863
4097+133436211+133614691+133682599+133724304+133834039+133732496+133161910
4087+132650297+133045946+134272041+135352700+135642785+135347937+134917000
4077+134551829+134342806+134439641+134881984+135398238+135618489+135539626
4067+135544201+135861241+136252483+136337894+136042107+135668011+135693218
4057+136432701+137652333+138596602+138670579+137982525+137030139+136198348
4047+135778235+135959044+136512222+136918064+136950167+136777015+136584160
4037+136435087+136377664+136513537+136994287+137825100+138616501+138816486
4027+138305456+137535015+137080920+137248745+138006164+139068652+140026854
4017+140543212+140564971+140325338+140037527+139654647+139109878+138679946
4007+138762567+139318826+139907019+140339046+140954203+141992771+142982250
3997+143163229+142423464+141382998+140595627+140145816+140025718+140379191
3987+141169925+141911315+141991728+141292804+140392786+140061720+140622488
3977+141850726+143256739+144277419+144511922+144095914+143626213+143553691
3967+143840460+144175096+144293175+144228273+144367377+144929142+145431989
3957+145257521+144613700+144232472+144313102+144482985+144521308+144458727
3947+144263072+143986272+143923767+144267385+144836365+145290235+145396654
3937+145166322+145010344+145451869+146342896+146788339+146333435+145672881
3927+145625370+146063663+146251867+145936678+145689971+146098669+146977125
3917+147605915+147642575+147378026+147139455+146956522+146802122+146892137
3907+147676407+149429937+151717722+153488605+154032265+153450790+152204917
3897+150896802+150229258+150590332+151602510+152230839+151961996+151711728
3887+152474032+153745619+154330449+154389450+154747039+154932603+154143664
3878+153125060+153041481+153860475+155039304+156447844+157687722+157949152
3868+157467481+157242392+157266190+156712223+155508018+154442317+154198146
3858+155291676+158202896+162386276+164788410+163035387+159580958+157143517
3848+156348311+156804521+157855275+159030346+160347866+162030669+163810600
3838+164845457+164749194+164058688+163256906+162392476+161628801+161385617
3828+161810259+162725572+164223705+166456632+168547636+169181790+168984548
3818+169441322+170056760+169387450+167773945+166713101+166982253+168475124
3808+170347465+171615454+172502168+173804750+175099684+175499767+175590055
3798+176111335+176401439+175847538+175234298+175657718+177219757+179231503
3788+181127032+182900649+184751174+186757415+189026364+191695188+194710112
3778+197961530+201499575+205474308+210115231+215442922+220730777+225099448
3768+228911043+233158122+237973927+243176192+249232289+256557201+264734649
3758+273240776+282279326+292316563+303497359+315487058+327109126+337107222
3748+346201392+356204487+367268820+377095812+384724676+392365942+401937686
3738+413813648+427209145+439990875+449797272+456440547+461487774+466018154
3728+470090803+473340699+475581217+477284671+479376784+482632919+487308060
3718+492870140+498552479+504724418+512645284+522020970+530396899+537003609
3708+543934488+552792689+563212703+572786251+578100563+578693172+578172230
3698+579652079+583391763+587860098+591527402+594271050+596877491+599420157
3688+601443648+603119630+604913428+607197916+610479305+615220813+620908150
3678+624998762+623690994+617538372+613205778+614029432+617047832+618069987
3668+616911302+616352140+617723268+620319187+622963283+625337476+627946322
3658+630998394+634095788+637308028+641508864+647090412+652759222+656592895
3648+659215270+662646831+666000901+666808508+665003061+662948754+662442618
3638+663083142+663580860+663845728+665392847+669523933+675277675+679736915
3628+681131006+680799319+680828407+682319154+685471191+689001739+690467458
3618+689639933+689300805+691219897+694896183+699082287+702339399+703627512
3608+703720035+704308848+705564116+706420653+706369919+705755176+705318263
3598+705905874+707665699+709994795+712528630+715084112+716957204+717608401
3588+717685442+718183836+719222188+720441679+721300471+720794786+718107998
3578+714109045+711565890+712730363+717159163+722409625+725979407+726300872
3568+723477591+719816337+717795027+717685968+718479821+719676913+721441699
3558+723564928+725030948+724866270+723168678+721275442+720637699+721548578
3548+723044587+724032581+724444916+724904752+725605631+726247432+726425640
3538+725664707+723942162+722257799+721652526+722267796+723673160+724760368
3528+724078806+721414415+718390830+717524146+720481514+726373177+731736006
3518+733326267+731009648+727241064+724609895+724303462+725609539+726750562
3508+726923883+726706292+726703060+727308333+728836661+730355294+729769036
3498+726890286+724930082+727149517+732972558+738087204+738174917+733134305
3488+727286236+724641387+725349030+727174772+728744814+730201213+731544194
3478+731603947+729756484+727394092+726367315+726772133+727594322+728624181
3468+730239470+731896325+732321361+731234605+729932963+730039091+731910004
3458+734212342+735293011+734742906+733125962+731342837+731003635+733317999
3448+736679284+737486065+734460600+729877043+726062536+723771321+723497283
3438+725465004+728483328+730970263+733074251+735653935+737784530+737891635
3428+736354137+734887140+734145449+733834206+734125005+735082183+735674529
3418+734620769+731590343+727066464+721844789+717166829+714922365+716881893
3408+723104716+731020922+736539935+737058473+733603837+729357454+726847144
3398+726842409+728475361+729882906+729523259+727505857+725462524+724960372
3388+726205868+728176596+729655017+729892752+728651539+726750186+726356566
3378+728998033+733283124+735999827+735615527+733892231+733834657+736572029
3368+740170974+741118757+737712901+732255295+728767513+728881382+731025131
3358+732854329+733276736+732693560+732539629+733967618+736242146+737477647
3348+736983462+735627929+734402425+733842624+734324333+735919630+737989495
3338+739291513+738891054+737304550+736217268+736467480+737228713+737518835
3328+737596176+738410097+740201264+741852481+741475998+738221066+733615713
3318+730348830+729444716+729230657+727798384+726009472+726403166+729388721
3308+732463190+733183385+731505110+729062446+727367410+727029109+727982003
3298+729983547+732738281+735637023+737684190+738100733+737232471+736527308
3288+737197070+738705480+738933595+736548804+732700174+729739949+728803515
3278+729144597+729549941+729607590+729284998+728615011+728604939+730791530
3268+734808672+737503577+735981788+731106079+726676002+725636672+728063252
3258+732208168+736289799+739105789+740071686+739541799+738504199+737148967
3248+734722612+731387107+728758794+727998689+728389076+728444094+727767117
3238+726966575+726364909+726083506+726765519+728804417+731396878+733531758
3228+735317739+737156633+738249402+737355359+734762372+732039507+730239395
3218+729424122+729304239+729346104+728894836+728143600+727962987+728409746
3208+728795172+729274175+730856018+733734242+736717767+738232341+737568742
3198+735438974+733110554+731072332+729383534+728586901+728944067+729435997
3188+728838616+727388756+726416620+726695393+727700599+728223496+727572600
3178+726215263+724910239+723615512+722082223+720782535+720160651+719412571
3168+717278669+714118666+711825948+711397679+711871571+712125916+712543286
3158+713733915+714491014+712845660+709100226+705988401+705583207+707559571
3148+710222909+711867587+711309665+708620472+705485196+703626159+703019157
3138+702564657+701956001+701768023+702127294+702286410+701456555+699725366
3128+698168176+697847689+698430414+698278813+696346193+693397919+691151726
3118+690823872+692312215+694220032+695107686+695151129+695685902+696853231
3108+696848420+694198987+690056852+686942096+685766048+685498700+685417150
3098+685948239+687005832+687246874+685786342+683547289+682012046+681392116
3088+680774215+679481968+677858787+676784282+676584729+676803147+677000145
3078+677336115+678103286+678985153+679153138+678003322+675747508+673529350
3068+672785329+673946795+675756151+676369091+675154411+672957523+671017687
3058+670089371+670072835+670112070+669508074+668648079+668386443+668662134
3048+668569461+667642197+666174824+664463102+662762279+661737681+661807356
3038+662298760+662158810+661111062+659565747+658053879+657054987+656760204
3028+656819957+656603418+655697951+654020953+651810913+649725790+648519603
3018+648300658+648274502+647588130+646424634+645568999+644851209+643317619
3008+641189129+640013081+640417674+641201154+641100889+640355215+639969563
2998+640135819+640013081+638991114+637541780+636419698+635500176+634061439
2988+632035093+630221077+629085015+628037155+626499206+625121162+624970501
2978+625875555+626506947+626060076+624997372+624082923+623497041+623094365
2968+622982337+623333753+623868037+623949211+623023187+620918184+618085808
2958+615358020+613175977+611519799+610595354+610685510+611402961+611920333
2948+611733257+610673146+608863564+607002271+605784321+605146390+604736574
2938+604543034+604416425+603690517+602035542+600155835+599014926+598692071
2928+598425812+597651914+596574741+595588927+594662114+593621206+592539824
2918+591503764+590427681+589311649+588282617+587368544+586571459+586152022
2908+586384570+586855493+586588408+585140878+583046510+581017758+579364174
2898+578197559+577410020+576495871+575189005+574095297+573816186+573796080
2888+572950704+571042624+568724689+566794324+565839513+565949662+566529869
2878+566832581+566551215+565762961+564788007+564101147+563844208+563523908
2868+562606641+561155014+559573096+558114029+556887097+556014062+555539832
2858+555263126+554795285+553941792+552915691+551897970+550638005+548999077
2848+547537229+546765887+546194586+544971976+543130301+541334060+539755825
2838+538048087+536245946+535032543+534963395+535660966+535991525+535199100
2828+533665060+532240041+531246259+530524937+529952546+529452799+528886272
2818+528298210+527921840+527684707+527114722+526005342+524776418+523864487
2808+523104269+522025367+520478023+518757996+517320725+516390267+515690441
2798+514708610+513365028+512165567+511494866+511018419+510127684+508792219
2788+507500874+506451323+505424583+504478228+503943982+503612258+502787852
2778+501322133+499778584+498497499+497254633+495903159+494697535+493867793
2768+493359741+493063192+492837032+492292188+491068376+489335872+487601602
2758+486127164+484856714+483723771+482801505+482235466+481980745+481583969
2748+480575530+479103723+477725003+476659856+475728646+474815926+473921094
2738+472934002+471762764+470556276+469489363+468434475+467164025+465776887
2728+464598810+463770533+463166613+462549088+461676203+460492451+459222076
2718+458069216+457003768+455992850+455102790+454255235+453268669+452181274
2708+451168175+450160940+448913790+447488470+446337037+445728419+445349532
2698+444706339+443725974+442690177+441751489+440814679+439839500+439021671
2688+438524742+438132025+437454522+436472352+435489319+434569157+433468571
2678+432110183+430705344+429446544+428355429+427391035+426566629+425933057
2668+425454168+424976218+424400783+423785776+423170582+422440353+421493735
2658+420415585+419343372+418315054+417424506+416938664+416948134+417025701
2648+416600138+415616841+414506823+413605940+412903934+412233308+411444830
2638+410496596+409518335+408675890+407941715+407143578+406209211+405239143
2628+404428717+403999021+404026530+404243182+404195567+403664065+402783100
2618+401784733+400804405+399908408+399168183+398668699+398445395+398379329
2608+398175905+397548872+396533820+395578182+395126013+395076556+394893013
2598+394306530+393609297+393159870+392953816+392783726+392475640+391887090
2588+390989064+390010728+389267684+388821677+388465751+388010499+387438372
2578+386829829+386276943+385854537+385619208+385620523+385820226+385958711
2568+385689972+385002171+384315799+383966826+383799178+383484478+383035503
2558+382749326+382803330+383122690+383518113+383780726+383729842+383305632
2548+382636848+381989409+381598495+381507325+381563019+381550768+381325698
2538+380881983+380337478+379833935+379493981+379443886+379703268+380053444
2528+380228269+380219663+380203578+380247059+380268781+380178136+379911201
2518+379445840+378904604+378541801+378507340+378672619+378781002+378699790
2508+378416583+377923487+377286233+376697457+376282793+375967266+375639225
2498+375303104+375019070+374828837+374744130+374697568+374553070+374277041
2488+374022920+373912058+373824345+373597884+373327191+373195132+373112079
2478+372846196+372445174+372204169+372242088+372358964+372289665+371950275
2468+371477586+371092422+370866450+370660583+370388011+370182257+370109651
2458+369938885+369508211+369103280+369085692+369332033+369385323+369022557
2448+368450618+368054292+368049332+368300521+368491881+368451971+368162449
2438+367591600+366828451+366233850+366110961+366314987+366426112+366194653
2428+365673523+365058967+364529682+364178303+364044704+364199085+364697479
2418+365383739+365861877+365843425+365471001+365120675+364948255+364860354
2408+364851823+365038298+365346722+365493362+365325978+364978958+364692256
2398+364618072+364748251+364939649+365046566+365016840+364843593+364527202
2388+364074017+363361977+362033540+359680768+356084379+351203672+345115425
2378+338097058+330627235+323176390+316034683+309333628+303097313+297260668
2368+291816327+287027768+283339701+281017294+280049161+280457963+282526513
2358+286630372+292914283+301345700+312061511+324693294+337010227+345570564
2348+348064827+344889265+339101663+334137377+330901686+328230494+325242572
2338+321832319+318069222+314063392+310130769+306878073+304989685+304663861
2328+305338283+306213385+306965598+307879653+309468899+312028684+315403329
2318+319045078+322359350+325151101+327690122+330228843+332654859+334803831
2308+336788088+338723151+340452460+341833961+343004071+344127995+345151390
2298+345959711+346574304+347104980+347639226+348197186+348733950+349212200
2288+349672864+350169303+350633649+350886755+350820237+350532633+350243713
2278+350095570+350078734+350090309+349996771+349716795+349318779+348974653
2268+348776942+348671979+348582537+348513802+348519928+348626920+348802497
2258+348952969+348948798+348730793+348428494+348304366+348507188+348910466
2248+349241062+349332158+349233133+349137753+349232682+349543849+349892673
2238+350048895+349960430+349819578+349884781+350246569+350785889+351349372
2228+351887790+352383328+352753008+352923060+352927833+352884916+352932268
2218+353170904+353571025+353961112+354209971+354377618+354609979+354950873
2208+355337239+355719546+356101178+356493482+356913933+357417739+358047290
2198+358725920+359281700+359646082+359968673+360428773+360981772+361443713
2188+361801254+362233958+362817171+363398844+363822302+364143616+364579589
2178+365283850+366167558+366942808+367394978+367619447+367954591+368681663
2168+369798860+371078517+372319128+373523624+374873558+376578703+378729930
2158+381254332+384024061+387012170+390302579+393920314+397676458+401226511
2148+404294404+406825045+408963945+410976237+413147682+415652731+418504949
2138+421634775+424952429+428339682+431652000+434790695+437846074+441141818
2128+444954747+449162197+453300236+456914025+459716863+461561056+462470281
2118+462612937+462120932+461002195+459267399+457032630+454438778+451579796
2108+448609650+445807188+443383577+441327579+439568544+438109401+436797500
2098+435132190+432550590+428884225+424427014+419632067+414874248+410397195
2088+406268326+402412480+398811017+395540301+392542421+389628871+386816112
2078+384389720+382551164+381198600+380071069+378984275+377943029+377074654
2068+376470433+376126533+375964899+375809315+375444407+374818464+374118338
2058+373576688+373254096+373039210+372840259+372702826+372678399+372692642
2048+372681293+372738190+372998661+373489877+374189290+375151053+376530111
2038+378481672+381008480+383938339+387104243+390490519+394112463+397739857
2028+400815229+402791217+403567182+403418813+402523831+400818987+398335923
2018+395417713+392510890+389841652+387350133+384896946+382462774+380139015
2008+378004737+376086923+374413195+373014031+371830280+370691362+369471232
1998+368246517+367237779+366595488+366230956+365833278+365124433+364122045
1988+363063813+362160450+361537664+361249609+361187751+361107141+360861889
1978+360520545+360197201+359865477+359423191+358924496+358609984+358581197
1968+358576124+358290323+357815417+357472043+357334235+357224199+357067676
1958+356971319+356958466+356859629+356541773+356116661+355809777+355674337
1948+355587676+355544270+355713007+356065100+356227110+355967315+355517325
1938+355144751+354817161+354458717+354151383+353972424+353916429+353981330
1928+354152360+354381414+354628807+354844294+355029754+355339381+355805042
1918+356033157+355656674+354971204+354562214+354592880+354821520+354984582
1908+354960493+354772966+354557817+354429404+354378257+354331770+354258224
1898+354192120+354198434+354333949+354631099+355036594+355329572+355263318
1888+354907542+354621403+354601786+354720165+354767592+354657406+354433726
1878+354218276+354127143+354231580+354635045+355452611+356550491+357381925
1868+357395529+356713629+355966827+355547089+355433483+355465652+355503082
1858+355471402+355424426+355464900+355586023+355720524+355885765+356214972
1848+356923554+358081525+359197444+359409963+358650233+357842813+357629506
1838+357874381+358179949+358444855+358956778+359964013+361167232+361877581
1828+361907232+361728423+361621732+361463668+361260545+361249721+361520640
1818+361928841+362364287+362925253+363739399+364668392+365340296+365575626
1808+365646014+365991192+366857538+368200669+369697617+370884225+371556279
1798+372053584+372973557+374669420+376915200+378790134+379446216+379329190
1788+379597403+380712983+382296367+383910455+385546376+387261330+388885301
1778+390383151+392149515+394635773+397658720+400151517+401275779+401572854
1768+401916792+402593430+403828855+405892332+408401251+410439172+411795419
1758+413060383+414566162+416366725+418766547+421973564+425386898+427852262
1748+428960063+429387467+429999392+431317382+433406263+435778088+437763772
1738+439534759+442125942+445928724+449519326+451220901+451698325+452270415
1728+453321920+454957579+457254882+460003227+463041958+466654507+471041066
1718+475505117+478703603+480340238+481457735+482928941+485056229+487972297
1708+491702849+495847464+499752015+503502748+507947783+513249918+518162343
1698+521830361+524735531+527094203+529150576+531835034+535620980+540114381
1688+545135339+551363799+558891572+565354197+568719090+570906883+574300111
1678+579482290+585858442+592206709+597611853+602464525+607577894+612781718
1668+617252271+621112776+625392457+630648819+636292450+641235052+645384252
1658+649796517+655744776+664026641+673563849+680222231+683056035+685876084
1648+690185754+694704221+697930291+700293886+702907617+706105126+709792686
1638+713700995+716946983+718119422+717316625+716466777+716728038+717827496
1628+718906586+719533882+719705700+718791439+716129830+712871064+710796314
1618+709942107+708807022+706487020+703532358+700369423+696950865+693366952
1608+689847077+686627245+683994498+682115392+680865160+680023355+679548110
1598+679479488+679600798+679460097+678782593+677572873+675922408+674119591
1588+672698893+671984937+671761407+671480455+670752594+669900942+669909736
1578+671352756+673331976+674229852+674305389+675185527+677410300+680226440
1568+682922624+685918625+689845799+694645971+700275772+707396321+716158767
1558+724167045+730094785+736363532+744372035+753352749+762183442+770510028
1548+778523943+786571079+794694955+802262864+808407444+812347546+813586879
1538+813550877+814262729+815888992+817812894+819971825+822641251+825592833
1528+828218815+830351064+832872423+836836651+841777074+845784745+847994260
1518+849451786+851055050+852917320+855008681+857408278+860341896+863965869
1508+867768652+870369230+871103480+871292210+872297266+874583069+877684446
1498+879892007+879529654+877464675+876276827+877089245+879027502+880692699
1488+881838382+883213156+885031381+886825254+888020092+888274663+888081423
1478+888814997+891481792+895591232+899325467+900939329+900623276+900194707
1468+900748420+901943934+902883975+903278121+903719919+904647558+905753856
1458+906286900+905782643+904755565+904000420+903814321+904134282+904567437
1448+904676420+904563303+904626438+904819828+904888600+905053805+905788280
1438+907112020+908401411+908854407+908210802+906742452+905114084+904453041
1428+905604661+908202233+910850990+912327833+912751667+913008042+913154982
1418+912563839+911428754+910305620+909094773+907841309+907057152+906681421
1408+905992118+904853350+904021541+904015453+904271602+903796132+902376938
1398+900801784+899663242+898521017+896855444+895022111+893654327+892821391
1388+892001758+890678244+889238380+888930294+890551221+893595551+896810723
1378+899491047+901952051+904554058+906797545+908191034+909358664+911127734
1368+913515305+916294542+919417190+922306387+924012322+924715680+925557411
1358+926816587+927803980+928243899+928704637+929676246+931029374+932349505
1348+933172746+933211529+932992660+933767572+936035788+938693864+940371237
1338+941178243+942201037+943749960+945206960+946296948+947574088+949347667
1328+950793093+950887119+949880936+949131203+949761430+951764927+953985566
1318+955085851+954993553+954981151+955960652+957353315+957859901+956800804
1308+954597829+952408382+951352893+951769512+952998473+953853658+953618328
1298+952628455+951567328+950483278+949063032+947515612+946291687+945122704
1288+943229017+940444294+937523003+935323334+933950064+932702087+930874466
1278+928438266+925642794+922464226+919041309+916025991+913884347+912536856
1268+911979686+912195098+912357446+911296997+908732195+905290262+901602627
1258+897895300+894176172+890663813+888001978+886668768+886224941+885800957
1248+885237022+884964112+884889251+884253688+882876584+881925644+882789397
1238+885353823+887976724+889202303+888984185+888197547+887625270+887671870
1228+888575157+890395863+892774340+895145902+897388863+899741860+902068401
1218+903953971+905373691+906659474+908222076+910448051+913277270+915997204
1208+918010548+919444774+920621047+921571235+922372755+923355112+924729285
1198+926369303+928074711+929930441+932245557+935003523+937669717+939896444
1188+941955185+943970934+945614484+947149276+949610506+953277096+957007197
1178+959690603+961590754+963839578+966977108+970035493+971439430+971159755
1168+970952009+971949324+973385805+974221898+974555990+974813492+975213049
1158+976651184+980183236+984829176+987769033+987813453+987093559+988179638
1148+990924376+993105029+993366665+992768532+993551862+996689843+1000846935
1138+1003724032+1003886756+1001535638+998690334+998273039+1001457695+1006204352
1128+1009876203+1012160128+1014066742+1015965165+1017810899+1019848595
1120+1022275175+1024966548+1027412444+1028466355+1027187412+1024424410
1111+1022571986+1023474898+1027124727+1032196983+1037057358+1040059974
1103+1040186996+1038458439+1037656769+1039496791+1042571110+1043752344
1094+1041701871+1038730146+1038361556+1041174991+1044281479+1045088936
1085+1044233301+1043943329+1045108854+1047123851+1049425664+1052062320
1077+1054975569+1057562017+1059516810+1060764035+1060280297+1057533681
1068+1054499497+1053435665+1054148570+1055645706+1058133242+1061677770
1060+1065342331+1068453479+1070728910+1071445497+1070548448+1069799316
1051+1070810460+1072761345+1073741823+1073424567+1072871080+1072765404
1043+1072845150+1072168774+1069978801+1067275327+1066449982+1068069255
1034+1069797663+1069788718+1068446414+1066227429+1063520798+1062188866
1025+1063383253+1065386976+1066551524+1067792136+1069420579+1069229820
1017+1066690798+1064790121+1065392163+1066312512+1064376208+1059528610
1008+1054679509+1052665113+1054194643+1057807794+1061271148+1063045930
1000+1062545807+1059893593+1056076079+1052878646+1051588954+1051346409
991+1049927966+1047121747+1045728333+1047676512+1051097174+1052594536
983+1050750005+1046057238+1039534822+1032812929+1027547735+1023866864
974+1020671460+1017654188+1015720289+1014984611+1013518967+1009244248
965+1002814731+997176963+994076638+992470067+990652443+988276672+985494128
955+981828365+977217374+973063664+970798530+970217233+970154398+969792497
945+968669889+966544856+963791400+961092360+958835945+957424417+957392323
935+958495615+959586580+959896846+959543513+958707194+957329714+955729757
925+954724776+954779869+955557337+956467314+957234560+957908681+958520719
915+958789119+958241946+956725643+954730564+953032371+951988382+951509078
905+951553799+952006796+952384707+952301654+951886839+951636853+952104280
895+953290625+954227209+953914238+952472720+950446975+947777775+944670835
885+942520773+942498826+943727487+944209496+943344390+942236438+941702869
875+941169149+939766189+937685276+935716728+933862501+931385412+928543942
865+927203968+928806856+932572960+936361236+938442525+937993813+935370460
855+932568675+932010528+934349996+937857169+939694937+938114371+934269799
845+931419836+931674182+934113314+936167245+936123426+934434628+932934786
835+933020019+934671085+936900743+938813746+939773630+938925135+936089678
825+933084357+932527111+935152042+939319055+942915896+944770123+944587932
815+942879217+940919163+939794751+939636085+940506903+943229844+947936440
805+952423791+953570074+950580462+945705880+941740825+939784078+939286435
795+939532137+940912624+943967852+947344996+948963894+949105347+949727457
785+951058337+951464207+950289061+948508718+947119437+946491992+946537088
776+946475080+945225750+942900187+941031529+940532157+940464888+939552506
766+937960291+936989809+937968408+941453559+946387367+950419767+952059634
756+951804161+950798204+949851473+949714529+950479971+950796776+948999370
746+945050399+940999435+939235175+939976942+941026643+940629792+939849167
736+941192900+945636882+951797096+957770234+963041967+967627177+969827898
726+967240623+960590734+953819685+949987966+949152248+949749855+950380833
716+950245393+949068819+947341614+946219382+946510256+947801300+948612741
706+947422638+943825647+939027204+934811111+931897636+929750806+927714989
696+925689244+923847869+922250016+920241483+916538891+911017397+906032254
686+904110757+904256194+902699530+897985869+893296710+892289851+894384068
676+895875417+894336716+888873623+877617327+861056153+848862372+852608783
666+866512106+877881369+883484037+884875722+883194816+880282845+878736253
656+878739034+877959987+875179398+871636448+868877430+867118206+865839413
646+864353476+861690965+857599714+853231193+849925377+848061454+847695419
636+849646604+854573347+861075920+865858429+865750873+860133699+851789075
626+843984934+837805404+833538426+832850250+836802453+842505837+844749023
616+841190365+834738901+830757762+831928473+835939978+838723348+839186943
606+838932296+839047744+839548543+839783572+838040884
##END=
