##TITLE=<SNM>
##JCAMP-DX=4.24
##DATA TYPE=INFRARED SPECTRUM
##DATE=2/5/2025
##SAMPLING PROCEDURE=Instrument type and / or accessory
##ORIGIN=Admin
##XUNITS=1/CM
##YUNITS=ABSORBANCE
##RESOLUTION=4
##FIRSTX=4497.3318
##LASTX=599.83466
##DELTAX=-1.4281778
##MAXY=1.8089843
##MINY=0.27971351
##XFACTOR=1
##YFACTOR=1.6847479e-09
##NPOINTS=2730
##FIRSTY=0.29578781
##XYDATA=(X++(Y..Y))
4497+175567995+175593468+176641146+177817974+178475439+178662134+178667653
4487+178571068+178299800+177970634+177896215+178026445+177740476+176665027
4477+175426267+174932023+175248152+175931214+176915952+178097751+178727514
4467+178332225+177536870+177067445+176777496+176366959+176141365+176323106
4457+176435187+176043436+175486606+175225863+175100285+174889674+174986772
4447+175833727+177188370+178404451+179022044+178922665+178324566+177708299
4437+177450740+177458028+177160385+175998787+174295361+173286583+173705381
4427+174852226+175620975+175829481+175953962+176153960+176153677+175795164
4417+175359383+175285052+175615297+175963179+176028895+175810324+175328073
4407+174562419+173694820+173064863+172832246+172878274+173027662+173201072
4397+173387360+173643946+174070262+174606253+174961812+174859072+174238330
4387+173302892+172512632+172293159+172492855+172325389+171194536+169520987
4377+168364236+168209400+168523706+168628163+168542210+168657191+169061591
4367+169597547+170172756+170665585+170870535+170725888+170310875+169651535
4357+168859364+168313573+168353834+168869978+169447186+169840335+169984734
4347+169726751+169068436+168488381+168452754+168803483+169060229+168972117
4337+168428077+167447567+166555928+166391628+166739315+166730258+166205588
4327+166026924+166693199+167539835+167780164+167599095+167644539+168014108
4317+168363617+168598639+168812240+168835041+168435330+167833728+167549175
4307+167752923+168124809+168339753+168442724+168731416+169359977+170032372
4297+170157684+169407049+168055943+166782601+166213318+166535408+167321847
4287+167874803+167966841+167984584+168199741+168313308+167963622+167359402
4277+167087515+167401379+167984213+168470656+168912928+169475224+169902301
4267+169707027+168850360+167905424+167508967+167843210+168692252+169768745
4257+170769510+171332248+171260341+170730240+170145018+169927226+170311070
4247+171025796+171388165+171006249+170225541+169672161+169587110+169824432
4237+170235712+170729532+171088204+171032323+170498136+169705736+168967942
4227+168599789+168877585+169756062+170747381+171391137+171619331+171432459
4217+170758702+170039943+170205800+171448804+172716822+172963431+172223975
4207+171190679+170514463+170525944+170926416+170995299+170529199+170034955
4197+169875961+169910987+169920716+169896906+170072934+170690881+171452431
4187+171653949+171210527+170813115+170867192+171098977+171231188+171338599
4177+171544044+171803850+171985503+172037174+172090190+172341398+172863786
4167+173569950+174249934+174622758+174473795+173791953+172817139+172003741
4157+171759768+172089323+172646418+173152709+173536871+173731898+173680156
4147+173537720+173566572+173778032+173892695+173674088+173153062+172600071
4137+172399933+172761718+173418935+173846685+173880808+173868107+174111620
4127+174422371+174359662+173811447+173187380+172933801+172996581+172983420
4117+172726852+172440866+172400251+172689969+173226704+173773928+173963400
4107+173648916+173245967+173295215+173727900+174017742+173908103+173543841
4097+173138274+172861929+172752502+172587954+172145045+171514468+170951252
4087+170674199+170913344+171712271+172588007+172796708+172064115+170900324
4077+170171783+170337993+171050048+171569853+171557807+171296321+171249019
4067+171646803+172390716+173080465+173248586+172852872+172425122+172474494
4057+172900775+173232064+173241138+173071213+172939904+172960495+173143563
4047+173444497+173788858+173983778+173719055+172915192+171968079+171385582
4037+171315072+171654798+172388204+173478142+174603671+175284751+175221954
4027+174503088+173660821+173398079+173899258+174575421+174883112+175068710
4017+175601429+176260433+176418134+175963320+175372155+175057123+175042582
4007+175141502+175200514+175239962+175480415+176133900+177035267+177632624
3997+177585198+177188069+176906010+176766723+176568513+176297227+176008977
3987+175701976+175511124+175669268+176204941+176868084+177306606+177365052
3977+177327215+177642052+178352426+179098870+179573072+179633357+179289810
3967+178985905+179466068+180914819+182535052+183305199+182930359+181846701
3957+180687120+180053536+180413145+181858606+184041825+186237072+187428406
3947+187061933+185952466+185431121+185561157+185205474+183857394+182307388
3937+181600269+182436663+185078712+188741408+191349775+191275869+189412582
3927+188055870+188065068+188273733+187744446+187459309+188726938+190935594
3917+191870978+190225078+187105290+184537413+183434350+183631234+185337102
3907+189618842+196834153+204849506+210033392+210794287+208065189+202936813
3897+196936928+192888902+192965250+196334407+199127771+198615696+197333385
3887+198834285+202210482+204041751+204341110+205156808+204947718+201527191
3878+197803289+197863539+201720236+206947514+211960643+215219577+214967590
3868+212978762+212690441+213617529+212196196+207615274+203307478+202618366
3858+206789140+215780581+227223343+232847149+226097284+213956955+204431291
3848+199977751+200564175+204875173+210747605+216482429+221545195+225182260
3838+225624868+222592767+218416863+214921792+212059068+209623739+208260251
3828+208310418+209619228+213217234+220551489+229130942+232404222+229540153
3818+226155181+223472925+218630216+212311355+208396619+209169897+214139386
3808+220102459+223749004+226506848+231601402+236963403+237198479+233092396
3798+229363152+226645605+223537173+220837280+220289295+222177524+225885257
3788+230983898+236811398+242233950+247268218+253710304+262390888+271146670
3778+277736958+283436652+291106583+302273282+316744307+332197133+344718776
3768+352464117+356664698+358787365+360369831+363206340+367032894+369468736
3758+370105911+372141405+378886193+391237345+406513595+418401460+424127157
3748+429328856+439068792+450855473+457458852+459300115+463767559+474923185
3738+492598235+513181578+529959524+538185063+540046705+541069546+544768276
3728+551750988+560298547+567524843+571988041+573917257+573435360+571316513
3718+569877934+571182250+575404695+580607632+582970558+579503631+571433547
3708+562119927+554536692+551022216+552014561+555387026+558693827+561262022
3698+563029273+564181707+566517144+572462969+582008356+590697113+591654645
3688+584135977+575543628+571410763+572359662+576919268+583465227+591489743
3678+600529282+606505285+604549395+598812907+595918129+594065686+587424983
3668+576931509+568647276+565069401+564769529+565352963+565895217+567325624
3658+569834311+571568694+572310521+575574938+584089418+595254985+600493125
3648+594232250+582093478+571738407+565845297+563507950+563040063+563798871
3638+565615617+567500396+568774605+571246463+577846268+587753936+593437957
3628+589211090+582108656+579917565+582638703+587232521+591435366+593762347
3618+593881503+593802396+595356948+597738377+599567965+601435904+603835022
3608+605026515+603922621+602558903+603615885+607518893+612241915+615517300
3598+617267427+618853890+620367049+620719777+620523565+622084061+625665616
3588+627859961+625972847+622396104+620414740+620040147+620090385+620522009
3578+621726026+623269186+624163566+623964099+623671869+625439615+630195327
3568+634980686+634871082+629862411+624723544+622451932+622498207+623076583
3558+623695998+624847229+626124127+626413881+625451361+623845226+621757159
3548+619051871+616232026+613621907+610610307+607341998+605454742+605597532
3538+606039061+605010312+603092772+602085886+602725255+604282213+605421557
3528+605310467+604319219+603311697+602455667+601316181+599581267+597478412
3518+595968367+596092972+597458529+598131296+596843713+594182366+591600550
3508+590176087+589973860+589984474+589114788+587645323+586745777+586955115
3498+587876524+588732483+589039290+588834410+588005127+586055109+583415378
3488+581856934+582285126+583302979+583037389+581277038+579259269+578312315
3478+578837056+580089082+581020328+581272509+581022769+580162388+578183500
3468+574890815+571096456+568375389+567827899+569138018+570790322+571179243
3458+569828934+567789018+566724252+567186585+568143550+568328688+567172291
3448+564746957+561919717+560009713+559232331+558347750+556656423+555212254
3438+555130210+555880563+556222359+555881482+555419468+555182925+555031644
3428+554662429+553844114+552579209+551239549+550309719+549769058+548914373
3418+547147724+544958827+543603069+543678745+544507285+544997708+544641442
3408+543632080+542550651+541923205+541561066+540573568+538590577+536484679
3398+535356656+535487948+536556109+537879248+538369140+537395617+535713595
3388+534446249+533565950+532397878+531089882+530464382+530650616+530902550
3378+530605756+529691245+528274671+526707206+525825951+526319948+527675634
3368+528384098+527741404+526874584+527121812+527984740+527846126+526412322
3358+525116744+525055326+525505877+524894600+523000303+521509186+522018502
3348+524138162+526122993+526771808+525981583+524165121+522108046+520809956
3338+520658534+521087292+521349379+521413557+521980575+523604046+525688539
3328+526619784+525400802+522725586+519810995+517051966+514589696+513129394
3318+513158652+514031876+514638484+514531852+513943323+513260721+512805959
3308+512706474+512841975+513034118+513223077+513433087+513549378+513141281
3298+511925377+510551435+510176134+511010547+512046302+512308142+511786408
3288+511301256+511896189+513989881+516656359+518159965+517864975+517109210
3278+517410886+518444023+518661887+517565669+516124295+515060697+514087669
3268+512880255+511924032+512070926+513318282+514293256+513639417+511872238
3258+510720122+510690651+510609421+509740973+509022603+509532803+510828027
3248+511629467+511523401+511058168+510522353+509629423+508325991+507124451
3238+506487877+506247158+505768198+504654291+503176052+501880155+500901467
3228+499947438+498900892+498059651+497660116+497473634+497030406+496012093
3218+494415263+492668321+491471733+491130892+491269047+491405645+491356645
3208+490970236+490075785+488756150+487286118+486023230+485456565+485735352
3198+486080473+485471071+484080783+483236464+483658642+484329639+483676013
3188+481628313+479577005+478365558+477478961+476313154+475070786+474012672
3178+472833526+471334802+469945222+469071362+468534769+468087685+467913691
3168+468066670+467883654+466597169+464342538+462091692+460643596+460002883
3158+459747340+459634057+459523568+459062120+458082724+457089389+456679913
3148+456637989+456152271+454826055+453006267+451286530+450042960+449285637
3138+448722334+448009270+447005711+445834525+444831178+444372525+444509972
3128+444866910+445005065+444631251+443525340+441839815+440405304+439987761
3118+440244966+440076810+438977939+437465877+436261188+435563373+435066440
3108+434340181+433229387+432027635+431208859+430917832+430803734+430481149
3098+430007672+429692092+429648682+429765822+429840613+429633009+429108905
3088+428561203+428152222+427666434+427030780+426556878+426339545+425896742
3078+424762811+423142772+421712082+420940750+420812430+421088422+421518524
3068+421730196+421285270+420093247+418520015+416974944+415707457+415022697
3058+415209958+416061035+416720888+416280243+414623976+412614522+411238492
3048+410613770+410097450+409263532+408319444+407641017+407420040+407666207
3038+408097759+408201031+407747755+406993228+406151562+405078624+403705460
3028+402367180+401398999+400685936+399908731+399087691+398541652+398347103
3018+398187226+397787726+397214268+396643712+396043472+395207184+394074314
3008+392980962+392451764+392597136+392869837+392639096+391830509+390786723
2998+389773116+388893312+388230133+387797979+387499097+387187727+386655627
2988+385705525+384458593+383374228+382721840+382226145+381420778+380238731
2978+379147325+378672858+378809244+379047981+379020138+378796508+378486411
2968+377976494+377218075+376407684+375757808+375280829+374792988+374086541
2958+373177195+372308712+371644366+371144567+370744396+370370652+369833316
2948+369026570+368161731+367500569+366995392+366448363+365847380+365332085
2938+364960854+364646583+364275669+363849848+363472496+363177329+362869603
2928+362443145+361822492+360925493+359773236+358611107+357734699+357132903
2918+356419698+355291357+354040640+353394337+353751381+354741462+355562006
2908+355596890+354745247+353392249+352142275+351418846+351208588+351163869
2898+350893433+350181749+349137610+348199466+347746226+347635242+347431777
2888+347092068+346935375+346910999+346517620+345651967+344938409+344848263
2878+344951853+344488813+343394577+342256612+341438438+340827019+340373071
2868+340275213+340516639+340684406+340458299+339986238+339552952+339098367
2858+338339594+337224697+336002672+334991116+334474230+334553054+334884803
2848+334893400+334426751+333894085+333657612+333627009+333547230+333384381
2838+333190008+332802396+332089015+331340113+330921226+330687902+330291869
2828+329816341+329474403+329020243+328142455+327133164+326556452+326490222
2818+326527512+326332927+325886799+325293776+324596315+323795265+322965345
2808+322308145+322029323+322092298+322135283+321738119+320810730+319688686
2798+318827314+318406340+318229763+317979563+317522927+316984884+316548166
2788+316231630+315918632+315568699+315249015+314918575+314378444+313524820
2778+312492993+311495200+310644159+309955755+309431615+309055784+308665554
2768+307965475+306896287+305878647+305387162+305337490+305165937+304516910
2758+303660138+303159030+303215955+303445069+303288411+302544002+301455320
2748+300423245+299702929+299302439+299086415+298892609+298530612+297818822
2738+296755242+295597642+294717077+294356406+294457272+294701157+294786331
2728+294622049+294217208+293579006+292832829+292218809+291821963+291468209
2718+290980403+290391450+289830021+289310410+288712983+287948284+287120009
2708+286513968+286350800+286511562+286609137+286401551+285989545+285515043
2698+284905198+284122473+283422819+283065190+282930963+282703688+282291895
2688+281848101+281487748+281165941+280767397+280236376+279672064+279289317
2678+279206618+279285991+279245818+278928929+278423841+277929455+277567316
2668+277357254+277274767+277242856+277159697+276998935+276770281+276389126
2658+275789169+275153533+274786388+274737016+274748001+274582056+274244576
2648+273873451+273542534+273232915+272920572+272604531+272271721+271915632
2638+271589845+271374599+271257707+271089285+270716143+270153105+269555430
2628+269040454+268645041+268415590+268365105+268362664+268231620+267937691
2618+267560711+267149837+266712500+266294869+265992396+265875911+265916721
2608+266011572+266093386+266160676+266178561+266058272+265777734+265432453
2598+265140612+264964531+264886291+264790290+264545644+264173281+263830317
2588+263606704+263475590+263439645+263537609+263683070+263668334+263374866
2578+262895021+262449652+262231966+262282911+262467696+262601959+262607673
2568+262535340+262468403+262433891+262383140+262261879+262124307+262125457
2558+262326233+262564528+262629749+262518465+262389066+262298071+262108387
2548+261676657+261069413+260550262+260320458+260290332+260180587+259848608
2538+259428801+259146177+259073314+259093090+259045311+258864861+258598139
2528+258346293+258200691+258181038+258228464+258278419+258286910+258161491
2518+257790207+257223595+256722735+256531140+256662166+256937414+257148592
2508+257172136+257030337+256866232+256809024+256868496+256970936+257032778
2498+256987918+256821867+256594221+256378922+256197163+256033729+255886712
2488+255781796+255739164+255708048+255551585+255149538+254531733+253901121
2478+253499392+253389010+253372753+253214220+252906069+252619199+252466521
2468+252446461+252529301+252662786+252744122+252684049+252488739+252244925
2458+252041602+251922905+251874560+251812594+251634390+251351570+251115876
2448+251042217+251074553+251082655+251010694+250888407+250752658+250587172
2438+250348329+250073081+249908515+249944655+250054737+250014298+249779064
2428+249532207+249420126+249380130+249315051+249284749+249394194+249612146
2418+249811665+249898680+249860931+249776499+249759198+249818547+249846001
2408+249812762+249863531+250092981+250332143+250339201+250159547+250081448
2398+250231083+250470563+250781757+251513925+253156022+256103656+260780561
2388+267792726+277778033+291180755+308284240+329347711+354433346+382938607
2378+413451376+444394212+474850905+504541680+533126118+559671348+582522271
2368+600137920+612704106+621943323+628635963+631288961+627959022+618645720
2358+604762093+586701589+563164137+533954446+503828475+480708495+469915999
2348+472555164+486741919+507391314+526858451+539786209+545912962+547459165
2338+546754487+545352843+543972532+543022111+542482759+541387497+538444533
2328+533380069+526989813+519946426+512208303+503544665+494059917+484005249
2318+473503604+462698902+451880119+441257937+430723530+419932131+408610012
2308+396773694+384731577+372919990+361719362+351402430+342131618+333826264
2298+326115417+318671399+311543740+304955503+298907645+293223625+287861783
2288+282970552+278700168+275069154+271969019+269254868+266863497+264852291
2278+263295298+262134107+261165573+260210164+259251836+258363488+257562808
2268+256828200+256183949+255657173+255198414+254734720+254247870+253739209
2258+253192780+252613644+252026760+251446899+250936610+250613158+250462957
2248+250255070+249798841+249198937+248719322+248473969+248353327+248192211
2238+247919863+247573574+247253377+247071476+247068239+247158101+247225480
2228+247265370+247341647+247430908+247429051+247316227+247211824+247231070
2218+247363812+247543608+247761737+248030653+248290635+248450106+248501547
2208+248544214+248687039+248934426+249202440+249472611+249826648+250263260
2198+250635889+250876802+251118352+251482366+251908542+252288140+252627955
2188+252988467+253362228+253691642+253928539+254038497+254032660+253997068
2178+253990824+253958204+253844691+253705333+253593872+253470364+253314643
2168+253192940+253125861+253036140+252909006+252849887+252875696+252818666
2158+252577133+252315789+252271105+252473119+252770249+253054360+253392548
2148+253927089+254694317+255685636+257089774+259221162+262145270+265605333
2138+269341016+273318160+277699687+282683858+288279714+294249898+300388432
2128+306774867+313642809+321062805+328821130+336598100+344216890+351639787
2118+358758142+365320941+371031390+375630479+378960807+380945462+381466488
2108+380428610+378004160+374621471+370640841+366134268+361047409+355540142
2098+349966433+344455238+338814875+332955729+327087419+321438105+316044086
2088+310801737+305602408+300468990+295544025+290913732+286588210+282628844
2078+279115942+276047223+273361217+270980637+268858500+267071720+265779380
2068+265018254+264578777+264092245+263312952+262358746+261533408+260950009
2058+260526399+260205441+259952499+259712859+259506476+259394749+259369329
2048+259411483+259560712+259866333+260337422+260900425+261446358+262025830
2038+262848886+264007265+265399215+266902237+268416086+269866570+271308989
2028+272856005+274477069+276005441+277296756+278367624+279421210+280550099
2018+281392119+281430859+280665683+279603181+278636504+277774867+276877515
2008+275892776+274873544+273862979+272817566+271678345+270475885+269280359
1998+268163038+267371858+267311802+267983560+268627298+268415254+267359953
1988+266057706+264918910+264091060+263652679+263518823+263471326+263416984
1978+263405840+263457635+263533983+263606474+263757949+264257093+265277494
1968+266411973+266852707+266345762+265565938+265259468+265451346+265736730
1958+265958114+266220520+266492513+266622850+266677864+266944904+267580753
1948+268513891+269770074+271489669+273258264+273941768+272981459+271311182
1938+270199911+269970195+270221775+270566879+270876481+271194131+271583158
1928+272133867+273174168+274969368+277036260+278606503+279844324+281278818
1918+282259965+281708566+280179859+279367823+280084495+281765031+283290165
1908+283960119+283955184+283906679+284121270+284476104+284902526+285618119
1898+286837827+288312511+289400945+290016857+290973204+292548099+293494132
1888+292674402+290813521+289267460+288388540+287912746+287724725+287736152
1878+287739248+287646413+287685365+288552309+291218239+295778800+300117429
1868+300901852+297449360+292631611+289223095+287812394+287605161+287709122
1858+287696775+287593221+287569269+287675778+288018105+288941124+290832219
1848+294033715+298549150+302787692+303564402+300095990+295702311+293340269
1838+293097799+293560114+294045124+295545900+299248982+304124664+307094233
1828+306975784+305684452+304357599+302288212+299612571+297791014+297512759
1818+298076593+298644638+299367890+301018708+303575193+305628482+305842560
1808+304684713+303850370+304672224+307476255+311405408+314567899+315470522
1798+314804266+314984238+317915952+323069253+326735682+325283587+320446574
1788+316845420+316435448+318079438+320181550+322299123+324125916+324995744
1778+325444384+327563620+332964503+340629781+346326008+346398004+342365084
1768+337709106+334336676+333543869+335888681+339511346+341457543+341697660
1758+342174498+343060246+344032849+346791100+352989672+360794237+365529995
1748+365247282+362680219+361065134+361643969+363986234+366521173+367652592
1738+368416070+372216019+379958990+386050470+384355004+378014172+372107370
1728+367933678+365867582+366145448+368072717+371518700+378192659+389306114
1718+401548228+407030234+402899527+394959708+388609254+385823443+387178670
1708+392398448+399384238+405090830+409615694+416245076+425533789+432397734
1698+433377802+430224015+423690050+415799549+411300370+412094982+416455298
1688+423073182+433215979+446106165+453148809+448440611+439752314+434847692
1678+435615593+440640857+446276798+449896986+453304724+458367667+461896967
1668+460060833+456282855+456282289+460597285+464941398+466049750+466284419
1658+470129440+480363833+497600432+516366676+522513772+517215311+515537145
1648+520544472+524801411+521440622+514628012+511273307+513485731+521170185
1638+533676049+547507457+554494132+551552830+546917761+547548957+554051116
1628+563620137+573692954+583943020+594020825+602142634+608666374+617126264
1618+629281842+641043439+646491022+647307993+648801198+652566864+657138252
1608+660657610+662663385+664217301+666370606+668878975+670979283+672884865
1598+675565883+679441791+683940510+688217615+692032813+695681799+699282105
1588+702676009+705821624+708720436+711287392+713817696+717410855+723476226
1578+732172518+740358787+743676839+744431826+748966066+758738515+768957660
1568+774558717+777633786+783276024+793716712+809884618+833820402+863298584
1558+881614913+880468210+874153064+870351098+868279518+866497692+864915615
1548+864872028+868323954+875518197+884394710+892538028+895668218+886727599
1538+869628023+856361263+850094869+846738537+842119954+837446463+836314548
1528+838968749+842742836+846321631+850886297+855673850+856962493+854241001
1518+850546800+846527395+841824469+838601303+839733006+846251156+857208660
1508+868137578+868478560+854501178+839482664+832307809+832463972+836471985
1498+839657507+838022079+832762004+829655802+832354014+839194467+844037424
1488+841739418+834150629+826657222+822400919+821373302+822152700+824173264
1478+828209509+834656407+842197434+847451070+845998621+837917782+829694789
1468+826549174+828373668+831083485+831014142+830097614+833365145+842906499
1458+854162389+856218191+846528528+835159425+828103443+825243407+824614369
1448+823867590+821780018+819262309+817584285+816990343+817971614+821703600
1438+827551673+831212547+829412111+825530118+823806950+823794851+822808344
1428+820717517+819940454+821192374+822863393+824422191+826881312+828810386
1418+826203805+819218086+812382444+808208009+806225018+805192093+804722897
1408+805558690+808019439+810469008+811111278+811007900+812384496+815190332
1398+817691483+818875334+818118366+814818145+810577834+808481630+809298035
1388+810528232+809510733+807211666+806980146+810245837+815480651+820523711
1378+825012312+829968835+835175133+838454976+838795109+838223173+838800841
1368+840435561+842600188+845786277+849956113+853276995+854004741+852611588
1358+850732044+849428117+848989489+849152303+849203248+848507769+847186364
1348+846013339+845657144+846339533+848208887+851428727+855469642+858754580
1338+859906307+859290146+858406592+858276185+859190519+861170468+863748533
1328+865959082+867455896+869086795+871701938+875110702+878715819+882364523
1318+886111439+889859133+893517601+896902166+899522262+901305291+903291183
1308+906564021+910732300+914470867+917329629+919810544+921953944+923220369
1298+923523708+923387004+923239615+923000312+922288912+920886631+919021735
1288+917076528+915046766+912602504+909631378+906611570+904479775+903837081
1278+904144666+904220943+903683395+903213703+903347860+903749129+903894536
1268+903990696+904729055+906212566+907628008+908408468+909277446+911318105
1258+914377113+917226676+918952321+919524965+919491426+919681552+920777593
1248+922638244+924173054+924176450+922334692+919405030+916656438+915074149
1238+914631134+914398269+913759396+913049694+912300650+910605078+907926111
1228+905959748+905982603+907308536+908662914+909667535+910416295+910925894
1218+911336927+911924926+912865299+914077028+915121415+915621462+915939873
1208+916878052+918582611+920317383+921512839+922392077+923551092+925265203
1198+927174535+928676938+929504877+929968129+930834702+932925670+936649943
1188+941571228+946402793+949942529+952172466+953996110+956043774+958094339
1178+959591577+960632568+961970530+963843988+965603738+966812496+967655223
1168+967891837+966778108+964819245+964274126+966903066+971829941+976184456
1158+978049918+978404061+979387031+981440568+983347777+984594108+986103870
1148+988262977+989670777+988904469+986727318+985363812+986005092+988222928
1138+991353613+994718295+996980073+997560358+998085453+1000463840+1004406331
1128+1008028076+1009986585+1010004203+1008511282+1006816134+1006558999
1120+1008192305+1010832708+1013867658+1017086436+1019227005+1018981263
1111+1017959872+1019672497+1024400472+1028118024+1028303692+1027628237
1103+1029557311+1033579687+1036317241+1036225398+1035346301+1035609308
1094+1036146290+1035631597+1035733913+1039270748+1044814704+1047602354
1085+1046342368+1044157079+1042714891+1040782704+1038723294+1039652063
1077+1044848597+1051129567+1054332849+1054602225+1055713903+1058938979
1068+1060916805+1059115096+1055992335+1054926650+1055944503+1057307867
1060+1058168142+1058874023+1060500536+1063814413+1068137794+1071840982
1051+1073741823+1073607312+1071990422+1070203006+1069299286+1068859242
1043+1067343466+1064362646+1061452938+1059880201+1059345342+1059520114
1034+1061323309+1064511591+1065755091+1062922863+1059240691+1059121252
1025+1062253847+1064819742+1064714313+1062664102+1060124387+1057948792
1017+1056191873+1055070430+1055598072+1058413955+1062384961+1064900123
1008+1063720518+1059062522+1054206688+1053131946+1056512619+1060846259
1000+1062578626+1061848262+1060619197+1059414685+1057677011+1055413748
991+1053272471+1051462058+1049760896+1048695564+1049112399+1049949183
983+1048344393+1043308338+1037708130+1035077421+1035881372+1037966750
974+1039008661+1037957976+1035660325+1034104853+1033693183+1031793615
965+1026095337+1018311539+1012180293+1009670721+1009832898+1010045031
957+1008469747+1005584309+1002920980+1000567854+997179822+992112139+986359943
947+981619019+978936161+978025294+977860145+977887812+978148555+977964513
937+975808094+971559788+967683314+966953092+969392684+972357371+973646015
927+973519287+973162455+972579339+971239891+969819850+969687037+970894309
917+971869778+971322253+969548847+967869903+967689824+968996369+969443064
907+966709472+961918523+958623538+958480182+959929305+960939375+961311491
897+961997489+963377552+964822146+965540480+965269902+964049752+961906423
887+959228235+956935749+955526746+954327682+952507505+950645934+950202494
877+951389246+952949883+954441532+956903837+960336163+962522088+961783163
867+959386026+957728167+957358669+957025895+955878413+954377920+953022127
857+951371203+949233323+948124617+949962696+954269094+958303995+960328097
847+960798142+959924352+957076203+953381578+951405733+951575693+951453990
837+949430950+946892296+945918172+946718727+947870383+948300875+948225093
827+948265849+948175987+947081644+945256939+944440604+945773684+948244905
817+949994466+950872996+952807660+957148235+962165893+964457530+963201647
807+960920341+959572756+958841968+958236775+957871098+957848385+958591697
797+960489566+962467534+962324744+959884445+957494737+956840721+957624294
787+958653115+958757341+957601369+956358718+956837891+959710238+963667093
777+966001468+965037108+962332457+961012185+962438099+964797664+965325872
767+963651739+961535369+960184387+959409376+959570633+962090748+966549276
757+969603543+968649938+965050694+961707240+959374563+957509525+957000705
747+959460746+964144639+967978233+969059060+968128240+966342168+963725964
737+960726252+959468176+961880384+967325632+973156794+977085983+978061664
727+975794721+970880865+965289573+961315312+959871779+960770617+963598387
717+966867687+968393370+968214423+968455637+969976791+971876712+972601840
707+969741945+962069167+952388985+945799440+945726205+951804029+959773213
697+963922388+961901400+957023772+954120220+954336668+955386362+954287916
687+949224266+940969927+932747713+927653708+926050616+926177343+927343505
677+930010443+932948666+933487841+930412984+924137463+914935251+906600178
667+907110131+915546175+923054159+925505143+923731029+919421446+914625332
657+911743785+911341880+910949527+908298723+904509493+902431757+903829580
647+906923754+907094281+902770617+897168145+893267826+890442178+887171746
637+884703002+885041366+888298567+893011258+897204019+898508300+895469742
627+890644546+887929776+886162455+880972926+873415837+869252440+869603470
617+869847231+866808531+861532112+856557121+854599673+858332296+867798223
607+878073195+883329449+884505092+887725215+894400448+897358130
##END=
