##TITLE=<SNM>
##JCAMP-DX=4.24
##DATA TYPE=INFRARED SPECTRUM
##DATE=3/5/2025
##SAMPLING PROCEDURE=Instrument type and / or accessory
##ORIGIN=Admin
##XUNITS=1/CM
##YUNITS=ABSORBANCE
##RESOLUTION=4
##FIRSTX=4497.3318
##LASTX=599.83466
##DELTAX=-1.4281778
##MAXY=1.7789932
##MINY=0.21660598
##XFACTOR=1
##YFACTOR=1.6568166e-09
##NPOINTS=2730
##FIRSTY=0.23802647
##XYDATA=(X++(Y..Y))
4497+143664950+143472742+143850808+144592090+145171096+144915824+143720748
4487+142333338+141662568+141974403+142821120+143502242+143524151+142867861
4477+141927545+141123261+140654375+140631126+141130761+141992417+142786071
4467+143081285+142743458+142083021+141669457+141824754+142375591+142957152
4457+143307642+143249425+142750185+142067786+141550495+141269267+141099814
4447+141127443+141577279+142218918+142348106+141679170+140759243+140171243
4437+139815204+139304992+138637477+138130746+137997691+138185320+138490976
4427+138748173+138903155+138950220+138886940+138718467+138413656+137946992
4417+137509981+137520810+138185347+139112577+139628986+139481685+139016964
4407+138648189+138459893+138438857+138705471+139201625+139384030+138671762
4397+137248692+136059785+135849563+136469824+137313186+138108962+138882218
4387+139379749+139140602+138131348+136885160+135949908+135388197+134844761
4377+134105844+133505820+133507250+133950233+134210110+134070094+133894768
4367+134041646+134528133+135083890+135271951+134789071+133820514+132895875
4357+132356540+132119525+131962781+131905616+132141380+132589958+132834330
4347+132684321+132412590+132279301+132274669+132340414+132358042+132053888
4337+131407042+130868418+130736244+130778983+130847255+131252410+132152524
4327+133133627+133706985+133767963+133402354+132710808+131946763+131405576
4317+131118780+130974410+131025450+131320683+131599042+131597576+131500461
4307+131634847+131966738+132320376+132733158+133187869+133419074+133314835
4297+133050110+132695564+132223359+131888869+132037753+132547003+132941671
4287+133025089+132995221+132981154+132830157+132410234+131875459+131521389
4277+131507998+131811432+132354859+133066389+133776651+134197024+134174602
4267+133888130+133640565+133564792+133618063+133696264+133733004+133773890
4257+133911559+134221343+134828635+135758186+136645987+137044288+136983760
4247+136772431+136499252+136220254+136183271+136426384+136598310+136460776
4237+136190574+136075911+136180591+136354775+136468457+136527807+136546856
4227+136562955+136820926+137456872+137978012+137747014+137002683+136613726
4217+136871804+137373445+137919678+138654745+139446420+139907481+139881318
4207+139430537+138721012+138185104+138212419+138527491+138509683+138127912
4197+137923509+138138732+138457555+138556811+138489438+138501733+138671078
4187+138847717+138936864+139018798+139065009+138865336+138489573+138452581
4177+139051779+139874231+140380854+140669872+141196318+141943356+142350525
4167+142082005+141503557+141198998+141182503+140966696+140471485+140316692
4157+140883053+141605574+141648322+140941306+140154155+139817650+139810194
4147+139758740+139679136+139900547+140451780+140938986+141101450+141153138
4137+141430329+141898225+142178248+142082886+141958609+142253185+142859505
4127+143244487+143094146+142445878+141445852+140442948+140022386+140430266
4117+141152571+141483500+141367740+141330983+141659024+142009047+141900671
4107+141312977+140628455+140216671+140274745+140804923+141508485+141945290
4097+141950128+141712565+141469407+141354636+141420175+141562133+141623112
4087+141704947+142104085+142850566+143612794+144092050+144236950+144128898
4077+143940701+143872150+143841103+143464612+142646135+141866306+141549128
4067+141516103+141413528+141259733+141236457+141328356+141405946+141344860
4057+140999703+140380341+139824045+139695963+139973667+140354538+140672786
4047+140993389+141354016+141594493+141498358+141077257+140658647+140620522
4037+141009335+141504114+141800066+141918524+142051480+142202010+142174813
4027+141936350+141779191+142007914+142588152+143272989+143969679+144703812
4017+145255620+145213340+144525050+143650766+143009154+142625324+142471861
4007+142699775+143272260+143830365+144203663+144604133+145056236+145133007
3997+144628794+144068711+144110649+144718166+145310393+145516469+145474908
3987+145535689+145868362+146275064+146340207+145876484+145235195+145102221
3977+145910615+147378016+148658066+149086839+148728407+148073735+147469888
3967+147139679+147434686+148470913+149582940+149822950+149165157+148558279
3957+148656303+149190862+149700318+150274900+151277669+152507506+153032981
3947+152394975+151626738+151987626+153026002+153111695+151811688+150358039
3937+149973776+151050754+153403366+156231896+158112618+158161347+157235502
3927+156974842+157786609+158484424+158201549+157911461+159024864+161168351
3917+162149652+160335484+156634460+153364908+151933896+152349124+154500184
3907+159000383+166085865+173940320+179283531+180445303+178127084+173302980
3897+167333833+162880204+162152350+164585636+166757795+166194474+165115554
3887+166712664+170138925+172190980+172844168+174027974+174261976+171427097
3878+168311483+168825014+172811538+177817282+182506748+185511197+184834518
3868+181974276+180633706+180920682+179554660+175394230+171390708+170821847
3858+175267867+185133905+198150274+205085666+198179882+185149105+175006056
3848+170215481+170366938+174105376+179823396+186337930+192740005+197127385
3838+197059770+193035003+188456486+185206899+182713768+180469712+179146285
3828+179107917+180146815+183269030+189846773+197360182+199695004+196543307
3818+193357937+191086180+186743571+180799571+176930542+177559068+182674681
3808+189289892+193421235+195647663+199257165+203225576+203546495+201129199
3798+199558351+198498156+196223899+193727296+193030470+194545377+197811026
3788+202772592+209205587+215983012+222455562+229707718+238562614+247443286
3778+254690153+261789162+271359087+284150825+299095727+313900577+325624098
3768+332693336+335455348+335125166+334278485+335796287+340047284+344779849
3758+348501001+353016525+361708687+376573184+395295107+410009767+416509443
3748+421540891+431433228+443996090+451622984+454189541+459174473+470421931
3738+487029472+505490646+521052922+530432573+534671699+538072778+544596593
3728+555474980+567773747+575870767+577801531+576550486+574249787+570587455
3718+566104884+563397843+564840025+570068762+574816616+573921188+567425289
3708+559445909+553520616+551403500+552329758+553295374+552399443+550822029
3698+550054602+550868473+554887358+563661219+575776224+585835846+588139999
3688+583741430+578977459+577395333+578842983+581944782+585890133+591513664
3678+599100805+603990905+600806866+594582834+592585155+592659013+587762868
3668+577729652+568273194+562207992+559145442+558179287+559098530+561802370
3658+564795667+565961090+566493598+570702541+580560089+592064016+596026167
3648+588418017+576459253+567491160+563291931+562217958+561617096+560281510
3638+559355791+560168187+562528713+566455572+573827112+585027910+593019990
3628+588741579+577416594+570202698+570868064+577841572+586923311+592702327
3618+593899877+595069617+598999318+603420875+605491511+606008334+606876061
3608+607642265+607303089+606717049+607044713+607970073+608726420+609864322
3598+612473402+615831058+617671200+617660983+618687793+622943683+628621753
3588+631242489+628535412+623210477+619214257+618094199+618957105+619612649
3578+618777084+617415343+617095881+618366245+620993816+624417308+627730498
3568+629699936+629147857+625961948+621664686+618086572+615993451+615571891
3558+617021340+619731368+622089267+622907060+622101859+620194587+618268176
3548+617352962+616975796+615546924+612551325+609356205+607639387+607468072
3538+607064284+604933893+602120580+601155828+602995322+605829105+606853036
3528+605216228+602723492+601315702+600794023+599825637+598125691+596387036
3518+595504811+596164672+597758203+598482747+597513426+595733111+593656251
3508+590732890+587392646+585375325+585178863+585197355+584167954+582459015
3498+580593546+578708723+577627734+578189526+579435426+579588645+578595868
3488+577776996+577646657+577452246+576128891+573395839+570507338+569087137
3478+568922945+568421700+567054059+565800244+565368863+565447110+565359905
3468+564363423+562051859+559325679+558069814+558952578+560251758+559965142
3458+558614841+558399133+559855957+561172009+560917699+559812570+559155443
3448+558746115+557162082+553855511+550183502+548075127+548097000+548866226
3438+548574502+547138579+546033883+546073168+546659351+547233339+547874888
3428+548158230+547103036+544717687+542141020+540000987+537842787+535295477
3418+532803820+531100565+530745200+532006174+534359397+536261596+536289297
3408+534464553+531940698+529949568+529408030+530597988+532610740+533696550
3398+532864619+531006597+529785448+529476707+528693558+526460565+523552313
3388+521254385+520058023+519986611+520948881+522459021+523762734+524299738
3378+523833101+522639582+521411381+520444075+519373483+518158090+517608853
3368+518230580+519264117+519659811+519338191+518859754+518518095+518328865
3358+518244143+517924465+516932731+515522783+514556772+514390781+514578141
3348+514671965+514608720+514550440+514925735+516054320+517323928+517603924
3338+516720368+515468173+514351676+513496505+513177978+513213270+512578808
3328+510758920+508654323+507264198+506398558+505440748+504584714+504559675
3318+505642391+507484511+509460748+510712296+510452266+508906727+507316434
3308+506557533+506219724+505302099+503606003+502119715+501891955+502742413
3298+503560602+503836173+504004323+504263166+504350226+504412356+504773549
3288+505071389+504828771+504524059+504966808+505967680+506534113+506191663
3278+505477947+505224860+505626489+506003368+505532881+504283204+503267474
3268+503229592+503679501+503678385+503208223+502874479+502668628+502063414
3258+501064053+500276911+500011197+499943167+499712421+499351192+499009749
3248+498641289+498089103+497320776+496480283+495755091+495300074+495235786
3238+495393142+495110519+493991936+492882994+493110754+494504981+495184916
3228+493852927+491342923+489307399+488316133+487785495+487197765+486776997
3218+486845170+487029652+486604351+485378057+483691099+481798433+479864971
3208+478272663+477403857+477176457+477012481+476414354+475540547+474933103
3198+474644868+474148659+473236826+472284342+471484572+470669729+469872658
3188+469221000+468438859+467194290+465679150+464296399+463076725+461803196
3178+460504771+459522679+459019347+458548789+457471289+455884882+454586602
3168+453882203+453054373+451380510+449155035+447253447+446130907+445629841
3158+445424853+445360170+445476838+445753021+445808423+445151980+443822113
3148+442447097+441505081+440837558+439982458+438779693+437521921+436519574
3138+435672785+434665402+433487387+432505870+432009913+431787981+431224031
3128+430005364+428664633+427959551+427794747+427460752+426792185+426171969
3118+425586145+424644417+423411216+422423943+421944319+421734295+421453183
3108+420882721+419942540+418892885+418307674+418393979+418634222+418522771
3098+418138050+417572336+416511494+414819966+412892872+411239478+410237131
3088+410087366+410525402+410936745+411066616+411120939+411133351+410885696
3078+410400352+409889177+409349906+408680368+408008923+407565130+407333772
3068+407048559+406485149+405669047+404774770+403882400+402932038+401917316
3058+400981092+400267340+399813438+399621473+399656226+399714038+399506748
3048+398993487+398422053+397934011+397341820+396421821+395230819+394031543
3038+393063337+392447618+392179314+392056781+391642561+390535741+388873858
3028+387303423+386257223+385582216+384955345+384243320+383436931+382651624
3018+382112137+381856100+381674280+381434756+381149183+380745035+380064021
3008+379088080+378052564+377325285+377065147+377004924+376723597+376031286
2998+374997713+373884598+373066589+372646972+372265417+371630991+370926484
2988+370372643+369878341+369421453+369231359+369234237+368809799+367584477
2978+366143303+365435738+365652130+366105744+366085922+365431169+364343705
2968+363034812+361654004+360381986+359392266+358685961+358133199+357729483
2958+357561118+357479094+357147185+356484338+355783681+355326578+355032299
2948+354560374+353735926+352771245+351973023+351363492+350752341+350059671
2938+349392579+348860863+348447181+348073433+347730084+347477069+347304387
2928+347038097+346448496+345506372+344465136+343597661+342993922+342693024
2918+342729575+342907941+342825485+342245202+341256166+340095851+338979894
2908+338064824+337485800+337325709+337412878+337308009+336740965+335890039
2898+335083146+334484228+334110048+333849838+333515950+333092448+332768237
2888+332586346+332285231+331609865+330634248+329703744+329104394+328817526
2878+328624554+328423704+328300524+328289911+328241380+327964082+327392828
2868+326600578+325778684+325185018+324937903+324868182+324710934+324376219
2858+323916489+323358511+322697211+321958240+321218622+320593333+320133783
2848+319753847+319398914+319188098+319171621+319103124+318703114+318028035
2838+317364685+316851352+316392809+315914300+315521701+315331787+315231775
2828+314914760+314157801+313032994+311862391+310989519+310573140+310547058
2818+310704198+310801296+310665129+310283322+309779846+309256908+308691159
2808+308043242+307423278+307024490+306886381+306822093+306562926+305937709
2798+305048901+304273487+303820737+303346977+302417048+301248244+300479053
2788+300286531+300234565+299939494+299442836+298922919+298369564+297657718
2778+296823539+296103815+295639210+295264976+294712106+293923723+293094005
2768+292475228+292141520+291872514+291365512+290605424+289838968+289179593
2758+288510396+287786985+287118940+286530976+285944163+285397247+285002777
2748+284683711+284206065+283487007+282675888+281931269+281269807+280639248
2738+280059918+279661490+279541225+279561641+279393384+278854508+278123758
2728+277530272+277205702+277018306+276773043+276373824+275823473+275198382
2718+274652311+274299824+274005222+273430029+272424462+271256881+270349887
2708+269898575+269805417+269851106+269857222+269769352+269618021+269391988
2698+269007213+268411424+267642108+266793125+265999273+265403934+265067115
2688+264950554+264985469+265057257+264981349+264635068+264072862+263423668
2678+262771164+262209624+261877104+261832260+261982835+262159061+262172714
2668+261860285+261223251+260491655+259922740+259580704+259374817+259193554
2658+258930143+258512702+257995142+257529980+257227930+257099948+257079352
2648+257019453+256740554+256181442+255481289+254868879+254485651+254313473
2638+254218174+254040204+253703042+253294919+253018215+252980422+253034655
2628+252908184+252504288+251977446+251507877+251148177+250902249+250794845
2618+250807274+250838933+250764589+250521612+250172039+249849123+249587258
2608+249296361+248970082+248760885+248740757+248759896+248663590+248517386
2598+248494002+248625204+248768998+248767937+248558272+248172580+247715620
2588+247304817+246999817+246847821+246940080+247252329+247502771+247417870
2578+247101304+246887268+246882843+246928388+246969634+247150051+247481924
2568+247716699+247663258+247427781+247244216+247231841+247374285+247611993
2558+247912244+248267033+248593834+248699691+248448655+247903520+247217954
2548+246490639+245799642+245266073+244972028+244843452+244697320+244431677
2538+244118907+243877926+243730678+243637232+243574797+243512811+243395154
2528+243217238+243076682+243084614+243225602+243357002+243374990+243303579
2518+243176262+242970158+242732955+242599594+242582416+242520556+242337171
2508+242178628+242197515+242334977+242426390+242417846+242348360+242199583
2498+241935650+241645652+241467268+241403340+241363695+241319499+241276796
2488+241181533+240969458+240645302+240266175+239912123+239650060+239445181
2478+239171552+238795501+238451432+238234662+238035376+237697819+237233880
2468+236773647+236417922+236207394+236109775+236013199+235843791+235656125
2458+235524023+235432754+235320079+235120883+234803904+234468145+234281667
2448+234230312+234096627+233780296+233454556+233310169+233299430+233232786
2438+233032673+232808348+232736056+232910518+233245971+233498500+233468677
2428+233172977+232745085+232280265+231896264+231773714+231971272+232317536
2418+232579401+232636422+232490218+232249848+232113213+232229936+232540295
2408+232813601+232886685+232823458+232801513+232898682+233057604+233208215
2398+233334380+233431496+233490226+233565864+233824779+234490126+235743168
2388+237676288+240336057+243825851+248336394+254013996+260832576+268654150
2378+277340321+286737529+296657854+306939912+317390551+327579217+336802735
2368+344384119+350077731+354130180+356798584+357954437+357417972+355331830
2358+351773431+346432307+339110305+330496175+322454449+317143220+315746187
2348+318420239+324753385+333411801+341776982+347368423+349623901+349571233
2338+348430345+346745761+344545937+342000029+339479449+337046468+334392203
2328+331311665+327833671+323944226+319557997+314750424+309810821+305042282
2318+300577698+296395611+292452833+288709161+285034921+281261640+277387971
2308+273620249+270167114+267050565+264126826+261249045+258376985+255562917
2298+252920667+250602916+248700860+247150572+245797178+244515554+243254238
2288+242048577+240994587+240152799+239506375+238996891+238538277+238060217
2278+237596998+237225066+236886970+236435406+235870035+235366397+235048465
2268+234863605+234696121+234486996+234225473+233925510+233626753+233350983
2258+233076869+232797502+232539504+232307966+232096683+231930135+231812261
2248+231689207+231514960+231304486+231134323+231107449+231234712+231355679
2238+231295474+231090001+230963026+231093724+231462814+231924918+232376122
2228+232786565+233118834+233357621+233611445+234062613+234807393+235766570
2218+236721501+237469519+237988680+238434506+239016012+239902896+241124350
2208+242494708+243750735+244800767+245769872+246812655+247963455+249193669
2198+250525947+251971708+253408943+254678192+255755889+256728772+257699604
2188+258767552+259949362+261090484+261960980+262446109+262626094+262708154
2178+262870996+263150849+263446441+263580881+263406832+262924654+262252255
2168+261500513+260752639+260067217+259405683+258649948+257722376+256667362
2158+255651272+254803674+254026587+253143823+252205890+251441017+251027084
2148+251014169+251341833+252108882+253941865+257603190+263105646+269737927
2138+276904677+284406646+292132130+300003836+308071626+316446089+325224015
2128+334383353+343744657+353186041+362720027+372270094+381616899+390470158
2118+398410829+405044909+410292821+414349552+417567336+420457528+423545261
2108+427259541+432011280+438092850+445377654+453150140+460255678+465657528
2098+468965467+470380919+470417182+469625076+468091085+465353536+460966911
2088+454662078+446168069+435437506+422667964+408073535+392162369+375822089
2078+359860126+344946163+331656094+320094966+310035308+301495449+294549372
2068+288898643+284154081+280079111+276468458+273296452+270713202+268641703
2058+266873278+265437338+264390885+263671611+263399817+263792020+264876841
2048+266706478+269526896+273635736+279387142+287084188+296745346+308422962
2038+322468731+338842037+356559707+374220968+390575998+404677277+416196565
2028+425434221+432802344+438629460+443187219+446587111+448832084+449737477
2018+448757003+445512310+440374087+433961867+426478767+417861722+408153940
2008+397599872+386552904+375315771+364118463+353212807+342802785+332936206
1998+323686858+315407407+308509123+302853142+297636889+292223238+286816099
1988+281930261+277696658+274045874+271013057+268566568+266530990+264780481
1978+263277806+261994132+260879542+259826452+258817791+258174911+258242185
1968+258679088+258570335+257527426+256168563+255224046+254743199+254442463
1958+254295917+254379506+254513640+254462033+254272623+254209090+254495221
1948+255244265+256554777+258396501+260119543+260489173+259015368+256802557
1938+255279107+254822327+254968441+255212049+255333196+255364512+255446464
1928+255773103+256703949+258430552+260368853+261721924+262692288+263824272
1918+264448032+263521216+261716743+260815290+261585361+263298942+264668058
1908+264963236+264513147+264156793+264287636+264670414+265041284+265527654
1898+266399985+267513712+268300530+268685755+269454855+270886856+271786331
1888+271039553+269313274+267901635+267138794+266727182+266493845+266389894
1878+266378760+266463806+266721048+267655185+270274392+274861095+279374820
1868+280375944+277091677+272477598+269422531+268472385+268649294+268921591
1858+268882054+268676725+268599306+268756536+269218766+270266136+272245179
1848+275462783+279928716+284162211+285065877+281754881+277450856+275170645
1838+275032535+275542451+275988833+277448158+281172242+286111521+289121942
1828+288981386+287657743+286361586+284350884+281684279+279846746+279575995
1818+280134567+280665600+281401207+283176395+285942454+288242272+288670091
1808+287574478+286611363+287256384+290017946+294047047+297293917+298169720
1798+297441920+297619477+300607252+305842626+309626555+308347774+303685397
1788+300184451+299806979+301488559+303659531+305831870+307717520+308737315
1778+309392823+311619737+316970574+324551203+330313096+330619966+326785132
1768+322121892+318564392+317578558+319905987+323781078+326158081+326787758
1758+327520901+328589874+329699571+332489680+338595641+346345426+351361369
1748+351743068+349901883+348777759+349578464+351991118+354557208+355756484
1738+356619930+360421307+367931964+373654391+371763344+365434299+359587361
1728+355452672+353339728+353425566+355085939+358298686+364704790+375341961
1718+386905895+391823229+387481322+379573748+373353385+370730382+372226384
1708+377484764+384321710+389710502+393879295+400170638+409114231+415691902
1698+416562543+413516937+407301718+399739293+395316513+395908776+399927300
1688+406193136+416046332+428841955+436074199+431536189+422749521+417590972
1678+418089375+422967172+428753384+432775866+436497773+441526199+444662715
1668+442327731+438220311+438068099+442285496+446510016+447469084+447505527
1658+451070905+460930468+477695330+496082611+502466590+497878827+496812012
1648+502269625+506962760+504122142+497858716+494976367+497516158+505408191
1638+518016850+531573353+537613048+533611828+528431298+528805658+534834272
1628+543504416+552583241+562132732+571569044+578525284+583412723+590457102
1618+601897784+613454667+618413876+618170107+618439779+620966979+624075182
1608+626001664+626841043+627945775+630240215+633545635+637374713+641904304
1598+647805493+655300825+663613445+671453205+678143335+683937390+689237934
1588+694168794+698815162+703203082+707168363+710789719+714992653+721338139
1578+730557555+740292212+746074754+748753699+753995027+764267947+776670756
1568+786798623+794964752+804300513+816232043+832041866+855212832+885437855
1558+905882317+905321533+898168039+893596573+891034405+888411726+885218837
1548+882988434+883860334+887856625+892942180+897333410+897702302+888504111
1538+873676416+863042447+858202532+854692628+849129607+843815105+842449478
1528+844783203+847795207+850222684+853738272+858330245+860621662+859282657
1518+856478591+852924868+848296777+844317393+843914685+849120182+859984969
1508+871812675+872525851+857969699+842882982+836582610+837906792+842625614
1498+845828576+843882882+838209417+834468335+836440363+842758003+847239028
1488+844623472+837404719+831591670+829652883+830037748+830491830+831127875
1478+833852076+839602025+847143621+852939043+852095419+844130105+835521047
1468+831983802+833929567+837360254+837914563+836780906+838924392+846611761
1458+855956947+857816660+849953588+840530550+834685914+832499473+832168212
1448+831145791+827978732+823859764+820814950+819652369+820614063+823984599
1438+828390291+829689722+825857047+821157868+819625531+820423610+820415623
1428+818764136+817618176+818270194+819717700+821188159+823198680+824673528
1418+822311239+816027127+809774530+806057408+804493485+803711236+803184916
1408+803470416+804628321+805188962+804120348+802992519+803914785+806717413
1398+809602568+811147568+810314233+806616178+802046726+799936193+801162666
1388+803019717+802164725+799156606+797798175+800348831+805988911+812689473
1378+819154253+825049255+829953926+832915061+833760555+833905248+834721242
1368+836407122+838975550+842805923+847298963+850173901+849702839+846955757
1358+844264653+842708789+841847538+841010966+840215909+839757151+839493236
1348+838939862+837991262+837580927+839407974+844280339+850443141+854375253
1338+854407631+852565762+851697388+852653110+854696369+856940875+858917363
1328+860660372+862742772+865788809+869808629+874362108+879122949+883930558
1318+888638011+893157457+897431407+901342365+904866084+908343466+912367531
1308+917149166+922032611+925958679+928376442+929427859+929590899+929481822
1298+929649827+930203848+930764489+930789456+929795743+927569657+924536139
1288+921678181+919722055+918488962+917291916+915845201+914320636+912800315
1278+911422170+910677047+910650785+910538686+909819969+909325883+910285419
1268+912684906+915287942+917077647+918142159+919165731+920577190+922474965
1258+924869631+927425252+929304895+929891654+929493766+928964496+928917872
1248+929463259+930329978+930917744+930371854+928175195+924749258+920957810
1238+917069660+912881620+908705883+905355781+903232009+902154474+901865663
1228+902028632+901924735+900810217+898773865+896959913+896677650+898100046
1218+899982999+900957284+900840148+900447585+900644083+901922504+904316164
1208+907126634+909116794+909758667+910099714+911545709+914066793+916516502
1198+918418018+920307878+922529719+924791349+926785681+928536964+930046060
1188+931256129+932552754+934690053+937923163+941617837+944969593+947768407
1178+950118105+951973716+953380930+954661223+956069012+957828210+960471754
1168+964117861+967465013+968804449+968109476+966895882+966470869+967303267
1158+969284937+971807100+974404740+977630079+982161829+986912381+989551104
1148+989416556+988258796+987880263+988638121+990078072+991668689+992965746
1138+993997880+995445962+997791918+1000383442+1002118320+1003132827+1004786760
1128+1007329861+1009080136+1009011927+1008123119+1007275394+1006487533
1120+1007020904+1010755439+1016847082+1021816796+1023291212+1022052219
1111+1020604497+1021134487+1024266433+1028588231+1031545697+1031308187
1103+1028329352+1025484920+1025780638+1029184847+1032441268+1033045799
1094+1032673238+1035022935+1040709351+1046033064+1047752904+1047009796
1085+1046105806+1044854581+1042788946+1041027446+1039956602+1038584284
1077+1037554668+1039482087+1045297439+1052420712+1057162918+1058325283
1068+1057857387+1058144111+1059193658+1059290791+1058663452+1060069227
1060+1064910293+1070811123+1073741823+1072634212+1070330923+1069518095
1051+1070015779+1070084492+1068712749+1066334775+1064595652+1065018507
1043+1067190126+1069060416+1069461398+1069058473+1068332705+1066681290
1034+1064408868+1063544235+1065422007+1068349614+1068914284+1065970129
1025+1061864831+1059362526+1059168835+1060536476+1062366760+1062939273
1017+1060683903+1056688834+1054220130+1054922154+1057487920+1059787468
1008+1060514243+1059295972+1057155795+1056337570+1057939843+1060095777
1000+1059664504+1056162370+1053015745+1053485512+1056313323+1057601170
991+1056181149+1053604735+1050276794+1046081415+1042779592+1042116062
983+1043027894+1042944287+1041085007+1038628606+1036530880+1034861622
974+1033302016+1031276385+1028125083+1024021657+1020329789+1017732581
965+1015379573+1012879571+1011075476+1010285025+1009502056+1007758976
957+1004933108+1001154107+996787773+992977978+990800027+989717527+987935953
947+984473248+980172101+976557148+974506982+973855252+973541978+972567476
937+971163788+970218714+969665484+968715302+967557398+967202608+967631291
927+967898229+968110052+969369407+971241783+971428855+969172837+966613259
917+965581341+965215615+963721125+961089452+958751051+957467520+956809530
907+956129307+955368211+955083790+955551902+956083043+955935687+955398647
897+955013350+954605245+953987475+953552821+953537999+953809541+954678203
887+956439127+958028017+957795040+955397495+951745704+947916122+944820223
877+942983535+942377349+942969217+944871668+947422108+949185766+949570991
867+949458748+949750940+950029102+949310889+947957710+947645875+949007976
857+950563624+950608378+949099713+947098114+945375468+944038693+942917844
847+942065299+941698997+941667483+941459041+940735288+939474782+937953382
837+936975714+937350075+938563669+938915580+937536571+935352216+933477970
827+931984487+931571921+934300799+940500153+946663459+948906741+948033258
817+948346029+952380958+958623338+963156742+963172284+959576110+955724584
807+953948406+954304707+956016992+958655140+961901201+964994654+966691686
797+966350423+965149132+964660802+964413147+962884552+960184886+957548609
787+955498586+954449615+955234383+957348010+958588514+957868502+956750962
777+957202166+959177719+961113268+962031792+962266567+961947897+960152508
767+956594541+952946059+951423796+952772874+955855894+958566353+959354718
757+958735725+958852357+960908208+963971873+966598293+968207329+968517078
747+967657409+966952219+967823616+969631883+970295270+969021093+966789826
737+965186547+965970379+970320309+977259316+983074740+983475219+977055983
727+966910632+958579088+955591403+957124171+959587335+960298569+959483726
717+958407917+957353694+956652821+957559833+960430958+963331367+964032312
707+963112061+963401087+966056720+968142789+965271089+957396649+949609341
697+946154911+946025543+945073274+941727777+938673106+938285147+938790746
687+936118564+929943674+925076778+925970191+932122129+938183984+938774557
677+934342819+929660404+926563497+922253572+914398271+904859249+899086995
667+900883391+906586428+911235457+912859027+910698129+905781946+900454204
657+896456402+894467178+893559446+891735925+888072838+883595555+880649601
647+881262550+884485946+886405162+884482420+881085191+880756520+884224693
637+886899320+883932716+875913511+868546468+867269197+872225241+877407929
627+875600741+865427688+852252272+842402279+838351160+838671773+840855120
617+844024841+848530904+852770102+853162018+849979778+849623046+857021891
607+867465047+870127011+862358267+853593219+853403485+861043797
##END=
