##TITLE=<SNM>
##JCAMP-DX=4.24
##DATA TYPE=INFRARED SPECTRUM
##DATE=3/5/2025
##SAMPLING PROCEDURE=Instrument type and / or accessory
##ORIGIN=Admin
##XUNITS=1/CM
##YUNITS=ABSORBANCE
##RESOLUTION=4
##FIRSTX=4497.3318
##LASTX=599.83466
##DELTAX=-1.4281778
##MAXY=1.7595546
##MINY=0.19295299
##XFACTOR=1
##YFACTOR=1.6387129e-09
##NPOINTS=2730
##FIRSTY=0.21462938
##XYDATA=(X++(Y..Y))
4497+130974362+131211285+131583843+132179094+132747010+132690769+131558691
4487+129595495+127880479+127526353+128464690+129480020+129648926+129198230
4477+128879022+129171633+130175996+131684896+133149585+133928591+133819427
4467+133160815+132337107+131460121+130625619+130048109+129734866+129432053
4457+129079173+128929890+129027314+128952223+128499835+128330556+129315669
4447+131255842+132894957+133225568+132201700+130374228+128523669+127381189
4437+127083404+127124997+127072765+126968684+126976359+127084168+127270042
4427+127553141+127757884+127595143+127093080+126556507+126044869+125376982
4417+124736674+124687689+125416355+126440442+127129289+127126888+126422064
4407+125436869+124895096+125198209+125925975+126198426+125578305+124461013
4397+123532815+123102624+123123057+123502807+124056175+124399780+124269983
4387+123837128+123503335+123448494+123436709+123062560+122243525+121392664
4377+120994654+121052933+121023107+120439841+119692352+119734017+120730060
4367+121645601+121636999+121020388+120400950+119859185+119400942+119253823
4357+119408599+119555663+119573440+119635310+119902715+120365577+120898366
4347+121347817+121550868+121348790+120784592+120246738+120099319+120239081
4337+120292722+120073603+119659153+119270818+119122653+119199027+119282658
4327+119255114+119114851+118764108+118184289+117746669+117890887+118534195
4317+119209903+119675030+119927766+119842499+119359723+118871053+118864743
4307+119279239+119611541+119538222+119175521+118901016+119030712+119511097
4297+119939497+120069720+120214912+120895720+122083194+123072589+123268521
4287+122807368+122190866+121591105+120877770+120158006+119887138+120361649
4277+121291439+122096897+122570681+122935473+123243596+123180408+122633533
4267+122036482+121895746+122212935+122527842+122432673+122023660+121839723
4257+122269132+123141861+124050446+124791633+125291560+125456293+125279111
4247+124819004+124089301+123277978+122845432+123041100+123595713+124106478
4237+124399325+124440799+124255643+123977637+123758145+123681707+123870728
4227+124506952+125575841+126588115+126750175+125741647+124294599+123587583
4217+124041644+125121326+126170282+126851946+126914316+126234717+125170748
4207+124391469+124273339+124706885+125432941+126265270+127013859+127483524
4197+127625714+127535528+127328475+127179520+127333840+127798794+128113856
4187+127783245+126998701+126585824+127002375+127703198+127888563+127620940
4177+127635380+128247199+129103543+129884340+130592938+131122972+131088445
4167+130312385+129221045+128507892+128436274+128611937+128516403+128173653
4157+128067781+128417578+128914759+129314378+129822734+130558084+131054146
4147+130767782+129776540+128592504+127599535+126995437+126956463+127465910
4137+128125459+128472665+128487469+128567980+129002517+129650781+130187126
4127+130498187+130705748+130849894+130749596+130326543+129919586+129933907
4117+130220789+130277940+130075416+130071906+130301855+130176896+129460660
4107+128748371+128654338+129129122+129823825+130556529+131199310+131565102
4097+131564456+131262944+130783823+130230473+129633722+129027805+128655002
4087+128858699+129634732+130533059+131110878+131289751+131224243+131017009
4077+130681924+130254098+129764174+129197376+128640162+128344578+128478085
4067+128952968+129563450+130063877+130153590+129723445+129108890+128833274
4057+129121820+129774922+130414538+130780094+130868344+130867798+130991939
4047+131314839+131663009+131747084+131498003+131118625+130777794+130496432
4037+130284778+130127102+129957377+129872810+130141869+130767164+131294152
4027+131305609+130973425+130913719+131486273+132373498+132950753+132971831
4017+132703617+132409998+131991801+131259234+130344366+129660111+129518284
4007+129897771+130580189+131423475+132349110+133079394+133228623+132833150
3997+132430066+132336224+132236427+131839317+131499067+131712939+132386537
3987+133033728+133402322+133544930+133559998+133565690+133727049+134127869
3977+134722783+135402319+135939627+135981492+135375730+134485941+133895546
3967+133818300+134081102+134568871+135289836+136087119+136662692+136853740
3957+136674831+136298836+136125292+136583808+137693989+138847008+139190259
3947+138548233+137820494+137959120+138804361+139454035+139559098+139529008
3937+139746654+140420106+141770485+143562784+144737754+144419273+143196036
3927+142459468+142718124+143207539+143183760+143063394+143684078+144924646
3917+145608692+144817483+143017436+141446475+140708643+140572509+141156165
3907+143532239+148405145+154398344+158647219+159702159+158218747+154961723
3897+150790649+147693993+147564233+150056991+152193431+151678837+150465549
3887+151436294+153870501+155105286+155253888+155902943+155822068+153453596
3878+151106320+151668371+154807502+158702524+162399350+164536546+163470858
3868+161007125+160584255+162051280+162043860+159041173+155455411+154338383
3858+157272398+164636535+174493665+179586045+174194917+164529489+157483797
3848+154727736+155696145+159056086+163303852+167656190+172016293+175492845
3838+176170144+173770209+170453552+167750304+165494806+163591506+162785175
3828+163246183+164297740+166416712+171102680+177130660+179847947+178315814
3818+176259057+174193171+169827303+164128642+160538516+160915811+164915496
3808+170115285+173697173+176288156+180221387+184127394+184440200+182274834
3798+181047196+180486400+178943482+177182982+177056350+179064822+182736224
3788+187655687+193214203+198391749+203079535+208774667+216544215+225121822
3778+232634105+239584991+247961711+258768682+271122899+282248206+289543124
3768+293562523+296154179+297770206+299487586+303930656+312145098+321771353
3758+329971937+337502934+347694494+362996948+382558080+400815100+412961192
3748+422275658+434004444+447600249+457151575+461856365+467834460+479039150
3738+495343857+513992722+530714735+541611420+545968377+546926802+548697613
3728+553466747+559973376+564771426+566118131+564447817+559928128+553729105
3718+549170679+548865038+552234436+555546910+554001392+547048141+539864760
3708+536164915+535508203+536609100+538812494+541382962+543652846+545732245
3698+547985833+550613480+554280626+560103227+568264892+576184060+579324491
3688+577278919+574859361+574602205+575400734+576432486+578895219+584374023
3678+592060514+597281362+596164934+592652736+591480840+590411951+584247373
3668+573644945+564255696+559555634+559442623+561548283+563641468+565272680
3658+566285846+566155086+566428900+570148642+578168053+587360343+591171489
3648+586002363+576486064+568711332+564958201+564843590+566893418+569512372
3638+571827430+573789563+575797126+578767223+583646348+589560099+592828126
3628+590711882+586267593+583588115+584102427+588352848+595711874+603007539
3618+607472123+610467790+614164798+618212150+621712890+625017435+627692512
3608+627578811+624235492+620355165+618787132+620621923+625133101+630330489
3598+634435892+636817003+637563883+637622298+638906041+642559620+647254626
3588+650050388+649263426+645590060+640682854+636710213+635669731+637337353
3578+639267805+639547076+638299415+636607568+635797691+637531075+642504479
3568+648434416+651147466+649111023+644685031+641110890+639865338+639771642
3558+638832932+637061574+635950966+635565996+634579637+633120286+632578840
3548+632630998+631255523+627898092+624464059+622714162+622696484+623708959
3538+625289868+626867940+627218502+625614677+622988995+620851581+619715003
3528+619135583+618819576+618823213+618905489+618505970+617333600+615463454
3518+613060592+610574290+608825120+608334923+608703052+608937439+608661042
3508+608905904+610643398+612670020+612622226+610242788+607758668+606583680
3498+605753397+603906821+601389929+599695246+599388259+599491922+598973863
3488+598114482+597955678+598903045+600286668+600905443+600174531+598876602
3478+598068761+597624758+596744026+595188251+593070006+590286683+587464551
3468+586350051+587725053+589973695+591074773+591180364+591704533+592626657
3458+592539362+590949396+588727161+586717562+585533371+585674061+586407010
3448+585753791+582901978+579693639+578232542+578205153+577832077+576483772
3438+575285578+575291034+575893586+575486174+573608717+571724058+571367677
3428+572291220+573092150+573082693+572632143+572125651+571609957+571078113
3418+570303008+568980491+567456397+566463018+565910333+564856721+562862580
3408+560648201+559400613+559668753+560568254+560394028+558550361+556117236
3398+554204607+553054643+552786212+553330204+553775080+553385600+552827204
3388+553086906+554045439+554896746+555101270+554582230+553704662+553119423
3378+552967276+552660289+551883547+550936507+550012164+549216545+549250190
3368+550802983+553179329+554590668+554063044+552413281+551124046+550659746
3358+550139760+548871985+547691722+547721439+548290019+547700670+545915528
3348+544660810+544927859+545801280+545749558+544461996+543055495+542569299
3338+542907166+543500626+544282387+545402234+546540086+547179302+547217021
3328+546834669+545976961+544368154+542146283+540113077+538931651+538220962
3318+537069143+535443278+534315574+534276037+534743646+534884736+534791040
3308+535080822+535770451+536451642+537093331+537567051+537073217+535467793
3298+534332342+535174191+537326809+538883639+539097475+538711850+538503506
3288+538550427+538659982+538899207+539539769+540547806+541422209+541695369
3278+541348299+540676602+540112241+540064520+540555007+541277227+542034691
3268+542650229+542720319+542013413+540772953+539318185+537834755+536601316
3258+535872586+535521988+534949152+533557564+531675488+530478385+530596051
3248+531321071+531629549+531426079+531085302+530614565+530063225+529879797
3238+530254510+530823672+531109199+530584412+528842116+526325188+524199669
3228+523058471+522426966+521723297+520929896+520229137+519707114+519476001
3218+519500661+519347750+518566680+517234088+515856248+514853194+514275521
3208+513823807+513136033+512310696+511914123+512154475+512405339+511932383
3198+510783255+509584588+508719606+508024630+507194456+506263130+505544512
3188+505178019+504988480+504775953+504406660+503634137+502277721+500679353
3178+499523133+498923163+498048324+496092956+493467601+491484554+490816857
3168+490684933+489763027+487665223+485195289+483248288+481998226+481254547
3158+480987352+481096398+481090578+480547313+479771299+479448890+479582233
3148+479349446+478278994+476916358+475882969+474978631+473719367+472132275
3138+470579518+469305487+468384417+467708101+466987518+466010980+464844176
3128+463740187+463020187+463011312+463797475+464839047+465180625+464448621
3118+463287964+462372023+461481398+460126909+458560695+457426699+456760239
3108+456046386+455128263+454399024+454037150+453728090+453361779+453227091
3098+453266046+452934507+452078327+451284490+451083385+451223274+450918979
3088+449787711+448403579+447572096+447271402+446920913+446362372+445810268
3078+445177526+444240016+443289558+442957292+443309672+443537257+442813255
3068+441289415+439922888+439438001+439692138+439866146+439178263+437661479
3058+436174885+435417056+435180669+434810212+434035361+433020741+431916680
3048+430786175+429805818+429156381+428789852+428556229+428420231+428352250
3038+428197848+427795055+427040682+425838669+424242956+422640987+421508046
3028+420941539+420672489+420524852+420531726+420552822+420221902+419372996
3018+418138793+416730873+415538535+415085948+415322735+415415522+414709707
3008+413381662+411990328+410997713+410637804+410688508+410567095+409974873
2998+409119675+408212027+407230287+406227197+405388949+404754570+404239676
2988+403850123+403534516+402968118+401884826+400547069+399515935+399020101
2978+398806701+398494331+397895962+397093977+396305959+395624187+394948197
2968+394306180+394065611+394523617+395324766+395610692+394877016+393479535
2958+392167385+391270176+390496380+389474303+388283966+387285386+386559020
2948+385847495+385059586+384489587+384339149+384243961+383578993+382247165
2938+380885257+380151289+380054356+380119427+379956586+379495996+378842740
2928+378107900+377362766+376656150+376035739+375540377+375169811+374854604
2918+374466469+373914548+373233757+372559696+372048548+371774224+371627169
2908+371338987+370673109+369641394+368528712+367638960+367038298+366669805
2898+366565379+366649364+366567888+366091732+365410468+364715092+363874080
2888+362785440+361675560+360885869+360574772+360608017+360637079+360376322
2878+359811524+359074683+358236980+357346209+356589327+356212250+356167620
2868+356004233+355329408+354279033+353335449+352824338+352722603+352764541
2858+352640510+352234880+351699326+351235281+350876863+350521719+350108705
2848+349727772+349523030+349482474+349393361+349012646+348254927+347273770
2838+346385036+345830495+345586252+345426866+345154761+344743493+344263772
2828+343726690+343120682+342559668+342154911+341782744+341258175+340641219
2818+340095444+339605065+339083770+338562183+338080025+337596012+337091920
2808+336564732+335917005+335061188+334120150+333331442+332751986+332224871
2798+331650725+331122082+330714343+330287180+329639962+328811898+328068219
2788+327577876+327220841+326740174+326022647+325185998+324406019+323727193
2778+323077501+322383908+321624625+320864687+320248713+319791361+319224417
2768+318301129+317170443+316212164+315644093+315440478+315385700+315122579
2758+314441861+313541816+312759254+312163867+311602598+310977421+310344497
2748+309841788+309526254+309258150+308859285+308341736+307816403+307270592
2738+306616281+305848560+305023151+304194232+303451971+302887865+302458793
2728+302005096+301437625+300807557+300194911+299630368+299115547+298635880
2718+298160869+297672200+297179711+296722105+296341572+295985918+295494594
2708+294819951+294140997+293586220+293052303+292498545+292138599+292085641
2698+292047467+291621232+290772490+289850711+289163101+288669885+288152154
2688+287533943+286895182+286306596+285816909+285468948+285235816+285072884
2678+285014615+285039185+284905787+284343045+283369253+282270429+281312278
2668+280619448+280283418+280365366+280736623+281075909+281093204+280695976
2658+279994635+279221658+278551270+277968886+277409581+276933934+276623019
2648+276407982+276121146+275653173+275045328+274472656+274094433+273905895
2638+273750255+273444323+272952963+272496865+272338516+272413935+272402678
2628+272145504+271720451+271190898+270582635+270036697+269732075+269675842
2618+269687845+269586529+269329755+268977993+268607463+268304805+268141909
2608+268094697+268070709+267999636+267812880+267462755+267062563+266832687
2598+266826394+266874097+266815428+266640001+266431694+266277455+266175193
2588+266014934+265729680+265424494+265256560+265220915+265136294+264859424
2578+264499551+264351895+264531541+264756507+264664756+264277913+263922496
2568+263763528+263699348+263687272+263870264+264337000+264995513+265704892
2558+266319211+266612758+266405287+265809300+265178868+264754670+264467815
2548+264132112+263725809+263383105+263145499+262851188+262340768+261702934
2538+261196788+260922827+260714757+260444197+260259278+260325331+260494046
2528+260495992+260329041+260183186+260108276+260008214+259854412+259715467
2518+259657416+259706247+259816584+259858613+259728998+259458148+259159017
2508+258932524+258834026+258810075+258676022+258312494+257866363+257595876
2498+257572980+257682462+257800510+257822606+257654109+257315587+256946985
2488+256628559+256316571+255976612+255641327+255317191+254952844+254525699
2478+254077986+253652733+253279566+253019246+252894432+252770473+252466742
2468+251993040+251516738+251145735+250894817+250753527+250653756+250521122
2458+250417660+250432155+250445612+250253382+249873413+249509648+249286210
2448+249167962+249047604+248845298+248599473+248428102+248352355+248257350
2438+248047406+247747257+247476788+247354085+247339972+247245894+247027584
2428+246901970+247004669+247153161+247112442+246878001+246600712+246426668
2418+246436125+246580434+246703338+246735492+246801454+247023346+247294633
2408+247386420+247261425+247143777+247228144+247435232+247560137+247580542
2398+247654197+247833551+247998029+248099164+248233398+248423301+248556371
2388+248549787+248355684+247865541+247003487+245801565+244242061+242193742
2378+239649753+236919517+234446909+232434855+230726477+229112014+227638332
2368+226464053+225576737+224879761+224420627+224396457+225104909+226927352
2358+230123506+234542370+239787024+245800637+252720424+259855430+265644768
2348+268888716+269694829+269359835+268997398+268307187+266526791+263792390
2338+260725050+257557630+254215548+250811905+247739146+245359598+243702888
2328+242463429+241261888+239951120+238801193+238332347+238763711+239680488
2318+240426168+240722279+240769127+240912527+241364442+242112867+242983579
2308+243836231+244676171+245497760+246137995+246427868+246400116+246252351
2298+246187335+246311875+246601294+246938652+247220869+247428522+247616387
2288+247849992+248116405+248309617+248342189+248238054+248089671+247951345
2278+247796051+247598456+247417483+247272355+247000522+246470588+245866708
2268+245495178+245396044+245384132+245360726+245378203+245466061+245542535
2258+245506981+245353578+245147581+244935509+244736477+244544446+244298875
2248+243977085+243709235+243648547+243779726+243975648+244143490+244240861
2238+244274324+244330665+244515948+244832628+245169732+245447439+245737003
2228+246171149+246761953+247409408+248076977+248850572+249805323+250868483
2218+251865954+252715896+253510279+254383900+255413597+256662113+258163256
2208+259829132+261495154+263089612+264694818+266411998+268210872+269983193
2198+271688788+273342534+274958452+276606378+278354984+280103154+281669314
2188+283010835+284180004+285201644+286126933+287058768+288041817+288972016
2178+289643332+289959175+290050089+290031957+289808719+289303136+288643406
2168+287955159+287182272+286206862+285035402+283810219+282608897+281343959
2158+279976067+278618433+277339400+276134095+275035544+274044530+273181730
2148+272598473+272383291+272735835+274560097+278942496+285783609+293859107
2138+302215277+310634534+319049027+327362040+335596669+343863561+352367968
2128+361290771+370535693+379847540+389040302+397906946+406159435+413454262
2118+419350082+423583662+426431728+428517565+430534257+433369738+438069109
2108+445385906+455464275+467922664+481920242+495828053+507309140+514705921
2098+518130642+518572608+516822929+513454259+508623618+501984774+493297885
2088+482508609+469518886+454555209+438024771+420084049+401295258+382984552
2078+366309023+351740355+339314265+328690958+319453712+311597614+305221055
2068+300105015+296008506+292721492+289810228+287020050+284549988+282542462
2058+280949677+279825411+279146493+278800806+278982197+279959736+281698048
2048+284277301+288164394+293838993+301722043+312301138+325905308+342660966
2038+362548508+384912931+408245890+430874416+451371858+468432429+481201406
2028+489566141+493978748+495404746+494954632+493253874+490535695+486870586
2018+481961562+475439257+467481534+458623329+449160025+438991379+427866164
2008+415805112+403271322+390817843+378777487+367329281+356536077+346307525
1998+336623620+327810444+320342882+314258179+308947489+303765360+298680491
1988+294034734+290010570+286624568+283847028+281532934+279513659+277755141
1978+276255616+274947304+273768096+272673201+271688206+271043207+270936434
1968+271061066+270769319+269867564+268836703+268126723+267683411+267300750
1958+267021643+266959137+267037047+267113176+267145075+267149330+267156350
1948+267276635+267759266+268778033+269912575+270157492+269055885+267413379
1938+266279019+265884628+265862550+265863878+265788077+265748158+265879718
1928+266222987+266905960+268054105+269331773+270238003+270943436+271843918
1918+272430358+271850265+270469407+269586092+269905846+271032677+272038713
1908+272313455+271995193+271610714+271456075+271498522+271677476+272063501
1898+272746365+273590924+274233177+274624986+275271858+276340165+277005915
1888+276511154+275317361+274318854+273768751+273515832+273487643+273618167
1878+273774461+273883944+274053514+274781371+276867408+280443222+283886493
1868+284658616+282272794+278908870+276624764+275795373+275790171+275991077
1858+276147807+276281296+276487821+276822687+277396705+278410835+280032845
1848+282477791+285820982+288958195+289590154+287195676+284204428+282677060
1838+282529786+282679242+282750024+283679386+286495899+290434641+293042064
1828+293262557+292521169+291744263+290378372+288463342+287124803+286935210
1818+287364719+287793554+288401799+289800026+291922599+293695211+294189482
1808+293770594+293570343+294452549+296700317+299812814+302402015+303232261
1798+302777310+302986563+305431036+309690550+312841238+312062059+308661744
1788+306175151+306110990+307603986+309464129+311418224+313291461+314542505
1778+315415235+317350634+321571229+327410489+331832044+332205084+329573982
1768+326362914+323935646+323399619+325419439+328751628+331065777+332007325
1758+332824804+333742527+334828366+337594229+343163675+349755961+353690921
1748+353803167+352339088+351613886+352502293+354792872+357351593+358877215
1738+360098688+363599646+369883200+374428387+372797138+367805147+363349729
1728+360226757+358605073+358721394+360167178+362903798+368195173+376864931
1718+386322269+390631542+387629000+381646213+376897593+375023810+376446897
1708+380806073+386365626+390876403+394635900+400226806+407921480+413655222
1698+414815298+412896194+408574591+403283434+400486945+401605118+405355522
1688+410878556+419333459+430185551+436684577+433965598+427844304+424482180
1678+425500001+429950473+435177541+439031898+442490046+446764910+449581259
1668+448468105+446290099+447271802+451491742+455386001+456472639+456724667
1658+459678614+467589234+481144737+496422021+502534877+499517532+498770943
1648+503204756+507449430+506161831+502121900+500488905+502973279+509621798
1638+519997478+531326563+537256391+535507221+532526612+533791696+539662018
1628+547650403+555709388+563950673+572432238+579757219+586036844+594037050
1618+605289352+616339385+621515968+621478649+620843216+621439003+622321771
1608+622252736+621462718+621449405+623441328+627516759+633150184+639973147
1598+647649126+655511698+662764078+668998019+674493737+679851893+685173022
1588+689888033+693527208+696249570+698595182+701238178+705063873+711079868
1578+719590895+728421566+733568177+735635537+739735192+748421827+759502740
1568+769297437+778106211+788636658+801818757+818008818+839332178+865348798
1558+884151883+888252921+887146386+886417329+885565841+883986096+881785248
1548+879554429+878884077+881262061+886768327+893779992+897130222+889580529
1538+874763253+863342617+858198843+855824569+851992981+846924281+844080070
1528+845042859+848596267+852960790+857059864+859012285+857088380+853534826
1518+851444697+850069513+847698731+845425283+845880380+850681813+859653465
1508+869226142+870498755+859725920+847209880+840432020+839347891+841692411
1498+844397823+844310674+841361564+839267870+840900793+845261460+848257782
1488+846899038+842581145+838308355+835670378+834841878+835474692+837472362
1478+840918615+845334715+849603140+852184303+851091808+846206644+841058214
1468+839049779+840371059+842328718+842425033+842103061+844770936+851278473
1458+857664889+856889493+848831163+840382989+834805432+831943471+831001342
1448+830584364+829301712+827250648+825347257+823823599+822869539+823452377
1438+825811593+827725386+826755250+824113054+822179473+821063555+819694990
1428+818173514+817382696+817055486+816357855+815963500+817378113+819813275
1418+819780612+815976667+811047275+807331789+805071435+803444551+801896523
1408+800671194+800108288+799994659+800223808+801271564+803092825+804601352
1398+805165350+805369256+805214744+803546322+800533778+798336713+798369666
1388+799564805+799685854+798542728+798518650+801447682+806867817+813089100
1378+818959022+824379230+829292764+832857957+834570536+835504154+836975436
1368+839025700+841249899+843787196+846314454+847394509+846273789+844141831
1358+842472536+841521022+840756975+839917271+839347309+839448207+840238371
1348+841512802+842877802+843790760+844435360+846068791+849368899+852978249
1338+854974172+855437053+856158472+858383035+861816558+865304350+868164201
1328+870963964+874745139+879675114+885031597+890266667+895295139+899892230
1318+903783978+907393983+911542232+916213305+920343514+922985055+924263124
1308+925189395+926843050+929656853+933014502+935482400+936147877+935757160
1298+935733518+936205928+935957574+934362989+932261512+930517871+928801218
1288+926363510+923334744+920743470+919497773+919489771+919644428+918923591
1278+917129101+914649637+912084842+910321269+910080699+911103067+912490545
1268+913856782+915499015+917556918+919538947+920780279+921272695+921830727
1258+923219951+925162770+926603498+927004109+926820499+926615720+926236351
1248+925055179+922645115+919114476+915072435+911242084+907961835+905042915
1238+902021932+898548835+894750856+891332755+889137508+888406560+888478723
1228+888361603+887638584+886780912+886476762+886751886+887096701+887261979
1218+887478543+888037012+889033991+890472610+892307765+894409170+896487368
1208+898069223+898918602+899589317+901051941+903615354+906547805+908821908
1198+910204949+911641385+914387752+918730597+923783075+928351795+931414534
1188+932222156+931188731+930397986+931867594+935551290+939529606+941742675
1178+941741438+940999068+941304818+942947489+944843459+946192892+947256143
1168+948694834+950865347+953541224+956089432+958272167+960708420+964098514
1158+968220793+971788241+973215075+972206238+970528068+970199985+971492094
1148+973688213+976555921+979615022+981624985+982400600+983432061+985658297
1138+988226365+989986083+990915700+991580668+992265860+993227703+994988512
1128+997712183+1000771794+1003568647+1006072117+1007793935+1007664811
1120+1005947940+1004677000+1005377396+1007884649+1011401248+1015128518
1111+1018312742+1020785004+1023014805+1025306221+1027104858+1027146977
1103+1025019894+1022792057+1023651038+1028423009+1034303989+1037223927
1094+1035815644+1032747158+1031786552+1033961793+1036873221+1038455294
1085+1039793014+1042821489+1047326629+1051376673+1053180693+1052057063
1077+1049138070+1046753684+1046648785+1049236058+1053685693+1057977761
1068+1059769196+1058458319+1056265546+1056177306+1059113539+1062886931
1060+1063931268+1061253790+1058241173+1058889119+1062939671+1066574846
1051+1067404874+1066373340+1065102182+1064327659+1064000958+1063367707
1043+1062231419+1061863690+1063736164+1067825926+1072166515+1073741823
1034+1070683958+1064326422+1058241100+1054933936+1054211644+1054824891
1025+1056223645+1057396378+1056296317+1052887528+1050576325+1052004831
1017+1055178580+1056147480+1054522850+1053483242+1054968854+1057761634
1008+1059605155+1059334759+1057485273+1055611199+1054911531+1055537944
1000+1056920184+1058334506+1059118122+1058322139+1054836603+1048717381
991+1041974730+1037337265+1036512984+1038910609+1041462673+1041320382
983+1039043515+1037142452+1036522223+1036070254+1034263542+1030336876
974+1025172732+1020998658+1018852151+1017091487+1013449693+1007761417
965+1001998359+997975086+995364389+992365594+988386769+984458284+981099616
955+977995703+975593350+974753428+974502237+972298989+967143357+961007841
945+956824164+955733997+956639972+958041490+959270456+959987874+960008533
935+959799535+960040396+960574422+960743046+960769453+961709255+963845795
925+965887839+966123826+964030424+960425293+956575592+953660454+952463788
915+952784523+953393841+953152180+952026877+950522424+948639766+946357224
905+944491880+944035619+945115455+947115162+949240427+950493471+949930347
895+947715095+945143244+943349336+942448017+941861687+941351303+941387603
885+942085671+942379127+941359596+939707469+938524988+937725076+936721477
875+935464868+933891088+931712427+929180878+927096423+926292001+927344122
865+930010251+933179999+935941716+937993872+938537427+936675356+933605270
855+932024725+933071681+935589045+937886062+938759302+937619886+935103467
845+932934919+932249654+932676380+933540308+934918912+936732243+937889481
835+937464501+936047124+935054510+935060475+935321850+934989620+934372664
825+934776039+936989035+939872674+941309911+941012817+941074651+943077049
815+945769512+946643479+945254472+943633335+943590706+944684437+945295356
805+945127240+945260219+945687964+944739724+941797161+938845651+938439657
795+941221379+945588884+949038994+950128360+949670063+949431893+950021497
785+950974684+952179498+953560138+954247803+954085434+954648995+956914005
776+959436316+960411544+960251649+960288895+960149805+958632185+956261040
766+954789249+954461093+953476917+950487651+946661447+944553641+945428771
756+948194198+950608118+951134433+949972321+948851601+949618631+952547154
746+956039383+958176215+958375538+957449849+956464145+955766151+954754986
736+952877129+951024442+950877423+952860033+955689404+957772768+958333346
726+957727083+957412385+958190037+958510482+956651247+953326697+950374386
716+948988727+949648603+951672024+952901935+951391444+947608086+944283536
706+943718811+945689855+948095555+948965521+947348748+943553969+939819715
696+938855399+940162639+940051265+936720749+932019923+928093694+925817045
686+925217038+925112648+923305355+918528509+912198835+907249364+905204847
676+904922885+904207722+901999890+898572696+895122659+894157106+897160047
666+901147675+902920632+902284035+900619250+898716805+895501300+890218364
656+884595923+880827114+878913321+877349944+875165464+872190529+868603876
646+865906684+866385278+869780683+873316559+875853201+878442729+880249732
636+878541300+873448447+868486537+866028024+865740606+866525022+867344575
626+866994305+864700197+860887159+857113550+854639324+852915106+850653806
616+847966290+846472021+848295973+854010219+861239176+866527278+868036241
606+864586059+856081798+846018961+838530084+833718030
##END=
