##TITLE=<SNM>
##JCAMP-DX=4.24
##DATA TYPE=INFRARED SPECTRUM
##DATE=3/5/2025
##SAMPLING PROCEDURE=Instrument type and / or accessory
##ORIGIN=Admin
##XUNITS=1/CM
##YUNITS=ABSORBANCE
##RESOLUTION=4
##FIRSTX=4497.3318
##LASTX=599.83466
##DELTAX=-1.4281778
##MAXY=1.7147167
##MINY=0.17429192
##XFACTOR=1
##YFACTOR=1.5969543e-09
##NPOINTS=2730
##FIRSTY=0.19799477
##XYDATA=(X++(Y..Y))
4497+123982736+123915748+124309693+124880936+125450033+125956743+126247012
4487+126060364+125339750+124475598+124033636+124209535+124681804+125007325
4477+125042055+124947522+124909256+124935513+124916646+124831165+124777941
4467+124762172+124607902+124218007+123806221+123710663+123988726+124255676
4457+124023092+123296050+122613684+122277143+121939501+121303996+120748988
4447+120783765+121285894+121675798+121524664+120752730+119518754+118216017
4437+117497298+117896459+119102144+119865017+119180571+117499967+116245919
4427+116252852+117139175+118047864+118532655+118660536+118565537+118147332
4417+117247116+116015089+114963478+114575560+114889418+115517570+116016078
4407+116175881+116025811+115714538+115413185+115246645+115262004+115388215
4397+115436997+115247513+114830100+114328793+113927719+113814133+114052223
4387+114422504+114559437+114276428+113615262+112682210+111642458+110732752
4377+110090556+109670904+109392626+109219611+109140204+109234624+109647035
4367+110317579+110927518+111242737+111238706+110885603+110275683+109869775
4357+110050199+110614696+111226501+111957052+112879961+113630378+113794426
4347+113360218+112615447+111931830+111592565+111608101+111839715+112244801
4337+112743701+113049916+112938000+112482947+111866989+111229142+110807362
4327+110925521+111663378+112639390+113223202+113030237+112246173+111380929
4317+110739302+110347373+110266996+110577941+111064049+111343922+111379567
4307+111493255+111857696+112300871+112630143+112870164+113182593+113725591
4297+114487905+115140039+115270868+114980843+114928841+115464337+116089672
4287+116177775+115812961+115430951+115088802+114600166+114009347+113576277
4277+113555282+114058437+114874684+115519409+115718364+115661902+115639116
4267+115765299+116148821+116827072+117432690+117456979+116966365+116529628
4257+116437708+116567474+116861942+117298539+117615027+117627950+117481015
4247+117238186+116745108+116169816+116122461+116952042+118277919+119351850
4237+119710188+119524268+119367993+119571110+119872557+119819939+119364139
4227+118896461+118821178+119186076+119661257+119887813+119828197+119619622
4217+119210775+118588902+118200425+118534988+119398963+120126472+120366801
4207+120301418+120279145+120441504+120644817+120786312+121057863+121579456
4197+122067728+122237122+122127129+121788022+121208428+120654699+120487040
4187+120695373+121102670+121775211+122750812+123644581+124006884+123898906
4177+123764055+123897012+124301837+124870308+125404246+125587535+125193916
4167+124353605+123544608+123171453+123097523+122867711+122476276+122463884
4157+123064230+123734009+123848799+123549507+123540979+124176316+125088654
4147+125712710+125772167+125224671+124242706+123325181+122964809+123226114
4137+123911839+124837809+125731316+126247040+126266355+126002362+125837969
4127+126070488+126625738+127083012+127122846+126791437+126321361+125971887
4117+125968258+126303828+126658088+126713104+126501897+126352601+126518618
4107+126915614+127268344+127498390+127840754+128515627+129396360+130080499
4097+130270608+130049091+129716161+129418586+129114433+128865604+128906744
4087+129327870+129866082+130138901+129983699+129504142+128923643+128510560
4077+128558717+129171464+129958813+130242531+129799403+129159651+128950628
4067+129236604+129664999+129914771+129836559+129427983+128861545+128440913
4057+128401089+128681933+128988810+129182587+129390229+129599524+129588298
4047+129456162+129621349+130076916+130275955+129903508+129221768+128621347
4037+128307144+128409356+129001342+129913493+130762538+131264909+131423946
4027+131417769+131410650+131453329+131495646+131491997+131478038+131543159
4017+131757921+132047975+132136582+131861859+131546835+131642506+132029938
4007+132202486+132115708+132304222+133131704+134279630+135042027+135081078
3997+134797248+134770505+135006215+135084194+134828086+134379872+133916412
3987+133702396+134031603+134737781+135112056+134643837+133718511+133409095
3977+134485135+136524404+138096909+138084498+136749682+135282851+134573397
3967+134704824+135339107+136175565+137027839+137708236+138019760+137903104
3957+137518303+137168886+137208347+137957214+139440888+141027455+141707217
3947+141252975+140667950+140857099+141401086+141253386+140225466+139021059
3937+138356982+138778883+140560793+143035866+144582113+144259326+143083790
3927+142700053+143381485+143952738+143578491+143035129+143565605+145027770
3917+145803278+144649735+142172432+139891370+138604020+138338647+139410544
3907+142648256+148151878+154136139+157940234+158615760+156967627+153635009
3897+149500794+146640398+146830013+149437539+151283908+150256137+148768461
3887+150019251+153214126+155100963+155251248+155555196+155467382+153474703
3878+151329770+151627382+154145022+157273311+160315380+162333337+161898438
3868+160298865+160286492+161469120+160684869+156940679+153069943+152123650
3858+155453805+163318615+173755287+179151658+173366297+162934831+155214727
3848+152000547+152720069+156105799+160732046+165599556+170129657+173245293
3838+173436447+170853499+167600810+165093182+163280432+162000314+161563941
3828+161880859+162621291+164803940+169839930+175751428+177599841+175253620
3818+172975739+171121933+167172817+161952670+158740515+159265028+163181878
3808+168147979+171464063+173866307+177705859+181530239+181508647+178431008
3798+175760236+173726137+171222745+169027444+168480386+169502689+171342760
3788+173842998+177006838+180236722+183266475+186921031+191430828+195088780
3778+196532564+197216413+199667253+205201312+213473214+222464815+229736416
3768+234953185+239493140+244286225+250259476+258971819+270785857+283378566
3758+294017702+303443119+315094275+331331799+350616823+366991661+377074577
3748+385460746+396609932+408562106+415534071+418189633+422797573+432704954
3738+447766250+465508190+481444061+491322367+494787336+495077008+494876130
3728+494535138+493817809+493715579+495547849+498731284+501130766+501827305
3718+502259666+504706661+510849027+520949821+532445000+540576135+544064095
3708+546246203+550107179+556462066+563900692+569458415+571778696+572529840
3698+573313569+574465013+576737257+581928907+591420873+603459265+611537922
3688+610514238+604227131+599205753+598030272+600021393+603612181+608718807
3678+615939797+621971832+620753765+614466210+610584594+610485237+609764512
3668+605990874+602118775+600801949+601480536+603029032+606439582+612685111
3658+619105652+621561269+621350948+624321487+633415579+645711731+653344479
3648+651387285+644284612+638146763+635172791+635217878+637827569+642655870
3638+648527375+653193168+655743588+658595959+664455222+671364557+673200298
3628+668881096+664871757+664466195+666376584+669592341+674164152+678864357
3618+681596694+682465521+682749705+682956928+683867856+686749116+691357056
3608+695668271+698589616+700940801+703225326+704745903+705217380+705772312
3598+707781162+710587176+711318054+708820186+706548053+708448514+713401925
3588+715999746+714090402+711533936+710885619+710626441+709337197+707711814
3578+706484005+705421766+704433427+703723003+703689636+705618761+710694371
3568+717215985+720124789+716481897+709639969+704684842+703731588+705941464
3558+709715886+713794274+716630820+716761677+714674671+712952470+713533230
3548+715546559+716251907+714141685+710739533+708608186+708427314+708804659
3538+708505022+707861184+707660829+708077514+708941862+709417369+707763843
3528+703357975+698467418+696379964+698385156+703124850+707865514+710275073
3518+709805986+707728236+705773880+704825105+704902739+705751336+706915171
3508+707932772+708975454+710309486+711048053+710001564+707832146+706575673
3498+706947718+707651872+707532286+707325884+708660887+711883288+715422793
3488+717202025+716489063+713927969+710229165+706266780+703738978+703806758
3478+705575466+707084622+707133815+705744543+703896410+703181209+704821820
3468+708612814+712669927+714255598+711714360+706015664+700164762+697042688
3458+697662863+701297320+706540215+711515647+713953125+712982553+710497972
3448+709189768+709999250+712355884+715597021+718424236+718388181+714445950
3438+708774054+705064725+705289042+707669190+709055551+709268596+710379357
3428+712164710+712228982+710745654+710969971+714405043+718374819+719681978
3418+719167579+719765210+721110440+719867478+715714591+712853487+714228800
3408+717632669+718736936+716341634+712762267+710073151+708536375+707637241
3398+706715638+705165275+703214651+702218699+703079986+704968504+706301342
3388+706251253+705229622+704479634+705129967+707245563+709603466+710505959
3378+709540389+708123646+707503845+707346487+707090967+707063721+707334021
3368+707373808+707286395+707750332+708401635+708056389+706858140+706424884
3358+707956734+710914955+713754114+715135398+714379812+711995633+709754330
3348+709447602+711571931+715390172+719625544+722278978+721214275+717022870
3338+713472392+713069742+713927147+712688888+709363175+707169572+708327211
3328+711857012+715374794+717728816+718631010+717040786+712638650+707837297
3318+705518509+706067843+708431270+711710702+714530302+715482287+714741855
3308+713453730+711969432+710408320+710043292+712063786+715340605+716999954
3298+715680403+713287863+712584157+713967457+715384573+714980355+713305106
3288+712335729+712877896+713688125+713412525+712632230+712593115+713058171
3278+712810639+711365829+709261579+707675460+707953673+710502003+714275380
3268+717545256+719082779+718847788+717750016+716688672+715771996+714495815
3258+712552133+710505810+709650569+710728485+712696129+713423797+711903219
3248+709261206+707484436+707472343+708448365+708801748+707281618+704247256
3238+702086497+703117683+706658457+709270014+708322060+704428053+700124079
3228+697520584+697620164+700619890+705739467+710710868+712738230+710972509
3218+707341038+704438802+703324906+703362902+703530710+703387984+702672931
3208+700800090+697716759+694934333+694555569+697041270+700599437+703280416
3198+704798082+705380336+704507329+702381506+700866377+701213416+702208621
3188+701940262+700357503+698857752+698110526+697353373+695748816+693680771
3178+692251413+692079498+692812466+693106355+691323688+687380114+683397649
3168+681430080+681614609+682846150+683836280+683499767+681689033+679625541
3158+678442073+677783082+676641491+674997595+673845256+673649828+673652216
3148+673103927+672352223+671998989+671901574+671754069+671736975+671974355
3138+672067665+671432337+669752759+667510635+666025216+666209746+667436062
3128+668005326+666642554+663535186+660264414+658794000+659950370+662563495
3118+664310778+663605878+660810314+657718174+656008140+656003736+656582182
3108+656629658+656361075+656516716+656911230+656748124+655723657+654016534
3098+652019628+650651854+650759049+651809867+652439448+652252529+651768662
3088+650990756+649521760+647609505+645950977+644912028+644451525+644479070
3078+645029225+646079670+646971788+646538755+644707567+643183780+643311129
3068+643984528+642924453+639662041+636002428+633739551+632937310+632603037
3058+632446948+633156178+634822618+636204798+636299900+635718467+635498256
3048+635342764+634104878+631502428+628435519+626018607+624932816+625177363
3038+626005581+626461605+626031372+624673788+622788331+621261222+620680312
3028+620443902+619396293+617283310+614957206+613330442+612661336+612651370
3018+612764200+612547535+612006226+611546954+611153299+609889137+607162771
3008+604209738+602962334+603798726+605581094+607203566+608027642+607617676
2998+605999197+603813954+601887852+600668329+599884638+598941425+597918413
2988+597508820+597678158+597447272+596356069+594976054+593642879+591888131
2978+589565350+587531866+586592311+586450591+586312008+586012035+585913910
2968+585974972+585540746+584227204+582712038+582154418+582692891+583063742
2958+582084436+580034045+578094132+576915517+576122793+574887296+572876057
2948+570657037+569092976+568571076+568988395+570016147+571040913+571329651
2938+570688239+569603008+568550062+567583969+566575961+565417202+564095934
2928+562924970+562427964+562605738+562508434+560947771+557811700+554446424
2918+552368823+551838973+552107929+552534803+552789091+552543910+551682399
2908+550374829+548770459+547108013+545806004+544917881+544014380+542853008
2898+541577051+540379475+539526884+539258077+539247925+538752263+537552559
2888+536184487+535080519+534029402+532698654+531320056+530442533+530168724
2878+530077243+529798956+529254810+528429988+527289368+525923200+524650341
2868+523864560+523656330+523664541+523385992+522592112+521463846+520355138
2858+519413940+518564820+517782436+517023005+516058666+514867883+513884957
2848+513393960+513177369+513007023+512788528+512189180+510896652+509238349
2838+507904540+507160039+506696812+506100599+505273650+504449238+503866611
2828+503460452+502864277+501765310+500288327+498895845+497869287+497073951
2818+496266298+495428674+494739263+494301192+493983267+493601965+493158967
2808+492692268+491997072+490801362+489220469+487733931+486575806+485406185
2798+483908301+482511601+481932557+482086817+482111488+481412149+480134700
2788+478743450+477572971+476636475+475655303+474402450+473007878+471797537
2778+470925687+470243032+469487968+468569090+467551639+466398068+464972816
2768+463288199+461579359+460241258+459629407+459645568+459672628+459145651
2758+457992229+456497069+455024415+453791120+452740637+451777008+451020115
2748+450577938+450261916+449742591+448808820+447464561+445953799+444586213
2738+443448653+442429075+441439766+440423248+439287257+438024961+436772929
2728+435636452+434602131+433717292+433115965+432694168+432017895+430858986
2718+429604976+428789075+428397770+427936372+427036976+425785131+424535563
2708+423543007+422746178+421871379+420774204+419653926+418824438+418277568
2698+417642426+416632776+415353908+414118635+413136604+412373367+411578180
2688+410549569+409466652+408746785+408467602+408193458+407524612+406564491
2678+405677413+404985053+404269553+403314844+402257904+401493883+401116613
2668+400662977+399719279+398537714+397667133+397199427+396765909+396078029
2658+395155604+394171335+393264437+392449954+391704744+391105097+390696475
2648+390264077+389496734+388404971+387357773+386669706+386311508+386046732
2638+385674612+385072987+384228346+383383519+382926785+382914394+382906780
2628+382480503+381696327+380838884+379937212+378883109+377852146+377203904
2618+376996308+376899639+376558946+375870842+375026350+374362805+373985348
2608+373591729+372932962+372237990+371816976+371521295+370996222+370268778
2598+369720713+369552942+369532227+369295444+368747342+368071107+367473700
2588+367035218+366678065+366209089+365547896+364882932+364406193+364038814
2578+363651578+363324321+363122585+362902299+362592660+362378980+362358975
2568+362292127+361931839+361382729+360930288+360732733+360823169+361139750
2558+361391277+361178567+360435746+359531872+358851083+358467318+358216352
2548+357906451+357529778+357338679+357532503+357875323+357887229+357394628
2538+356648112+356001698+355747671+356071195+356801924+357354206+357279222
2528+356787405+356447869+356504564+356722685+356754522+356455035+355944816
2518+355485769+355223382+355038740+354735409+354311371+353934922+353717510
2508+353616175+353527120+353376443+353118535+352734994+352266877+351786891
2498+351345199+350993496+350802509+350789297+350889399+351017644+351071615
2488+350911682+350450731+349754266+349006779+348406349+348095739+348104174
2478+348293593+348418703+348319198+348045090+347753030+347528191+347349036
2468+347146479+346868154+346552842+346296911+346101334+345902584+345764261
2458+345786917+345850666+345741158+345466827+345186374+344964260+344795966
2448+344664623+344451839+344058781+343663408+343548823+343654861+343610109
2438+343252994+342839108+342661708+342701607+342736729+342607028+342269993
2428+341767650+341260455+340951151+340863514+340806745+340630165+340396816
2418+340273796+340382969+340764755+341356340+341998200+342507411+342723889
2408+342550632+342081246+341625782+341434907+341423411+341322972+341066781
2398+340833394+340725080+340655508+340601836+340687569+340903339+341000568
2388+340765241+340157121+339130899+337576655+335483528+332954122+330036695
2378+326708817+323041813+319221483+315373272+311556991+308004778+305109298
2368+303016432+301450468+300051006+298743623+297903965+298299375+300583153
2358+304687070+309965143+316027001+323125606+331317989+339402580+345388596
2348+347938531+347271626+345136211+343356792+341997640+339940008+336690473
2338+332568528+327956445+323120119+318488105+314731860+312399934+311411111
2328+311072246+310714776+310232028+310016837+310456644+311513901+312835878
2318+314145650+315346697+316412445+317393916+318409202+319506302+320674243
2308+321974498+323423787+324771667+325663448+326048370+326216514+326427730
2298+326707809+327018494+327441822+328107495+328977926+329751167+330066181
2288+329890012+329618405+329664762+330009448+330274001+330181885+329819544
2278+329457614+329227400+329029322+328732335+328407019+328282133+328421352
2268+328563257+328450390+328202783+328106300+328146797+328075993+327840143
2258+327623478+327538790+327536923+327574919+327668975+327765943+327721416
2248+327506243+327328208+327417375+327780238+328279745+328823144+329340715
2238+329720897+329904307+329987241+330160834+330538777+331059670+331593775
2228+332103285+332615257+333124991+333647638+334268634+335029221+335867965
2218+336790688+337969154+339517389+341279788+343009940+344682613+346461137
2208+348425757+350483016+352512170+354509188+356573912+358784870+361152179
2198+363691888+366432361+369338367+372303755+375164299+377710166+379848119
2188+381728836+383569728+385459178+387392409+389312615+391110435+392714879
2178+394103704+395203193+395925784+396278010+396365012+396368073+396456531
2168+396602729+396584253+396262745+395768725+395326623+394965290+394586750
2158+394279163+394214854+394262256+394114751+393690901+393086999+392408300
2148+391719002+390917880+390183047+390747683+394110049+400190083+407356281
2138+414280023+420743375+426971025+433191658+439530273+445873777+452079593
2128+458145220+464030983+469667086+474977911+479684648+483511024+486492126
2118+488620337+489607593+489295714+487880539+485890650+484323530+484350067
2108+486598126+491103873+497935462+507223154+518232152+528786208+536097410
2098+538112679+534221322+525608223+514774685+503678536+492683124+481518672
2088+470096610+458324972+446272173+434370498+423031221+412656432+403835774
2078+396777293+391022835+386103576+381828640+378022941+374659941+371935554
2068+369870644+368213311+366664591+365006288+363313609+361914148+360887627
2058+360033543+359300576+358704587+358162158+357762493+357665749+357795935
2048+358201124+359281018+361301363+364294221+368478236+374261881+382055644
2038+392280130+405114754+420214531+436891059+454192091+470667928+484559827
2028+494335418+499082427+498878601+494795473+488286848+480609386+472478289
2018+463966823+455005977+445932450+437239851+429084942+421317790+413801754
2008+406600359+399845807+393452961+387221914+381275872+376005843+371537046
1998+367684841+364441614+362018655+360293131+358621466+356459178+353923837
1988+351498638+349490946+347948235+346758011+345715516+344715421+343841369
1978+343160132+342605087+342095130+341596967+341171624+341051665+341384706
1968+341820911+341738948+341002546+340095201+339430125+338959470+338519832
1958+338146853+337880099+337585016+337163741+336721414+336413305+336306148
1948+336479033+337124252+338287975+339393996+339436247+338134872+336410282
1938+335249470+334795909+334705361+334722381+334733765+334666208+334531880
1928+334560619+335180756+336517402+337970460+338917294+339627718+340475271
1918+340715637+339422623+337261828+335844264+335853035+336640683+337158291
1908+336997014+336584548+336451637+336565960+336546925+336298907+336155023
1898+336446076+337051881+337506188+337735320+338313356+339438262+340201425
1888+339733681+338489711+337415192+336768405+336378370+336168871+336066864
1878+335959521+335857365+335919099+336590109+338610268+342127490+345551701
1868+346322665+343916875+340522374+338212917+337327257+337168219+337101484
1858+336931660+336755827+336738882+336962676+337473193+338396177+339960685
1848+342505843+346073490+349342023+349811409+346987964+343512209+341651050
1838+341439050+341767948+342101886+343204174+345979098+349582427+351646590
1828+351409807+350465399+349584479+347985857+345709246+344052212+343721297
1818+344248722+345009981+346042437+347720223+349833990+351330792+351375469
1808+350466407+349956263+350872940+353359872+356556033+358909831+359412697
1798+358832645+359181736+361943746+366562734+369960333+369301864+366042027
1788+363758921+363891048+365560810+367584738+369577875+371277010+372300918
1778+373162243+375416497+380289400+387056792+392365341+393145560+390493283
1768+387250429+385013791+384860427+387294359+390819942+392940577+393525481
1758+394236316+395427248+396874335+399698489+404938660+411087482+414800282
1748+414898854+413352635+412303459+412639076+414304657+416414953+417868945
1738+419367688+423319362+430143411+435360964+434556745+430541770+427320676
1728+425774344+425932747+427731762+430519562+434240835+440371294+449980046
1718+460549592+465967014+463954170+459041219+455564119+454992652+457562742
1708+463003044+469808805+475749434+481007371+488312489+498174037+506202941
1698+509184602+508812595+506213541+502753163+501753329+504726891+510355156
1688+517596600+527799923+541079597+550851008+551217044+547519099+546470221
1678+550115315+557523112+565686121+571970392+577364300+583672682+589120486
1668+590885349+591086338+593952594+600053604+606053280+609259146+611444276
1658+616167697+625767380+641062585+658273181+666340006+664975816+665566206
1648+670634500+674116675+671150019+665975426+664037417+666419805+672675598
1638+682064960+691131545+692977065+686617661+679932643+678005756+680112544
1628+683113838+685185839+686795472+687612493+686221728+684087769+684660990
1618+688239610+690390515+687304645+681598112+677087961+674291128+671869848
1608+668781739+665396382+662968086+662272293+663006604+664373930+665967812
1598+667808928+669580323+670391745+669677887+667881038+665867411+664192237
1588+663055499+662330220+661530442+660276432+659062508+659335869+662424127
1578+668006073+672981505+673768891+672226665+673043537+677124314+681291608
1568+682793822+683250966+685538028+691132590+701720349+719861058+743837068
1558+760005878+761637980+760350975+762937376+769124269+777430938+786719376
1548+796384264+806734941+817919810+828796083+837902978+842968137+840318360
1538+832803929+828271682+828830944+830867637+830280084+828331848+829325113
1528+834354441+840967648+847017935+852833529+858255056+861294346+862025372
1518+862547311+862843737+861907727+860913567+862362781+867719589+876628816
1508+885793712+888048302+881105973+873399772+870507166+872113962+876161893
1498+879593457+879263439+875666007+873175903+875000447+880715714+886622901
1488+888259780+884857179+879630408+875925483+874743583+875316357+877250260
1478+881179874+887366916+894611047+899880891+899275795+893026795+886949933
1468+885464589+888092643+891114316+891779578+891977096+895296464+902632636
1458+910612497+912556851+906862709+899161807+893147053+889396444+887576453
1448+886628350+885329178+883731190+882899240+883476492+885571336+889144582
1438+893045382+894303797+891668278+888469093+887692605+888804784+889882252
1428+890439200+891229423+892090113+892292558+892613469+894612242+897508804
1418+898000958+894972119+890875069+887830928+886236001+885540208+885055892
1408+884530669+883799419+882318404+880281263+879417960+881037073+884180496
1398+886739650+887699324+886871329+883905120+879777912+876881648+875950938
1388+874557710+870073685+864358119+862349419+866282542+873721504+880273201
1378+883923259+886300422+889385844+892602422+894440999+895416797+897086521
1368+899821919+903183314+906938476+910407663+911967804+910842561+908651496
1358+907670548+908380524+909468592+909894981+910069359+910660794+911550597
1348+912440624+913460015+914976488+917427999+920998334+924948551+927869300
1338+929105021+929307765+929372858+929455568+929206766+928737306+928983569
1328+930705024+933336512+935508915+936706417+937702742+939250417+941167226
1318+942958850+944540565+945850187+946510821+946472676+946328083+946655265
1308+947473182+948357088+948769144+948433527+947598292+946712296+945837348
1298+944640294+942911076+940960526+939589020+939529451+940584375+941366536
1288+940290337+937050693+932918110+929424439+927060564+925340453+923666698
1278+921753024+919483355+916914272+914410283+912416289+911047171+910050323
1268+909213819+908484434+907593213+906067111+903716449+900682385+897182742
1258+893606809+890345816+887246659+883799120+879893169+875985351+872803036
1248+871011860+870567630+870410720+869515841+868134482+867359488+867814392
1238+869136555+870316142+870540458+870130194+870402509+872186146+874784640
1228+876870824+878101843+879161843+880513194+882046163+883695583+885425623
1218+886902606+888133177+889930923+892745148+895670973+897594351+898702126
1208+900066764+902378609+905590111+909176868+912464810+915201551+917808853
1198+920667046+923541289+926157847+928654297+930939792+932508517+933355249
1188+934226166+935673215+937455583+939082609+940657008+942832770+945812490
1178+948913364+951425191+953329534+955112275+957077680+958864153+959823379
1168+959973869+960270893+961610375+963880492+966248398+968322191+970793410
1158+974382183+978180193+980335651+980621180+980534737+980823102+980832358
1148+980275411+979766685+979718761+980327291+982153626+985332283+988859098
1138+991688552+993638654+994772854+995098095+995158858+996263722+999295770
1128+1003043095+1005083595+1005008425+1005185639+1007573924+1011305796
1120+1013944226+1014197955+1012911697+1011847516+1011886632+1012366767
1111+1012583022+1013229771+1015307446+1018251933+1020597818+1022234846
1103+1024499663+1028012743+1031545306+1033231975+1032386214+1030085491
1094+1028314395+1028266919+1029724419+1031965648+1034282047+1035745668
1085+1035951920+1036187285+1038173218+1041428016+1043669767+1044153784
1077+1044036139+1043546673+1042181138+1041295516+1043524427+1049917647
1068+1058500439+1064709278+1064232278+1057633926+1050934501+1049945491
1060+1055086939+1061684097+1064820205+1063946749+1062600400+1064174649
1051+1068404349+1071353239+1069581472+1064663444+1061305110+1062088838
1043+1066172227+1070992615+1073741823+1073045507+1070465303+1068759524
1034+1068635309+1068980705+1069440312+1070652146+1072255434+1072561565
1025+1070371918+1066285543+1062169159+1059698687+1059608885+1061153500
1017+1061860714+1059874557+1056407983+1054459748+1055759368+1059256622
1008+1062552103+1063785361+1062482307+1059733697+1056664026+1053185956
1000+1049234096+1046170024+1045672794+1047750618+1050437793+1051232047
991+1049000672+1044821957+1040898389+1038780703+1038711952+1040025830
983+1041377554+1040762157+1036884721+1031228500+1027052323+1025450379
974+1023808200+1019280058+1012463735+1006123739+1001859552+999278527+997330216
964+995356153+992918525+989250477+983730190+977296735+972450668+970616943
954+970080299+967919615+963608624+959057193+955714460+953541086+952406811
944+952661808+953993900+954974027+954435368+952729439+951108386+950502394
934+951161759+952747803+954249196+954327278+952635831+950437152+949150222
924+948894627+949090802+949678953+951025974+953087451+954949393+955166320
914+953171877+950372656+948723982+948333872+947685033+946204392+945332206
904+946568226+949098715+950212238+948548784+945495237+942741252+940748451
894+939948524+940768457+942059940+941735595+939075443+935134257+931673133
884+930123293+930464434+931483229+932548081+933644285+933818887+932002927
874+929208483+927590863+927898338+929246703+930449579+930780866+930090373
864+928734991+927290629+926253397+926160833+927601463+930454506+933231408
854+934044846+932551365+929985717+927515021+925621577+924614875+924609501
844+925217134+926221373+927978957+930222948+931434707+930468092+928356676
834+927404243+928791724+931796600+934761764+936222325+935779588+934460933
824+933589419+933209909+932551216+931984041+933098236+936307349+939575807
814+940572879+939669938+939310658+940526150+941808825+941600482+940536377
804+940394396+941508964+942343229+941720068+940404399+939971143+940946791
794+942487150+943436597+943628517+943994291+944820494+944934407+943934125
784+943342615+943901131+944109473+942894653+941486047+941351830+942391601
774+943598135+944030869+943524084+942761257+942139216+941383033+940725982
764+940847882+941283154+940807722+939767578+940083786+942658915+945989107
754+947576047+946648024+944962773+944579456+945618032+946757906+947151450
744+946874357+946071444+944751520+943263414+942348380+942795446+944969492
734+948141729+950524863+950719246+948934937+946521571+945027792+945329966
724+946484919+946156468+943505870+940410595+938611804+937619062+936210829
714+934886128+935549150+938718700+942122047+942613231+939273707+933951237
704+929429516+927332805+927127300+927329969+927441194+927492626+926532505
694+923689540+920141824+918432312+919955950+922829521+922397758+916374941
684+908287438+903096423+901693715+901598613+900816303+898838283+896067876
674+893463933+890344472+883573534+871941525+861452823+861320846+869754864
664+877943739+881569611+880933984+878407228+876041486+874223511+872850662
654+872360150+872144343+869736351+863952333+857657724+854819984+855339906
644+855793990+855353045+856536438+859144710+858493556+852017851+843441330
634+838507850+839590095+844345988+847740526+846604087+843132437+840739524
624+838571599+834366832+829085269+825197233+824124469+826669663+831903825
614+835822690+835232673+832007735+829876313+829943944+831083892+831259763
604+829944093+829582126+832105150+834655272
##END=
