##TITLE=<SNM>
##JCAMP-DX=4.24
##DATA TYPE=INFRARED SPECTRUM
##DATE=2/5/2025
##SAMPLING PROCEDURE=Instrument type and / or accessory
##ORIGIN=Admin
##XUNITS=1/CM
##YUNITS=ABSORBANCE
##RESOLUTION=4
##FIRSTX=4497.3318
##LASTX=599.83466
##DELTAX=-1.4281778
##MAXY=1.8110005
##MINY=0.28919831
##XFACTOR=1
##YFACTOR=1.6866256e-09
##NPOINTS=2730
##FIRSTY=0.30340618
##XYDATA=(X++(Y..Y))
4497+179889464+179019174+179432453+180292353+180578851+180141612+179582134
4487+179540645+180274666+181564454+182858820+183688222+183928761+183739111
4477+183540520+183843522+184604701+185015524+184400067+183028591+181812786
4467+181573643+182586298+184378881+185957801+186535090+186094689+185169852
4457+184193507+183282842+182578877+182269497+182111494+181541908+180584841
4447+180070898+180607512+181806584+182793866+183131199+183011663+182814698
4437+182783635+182984028+183186382+182870641+181826091+180728532+180564344
4427+181442886+182444516+182708291+182279728+181736276+181337786+180857521
4417+180125957+179396937+178993853+178842724+178682034+178484875+178295225
4407+177941352+177314958+176676566+176369006+176514605+177060796+177656656
4397+177585483+176542541+175428195+175557114+177038108+178611108+179187991
4387+178928652+178510567+178058043+177365776+176614050+176182536+176061039
4377+176063371+176347025+177131740+178086156+178448758+177757498+176314088
4367+174961377+174386508+174550731+174913280+175082804+175021313+174919323
4357+175109697+175785196+176638523+177082159+176845578+176157180+175492107
4347+175201333+175139913+174810371+174126038+173653654+173808282+174291250
4337+174549406+174353077+173868236+173508832+173594654+173925468+173997525
4327+173769285+173697227+173869720+173749936+173052192+172247386+171847501
4317+171745069+171609312+171465621+171560932+171957795+172474513+172878126
4307+173040547+172997009+172913696+173002663+173396629+173925291+174144874
4297+173885287+173587657+173707617+174032671+174167332+174422042+175358700
4287+176588553+176998068+176204659+174904039+173800808+173104689+173006480
4277+173710904+174872321+175686793+175742947+175377377+175044602+174668659
4267+173913028+172966034+172569435+173070992+173904706+174359297+174473090
4257+174755330+175414183+176263694+177021728+177368391+177097496+176481615
4247+176155254+176455605+177109759+177614390+177703552+177445290+177066715
4237+176721889+176413551+176165291+176085812+176081324+175828999+175343363
4227+175174846+175685521+176486457+176950589+176959318+176777090+176453662
4217+175764027+174798709+174265541+174823959+176189993+177299197+177407318
4207+176767442+176250583+176523899+177513761+178467735+178564707+177601173
4197+176209889+175364036+175499758+176132814+176513456+176570388+176879468
4187+177782077+178898489+179557290+179496347+178992051+178416457+177992117
4177+177911296+178223344+178602061+178691081+178606708+178659841+178815353
4167+178884018+178954167+179169597+179285900+178885272+178000846+177187029
4157+176919897+177185562+177698764+178224758+178600365+178733171+178685798
4147+178570414+178385147+178169292+178172968+178533078+178899585+178787823
4137+178278368+177965401+178194366+178689597+178974310+178945897+178943424
4127+179304877+179880806+180042909+179347337+178159680+177361712+177419369
4117+177986498+178448175+178568983+178494417+178366947+178172190+177860955
4107+177470276+177168723+177186817+177586967+178132274+178504930+178603174
4097+178517758+178335972+178103066+177916438+177935592+178219881+178568488
4087+178679737+178552356+178500124+178647596+178717498+178475863+178097624
4077+177943579+178135472+178420380+178448758+178190903+177949533+177906119
4067+177909334+177817045+177722158+177731523+177827735+178031662+178420681
4057+178865359+178946781+178385270+177573732+177347117+177983247+178730202
4047+178724053+178139360+177834768+178050322+178192033+177834715+177213745
4037+176684977+176357167+176352149+176804407+177422673+177591437+177150311
4027+176665098+176758483+177519769+178634379+179745332+180632532+181265128
4017+181644516+181577071+180873495+179728157+178586847+177763841+177431013
4007+177660827+178239954+178802860+179286765+179909572+180627266+180966968
3997+180594577+179859850+179476875+179714657+180246959+180764013+181280978
3987+181819235+182242550+182475756+182553751+182455030+182194842+182064987
3977+182408222+183068560+183413262+183077536+182361309+181714577+181245285
3967+180993862+181284618+182370126+183886459+185014287+185217966+184665962
3957+183930086+183494791+183611199+184376178+185643897+186847952+187307896
3947+186987879+186563079+186501094+186635207+186741279+186847634+186909496
3937+186935753+187390149+188693561+190334979+191109110+190461194+189130235
3927+188205486+187983589+187906443+187673785+188031209+189766330+192271977
3917+193789335+193287495+191521930+189940112+189272424+189278591+189510347
3907+190186305+191967385+194794269+197487587+198894332+198659094+196806098
3897+193957251+191597980+191011237+192064975+193111451+192859321+192458534
3887+193757971+196494509+198769618+199972949+200768973+200569587+198745658
3878+196979598+197095406+198817486+201006543+203108983+204384000+203974662
3868+202901699+202987839+204051313+204254357+202744032+200649119+199613793
3858+200884869+205167779+211365900+214623538+211285785+205250739+200885417
3848+199364931+200381846+202841304+205351351+207564845+210331899+213553244
3838+215170984+214042202+211824307+210120127+208724072+207182312+206083092
3828+206058036+206926153+208623655+211556805+214952779+216547125+216029594
3818+215261541+214478593+212625739+210256167+209020854+209713775+211975614
3808+214518120+216307840+218200487+221364935+224480384+225071332+223742582
3798+222778182+222544852+222519390+223008437+224419988+226498380+229150810
3788+232938736+238107433+243817161+249119087+254296389+260276112+267282201
3778+274987997+283483792+293195127+304327095+316623538+329039146+340058558
3768+348803373+354728231+357317421+357691455+358139137+359320150+360146425
3758+360570959+362429609+367388848+375710684+386005881+395285208+401604208
3748+406705936+413397486+422517960+432192524+441070464+450657421+462105678
3738+474913309+487957890+500062546+510190340+518391137+525722051+533184640
3728+541379959+550071164+558120108+564581844+568760220+569897165+568669538
3718+567512944+568272639+570826101+573353128+573294924+569960140+565413455
3708+561112946+557165126+554240740+553020040+552710360+552422943+553201226
3698+556526222+562059305+568061238+573458052+578487510+582742679+583827569
3688+580430163+574986524+570495004+568386398+569387851+573630155+580013580
3678+586212248+589159145+587612544+584400812+581945524+579632230+576327237
3668+572830703+570576639+569839597+570057253+570219179+569772310+569271336
3658+569034879+568193797+566687907+566469649+568863588+572370123+573498940
3648+571324530+568722724+567258005+566302776+565346381+564316797+562836210
3638+560933845+559673848+559859027+561289079+563898871+567556306+570349405
3628+570442313+569614660+570057112+571619404+573655918+576355509+579637566
3618+582809541+586051807+589978494+594106864+597029023+598010403+597757018
3608+597446242+597388921+597113273+596795570+597637359+600483114+604615937
3598+608360236+610605430+611532529+612240734+613887771+616706102+619258256
3588+619273594+616479081+613476347+612661346+614449811+617941998+621796698
3578+624910822+626624510+626528598+624822756+622713407+621561125+621866530
3568+623091046+624165016+624796040+625686173+626689464+626095900+622779210
3558+617983840+613770585+611016571+609839551+610503087+612848999+615573045
3548+616825550+615802116+613566251+611543131+609781665+607829294+606304886
3538+606314569+607770136+609317515+609785764+609173541+608379955+608082608
3528+607716773+606035245+602942537+599820779+597834836+596922509+596648769
3518+597071996+598200318+599202549+598847598+596774790+593939990+591679176
3508+590718010+591123849+592387522+593271931+592593093+590599410+588654602
3498+587628835+587291696+586948301+586481925+586489346+586854616+586014135
3488+583105122+579975802+579090545+580590569+582641996+583404801+582243543
3478+580077580+578590596+578401918+578400540+577401702+575783396+574888492
3468+575134420+575250793+573764976+570750722+567371162+564537422+562832853
3458+562504902+562770903+562404785+561544054+561631448+563258801+565120879
3448+565347158+563506920+561038627+559606384+559542349+560014945+560091880
3438+559288469+557582522+555453206+553554269+552045481+550487995+548465546
3428+546210456+544500091+543838358+543993110+544296111+544196666+543459058
3418+542201640+541172799+541125691+541562771+541390985+540986206+541609101
3408+542786758+542755376+541358968+539925453+538788402+537344780+535695658
3398+534371166+533383319+532619277+532281148+532445230+532826826+533070104
3388+532979705+532538102+531866791+531252483+530948492+530858270+530755715
3378+530749177+531016592+531296764+531280119+531112680+530835406+529942198
3368+528246605+526582216+526029505+526884476+528500025+529621173+529090514
3358+527066828+525210934+524885209+525691270+526290453+526124639+525522029
3348+524651473+523441976+522109109+521121685+520863070+521426242+522405537
3338+522994825+522743631+522108048+521890498+522288139+522725077+522444340
3328+521184166+519532288+518469450+518226702+518023252+517449585+517218358
3318+517639040+517546238+515876620+513224101+511089379+510536420+511565615
3308+513060621+513800349+513775258+513666906+513349910+512184411+510447930
3298+509291230+509462874+510658059+511910883+512381535+511914169+511114293
3288+510923000+511830838+513392141+514676770+515268108+515566798+516023951
3278+516494957+516481740+515650694+514074018+512223991+510826346+510356294
3268+510566742+510820975+510770828+510455740+510118424+510115809+510588051
3258+511213668+511546814+511403442+510765633+509702972+508644480+508284158
3248+508914616+509937167+510183837+508967166+506767666+504684433+503468044
3238+503155678+503213317+502993823+502324067+501471429+500534824+499442159
3228+498525733+498358577+498810782+498906234+498005216+496579618+495474867
3218+494954068+494798503+494765743+494446803+493287877+491341549+489456925
3208+488347545+487963156+487899969+487919441+487929725+487849928+487634463
3198+487163315+486151048+484527407+482935888+482330592+482784600+483253061
3188+482900690+481940196+480731405+479037438+476772206+474560832+472950902
3178+471717197+470348707+468823238+467607168+466999292+466643670+465901503
3168+464677375+463462895+462590326+461934812+461289935+460608517+459961555
3158+459489030+459182883+458693995+457684167+456306877+455040907+454061047
3148+453037047+451703720+450341520+449405976+448929139+448592070+448143434
3138+447540788+446947683+446629769+446615809+446565521+446078931+444925411
3128+443144473+441272429+440132869+440050493+440496160+440582989+439787531
3118+438360236+437085466+436475576+436364928+436345809+436162502+435621171
3108+434630461+433442097+432541750+432225602+432240869+431854961+430623129
3098+429075679+428148899+428010650+427955627+427406591+426521970+425769131
3088+425364846+425278406+425432098+425629363+425491610+424819309+423914510
3078+423246627+422901536+422596202+422109682+421491946+420929128+420487631
3068+419943649+418965908+417616926+416466128+415907091+415618154+415081699
3058+414374802+413970093+413900545+413656914+412971785+412169152+411556965
3048+410943222+410023368+408954805+408231333+408052480+408019543+407540480
3038+406493262+405358296+404702570+404690696+405003593+405037095+404337618
3028+403054014+401824409+401092597+400668309+400007035+398856378+397594013
3018+396836121+396707272+396710524+396321329+395423067+394212439+392986014
3008+391973959+391200235+390535179+389861041+389126084+388361123+387708012
2998+387293090+387033981+386698113+386161729+385501091+384798999+384024144
2988+383215221+382522706+381909812+381155594+380267581+379496931+378950899
2978+378565769+378301817+378080026+377769356+377349027+376861871+376343863
2968+375939472+375767262+375614984+375121502+374244126+373261757+372368584
2958+371484458+370528911+369757448+369553680+369845267+370039776+369665283
2948+368829926+367961137+367268764+366602295+365871579+365367000+365334028
2938+365437326+365085344+364152237+363053706+362294471+362120176+362361298
2928+362505236+362070771+360987719+359627923+358461858+357638763+356960526
2918+356297626+355783011+355479444+355202382+354818417+354386921+353921994
2908+353311573+352567321+351907496+351463949+351107125+350696232+350316367
2898+350093515+349929080+349648095+349304983+349032268+348645794+347842843
2888+346813225+346107882+345822939+345498274+344917574+344405221+344189932
2878+343994539+343468333+342720548+342174021+341994390+341964139+341946929
2868+342072950+342299335+342230034+341596996+340542993+339336076+338180471
2858+337291928+336775476+336462968+336134133+335801163+335571633+335380905
2848+335087162+334734120+334516711+334489888+334418326+333975450+333137796
2838+332308658+331886916+331790651+331632683+331264374+330842773+330438558
2828+329881713+329030311+328047906+327322703+327059988+327024719+326826712
2818+326354469+325752000+325135465+324550171+324039444+323590525+323147755
2808+322716471+322326534+321925995+321416328+320750141+319961291+319168271
2798+318522970+318086844+317780839+317447375+316939828+316273394+315704179
2788+315444221+315315232+314983040+314487543+314173834+314123404+314011484
2778+313529947+312668827+311607120+310565097+309741508+309200777+308805893
2768+308365809+307839779+307329582+306913105+306550839+306123124+305530585
2758+304793896+304080884+303590124+303347835+303136187+302697552+302004260
2748+301253895+300634922+300194308+299869855+299536815+299076057+298472210
2738+297820053+297232497+296734810+296205653+295515135+294780549+294265121
2728+293963763+293597963+293060024+292528834+292156744+291917901+291688848
2718+291332324+290828170+290303041+289786147+289129856+288336394+287662556
2708+287255321+286996423+286782194+286663506+286661881+286653399+286468767
2698+286028401+285389249+284681115+284005599+283420145+282969495+282640484
2688+282333277+281980022+281643307+281404393+281194264+280839755+280288511
2678+279717352+279365617+279283294+279278134+279113169+278735142+278283449
2668+277878793+277486488+277056034+276681152+276451639+276240892+275851043
2658+275310842+274831938+274502449+274217170+273934896+273794544+273822074
2648+273725243+273272349+272691402+272324559+272106107+271806958+271529224
2638+271489661+271559068+271438613+271106086+270789743+270630963+270558022
2628+270435535+270230212+269966649+269568584+268941554+268247308+267840761
2618+267819222+267860763+267643831+267246880+266971372+266906312+266857031
2608+266657574+266383498+266224134+266237316+266295308+266247830+266062862
2598+265784033+265465235+265218511+265159512+265199658+265086659+264748477
2588+264371952+264072290+263758527+263411793+263229158+263360815+263681222
2578+263925577+263941639+263744568+263440153+263182156+263131444+263350903
2568+263726863+264030147+264089500+263929147+263732606+263658074+263699475
2558+263733860+263695022+263671433+263787488+263996097+264067519+263806112
2548+263237922+262604107+262183778+262041412+261937266+261595162+261044553
2538+260570084+260360732+260344812+260342391+260237857+260003767+259672388
2528+259320406+259016786+258776282+258604602+258539330+258583363+258654714
2518+258654060+258547229+258385108+258269972+258255536+258270802+258222140
2508+258140912+258122535+258136848+258008671+257630944+257147887+256829884
2498+256761573+256777687+256736888+256699216+256777104+256960022+257154814
2488+257294529+257311615+257053301+256394642+255507636+254835636+254653991
2478+254801374+254951992+254980016+254936265+254815139+254517986+254042739
2468+253576663+253296756+253167254+253069487+253018528+253075354+253161759
2458+253146333+253036657+252950057+252917615+252796418+252442987+251968182
2448+251679617+251709284+251870292+251946501+251922771+251861969+251750985
2438+251544867+251255984+250971942+250798071+250725925+250602802+250339469
2428+250074740+250005493+250132609+250293616+250380392+250418453+250460666
2418+250495193+250487701+250467363+250506661+250615454+250704722+250682670
2408+250565784+250460048+250421528+250391471+250325740+250329079+250551295
2398+250985795+251494526+252060118+252944156+254592765+257486264+262123206
2388+269043138+278765428+291742935+308360861+328803007+352818056+379711266
2378+408611128+438591993+468438991+496676059+522410343+545817233+566824459
2368+583740492+594626709+599785722+601270550+600242380+596108851+587872431
2358+575344337+558849870+538058640+512823068+486590920+466042861+456149651
2348+458134004+470363161+488364790+505636304+517677348+524030875+526365620
2338+526840195+526918260+526948370+526999753+527093050+526669081+524945640
2328+521660331+516863584+510524263+502803201+494262507+485445034+476407819
2318+466854117+456696496+446357618+436361076+426648451+416580981+405727842
2308+394351995+382998978+371971509+361379458+351398571+342243817+333979408
2298+326469181+319498060+312903340+306599395+300536466+294698720+289142454
2288+284013038+279519115+275834168+272961202+270720708+268889658+267289358
2278+265769632+264250719+262780098+261432776+260211794+259128759+258243750
2268+257543090+256942511+256448853+256125319+255886759+255524970+254947291
2258+254258117+253612074+253068021+252583586+252111537+251658307+251232960
2248+250807542+250385976+250051045+249859840+249719949+249465610+249081539
2238+248749966+248613343+248588252+248496934+248298202+248121062+248121875
2228+248321190+248556799+248642410+248562736+248431202+248308698+248178701
2218+248053175+247995501+248047856+248188031+248370931+248594577+248881358
2208+249202454+249488969+249722741+249968156+250302469+250714634+251078190
2198+251274254+251346524+251467579+251760279+252207166+252691195+253069911
2188+253269898+253356798+253460202+253611791+253732988+253786563+253823051
2178+253868445+253917690+254029151+254231877+254374013+254273330+253952058
2168+253551290+253155486+252847201+252744752+252849445+252994196+253019570
2158+252911696+252767546+252705666+252795270+253001370+253224681+253459424
2148+253856323+254567780+255638922+257115110+259098561+261633593+264690821
2138+268269430+272373504+276924554+281802458+286940198+292372598+298215503
2128+304526092+311213437+318177985+325416874+332881054+340385096+347725940
2118+354737242+361203467+366834229+371344514+374542286+376345559+376722138
2108+375653504+373188074+369515337+364970313+359883392+354384518+348460367
2098+342190595+335776956+329399610+323181257+317206111+311507886+306091389
2088+300941740+296024538+291369820+287090514+283241133+279778419+276681735
2078+273975854+271660210+269688491+267963354+266374540+264916976+263704051
2068+262824767+262243166+261821423+261425355+261031601+260671615+260314402
2058+259948231+259671045+259529404+259428209+259314734+259261583+259324699
2048+259477137+259658835+259822722+259981521+260205910+260564553+261103800
2038+261810097+262559614+263245785+263940438+264784789+265812428+266967343
2028+268148445+269230914+270176672+271049542+271870711+272594677+273183505
2018+273549270+273543828+273146416+272532886+271904495+271372228+270966901
2008+270628277+270217861+269644228+268960125+268285369+267651482+266984501
1998+266287074+265776205+265694235+265962604+266182381+266040545+265563108
1988+264953023+264427064+264172725+264189900+264238651+264141997+264010198
1978+264039547+264252893+264507726+264647600+264661047+264729500+265010644
1968+265380967+265556870+265477957+265386180+265504037+265810114+266170454
1958+266540212+266923275+267262076+267524083+267799714+268172582+268588936
1948+269006331+269584204+270486247+271445770+271825635+271385215+270675756
1938+270360279+270540970+270917779+271244175+271462662+271614287+271780807
1928+272110384+272832636+274032751+275368940+276390378+277179723+278086466
1918+278902245+279091082+278785695+278706552+279252867+280223610+281177213
1908+281841120+282295958+282803487+283463118+284165970+284842811+285570312
1898+286423497+287287851+287885284+288163053+288502861+289152402+289690748
1888+289598229+289066386+288621125+288411155+288295930+288186748+288064420
1878+287932710+287824730+287796688+288064950+289043115+290814123+292493990
1868+292734935+291355454+289567342+288424283+288059490+288126229+288292873
1858+288376822+288378642+288423223+288568345+288793229+289167545+289900912
1848+291266717+293316978+295316421+295898658+294793996+293385201+292793192
1838+292933738+293239743+293567482+294388474+296119301+298252009+299559962
1828+299699695+299555262+299546604+299162639+298260137+297499029+297381807
1818+297762980+298306008+299007923+300099986+301511520+302679246+303127705
1808+303092578+303257083+304108803+305682616+307558794+309010827+309576896
1798+309682491+310370588+312325468+315080294+316956437+316670257+315196420
1788+314421953+315001734+316349126+317781334+319167175+320465516+321425657
1778+322172347+323519316+326271244+330165808+333404857+334242334+333120091
1768+331504542+330351482+330406541+332005904+334271666+335793601+336526791
1758+337402011+338580268+339882602+341904026+345216229+348969823+351323085
1748+351660790+351130131+351054257+352075924+354135127+356474430+358209250
1738+359739172+362608463+367075033+370366349+369859085+367379130+365460332
1728+364605114+364634587+365394388+366623464+368461404+371741377+376907953
1718+382477719+385307112+384388353+382019718+380297443+379956876+381246771
1708+384156985+387904359+391264058+394306195+398401523+403665318+407761352
1698+409162708+408702481+406870901+404576231+403740026+405064695+407798777
1688+411575978+417141149+424076825+428477345+427741433+425201118+424350494
1678+426093549+429718224+433470368+436195969+438865203+442448389+445544101
1668+446348642+446246299+447839584+451523947+455422151+457872421+459651910
1658+462758719+468597136+477505926+487165789+491876944+491984200+493567978
1648+498043100+502221511+503184303+502826772+504137906+507777459+513476638
1638+521092247+529460908+535276920+537055738+538196535+541910195+548546120
1628+556803849+565577502+574802369+584308399+593068021+600794667+609008576
1618+619227723+630368243+639025734+644402369+648680862+653139303+657504873
1608+661177221+663883738+665700263+667094834+668783783+671298760+674755607
1598+678906665+683261774+687373463+691229295+695150221+699161617+702876585
1588+706117083+709119393+712037735+714771040+717344468+720194888+723985553
1578+728817464+733326158+735985179+738306424+743045533+750622834+758944175
1568+765792208+771790254+779071763+788538036+800051248+814057243+830579275
1558+845045816+853102251+857319465+860193209+862011289+862632842+861855371
1548+860185081+859253671+860133344+862375357+864953451+865789585+861463596
1538+853172506+845877639+840748523+835944813+830630518+826507943+825011383
1528+825360750+825876354+826247985+827395249+828864811+828792647+827157626
1518+825543455+824141958+822526374+821479615+822418588+826065280+831909952
1508+837624928+838597544+833130581+826508438+822859979+822555776+824407288
1498+826388920+826762247+825941944+825975376+827883996+830384695+830701197
1488+827690971+823496940+820577537+819575165+819857317+820485160+821110741
1478+822306915+824770084+828286019+831343034+831850581+829510182+826670505
1468+825513841+826278165+827558942+827815720+827409385+827961319+830020627
1458+832103330+831890586+829612031+827455539+826333578+826231305+826731431
1448+826737721+825377854+823224825+821430564+820383947+819947715+819986942
1438+820057621+819342843+817946859+817217945+817694817+818336937+817890103
1428+816507478+815328620+814887864+815048448+815812136+817075173+817809458
1418+816827442+814598999+812424060+810706556+809226251+807803904+806548076
1408+805968225+806461000+807444006+807801289+807397923+807019436+807088772
1398+807452840+807844120+807849421+807208008+806572956+806810791+807586000
1388+807593351+806372297+805416291+806624834+810353443+815426864+820398507
1378+824641377+828333939+831599741+833983961+835077368+835394010+835961494
1368+837350834+839598219+842624136+845998924+848637236+849755805+849808178
1358+849678976+849784076+850228648+850915720+851291522+850734852+849414848
1348+848175277+847541073+847487498+848143048+849876878+852505436+855047130
1338+856542771+856905709+856890160+857387882+858718064+860550068+862554176
1328+864844251+867632968+870750061+873650381+875990568+878240003+881216656
1318+884789488+887763596+889569590+891250694+894147974+898243973+902418709
1308+906005535+909284271+912464904+915145482+917092481+918627986+919850028
1298+920398357+920227950+919832641+919656933+919670009+919339937+918038592
1288+915792267+913363589+911305978+909388947+907252103+905174913+903755110
1278+903076873+902673012+902209074+901755385+901472598+901514793+902223776
1268+903848831+906052749+908191783+909954027+911358210+912527455+913770701
1258+915352643+916986745+918012087+918236847+918317068+919105282+920732599
1248+922479152+923492833+923448941+922532656+921084228+919521582+918433477
1238+918215855+918521896+918429589+917366363+915779615+914698860+914682392
1228+915314546+915583975+914807141+913274816+911861304+911091396+910853278
1218+910919787+911314954+912183106+913545023+915047309+915983313+916075832
1208+916174571+917414142+919757297+922242660+924548991+927202853+930218803
1198+932695542+934100503+935030570+936362236+938501553+941555246+945351071
1188+949278288+952625017+954855298+955703095+955518976+955123172+955137874
1178+956067234+958374343+961391849+963350368+963974253+965367905+968697954
1168+972126459+973584499+973568738+973683238+974560720+976152273+978336896
1158+980744652+982927295+984800011+986307951+987115743+987150234+986856421
1148+986680076+986797262+987288200+988171901+989511484+991358047+993170544
1138+994055730+994037353+994006184+994387851+995097965+996757441+1000627903
1128+1006214030+1010171993+1010062228+1007950264+1007278247+1008491879
1120+1010509557+1013805679+1018949285+1024199051+1027196059+1027911898
1111+1028220836+1029005658+1028854829+1026447850+1023438260+1022859398
1103+1025232451+1028508147+1031367473+1033963589+1035894332+1035945998
1094+1034237188+1033255384+1035500932+1040540568+1045286957+1047196213
1085+1046639756+1046142528+1047723056+1050709533+1052417212+1051793751
1077+1050826507+1050804526+1049326130+1044218500+1038647144+1037464187
1068+1040918136+1045896777+1051269877+1057805226+1063631663+1064919720
1060+1061821287+1058674863+1058311925+1060163578+1062852708+1065968104
1051+1069145769+1070681062+1068273729+1061874509+1055007109+1052113999
1043+1054364989+1058836930+1062022652+1063644173+1065938419+1069935467
1034+1073720195+1073741823+1068076888+1059351474+1053484044+1053976607
1025+1058438158+1061880658+1062200905+1060995896+1060288539+1060245990
1017+1059919452+1058641007+1056877492+1056165258+1057252303+1058833820
1008+1058988396+1057604568+1056500348+1057018779+1058484029+1059465833
1000+1059698297+1060144495+1061242495+1061570800+1059501385+1056065883
991+1054127436+1054687498+1055270247+1052812238+1047735142+1043684943
983+1043199589+1044959571+1045943566+1045147931+1043534750+1041747415
974+1039795115+1037639471+1034597793+1029683471+1023843110+1019754886
965+1018544293+1018951547+1019896527+1021165854+1021363120+1018211395
957+1012060823+1006562903+1004463449+1004286751+1002234228+997096630+991875772
947+989959024+991130814+992108378+990434059+986600774+982223614+978168467
937+975226376+974714376+977057461+980501657+982512055+982321292+980887777
927+978799774+975872455+972765399+971036657+971049591+971472040+971263466
917+970876922+970999197+971258377+970976014+970446627+970622336+971647820
907+972422251+971988705+970649971+969017141+966844252+963955170+961645234
897+961645870+963713659+965557820+965531386+963886187+961503946+959332682
887+958429402+958945996+959262285+957485835+954250073+952568969+954026302
877+956426637+956306200+953388069+950645223+950079083+950911613+951759763
867+952334031+952695414+952718102+952835995+953640111+954477377+954021143
857+952343290+951030990+951394917+953667747+956801732+958768945+958446436
847+956940899+955877955+955613686+956048292+957040133+957175625+955113560
837+952452419+951888470+953430830+955305878+957000764+958531887+958401979
827+955181553+950117745+946056096+944378879+944545258+945698883+947402958
817+949378511+951193411+952507548+953687113+955422923+957697025+959782979
807+960740682+959921369+957954862+956697763+957323768+959072724+960453371
797+960938018+961245896+962347360+964394300+966494036+967170294+965711265
787+963295521+961917702+962118148+962779210+963424652+965021012+967557970
777+968892322+967699187+965495481+964195055+964106211+965042357+966915143
767+968442307+967415339+963539576+959556594+958532947+960948690+964433244
757+966002251+965021931+963742850+964821838+968699297+972775152+973515375
747+970460198+966769402+965424660+967073676+971096098+976057069+979660858
737+980933012+981558169+983141524+984795275+984749404+983335114+982908283
727+984306317+984954586+982141060+976796161+971241909+966281999+963386980
717+964978251+969813978+971917885+967371235+959538924+954079312+952376933
707+952074921+951552744+951622645+952728350+953459031+953138360+953361565
697+955946726+960502634+964097094+963448612+958284157+951511255+945837485
687+942288189+940826332+940058050+937259650+931293339+925038869+922723066
677+925297413+930020407+934180865+936560562+934719087+925124673+910988345
667+904347967+907691728+912409350+914240223+915400422+919048173+924723569
657+928416414+927531935+923444629+918142208+912665703+907668050+902528474
647+895815579+888934891+885950110+888841736+895516676+901710928+903873427
637+902170625+899917373+898056037+893811117+887052069+882282215+882588397
627+885924100+887068961+882595748+874420501+867472951+865030915+866991696
617+870830140+872944508+872749787+874221751+879663410+886077827+890324232
607+892592467+892991027+891501888+890851215+893209355+894938097
##END=
