##TITLE=<SNM>
##JCAMP-DX=4.24
##DATA TYPE=INFRARED SPECTRUM
##DATE=3/5/2025
##SAMPLING PROCEDURE=Instrument type and / or accessory
##ORIGIN=Admin
##XUNITS=1/CM
##YUNITS=ABSORBANCE
##RESOLUTION=4
##FIRSTX=4497.3318
##LASTX=599.83466
##DELTAX=-1.4281778
##MAXY=1.7060775
##MINY=0.17593782
##XFACTOR=1
##YFACTOR=1.5889085e-09
##NPOINTS=2730
##FIRSTY=0.19963636
##XYDATA=(X++(Y..Y))
4497+125643712+124869632+124623237+124970392+125449413+125491775+124854036
4487+123781737+122815047+122431778+122817111+123807715+124930834+125637935
4477+125723286+125488811+125377754+125525189+125746516+125846957+125751130
4467+125373881+124667390+123884279+123459173+123501066+123718960+123946673
4457+124366555+125065346+125729485+125937897+125577492+124853398+123986699
4447+123098158+122342731+121828841+121417437+120985672+120781771+121081808
4437+121719238+122342684+122778153+122882561+122478978+121616743+120630490
4427+119851327+119323567+118873430+118480895+118321352+118308016+118042444
4417+117413548+116752533+116315676+116086612+116022793+116084071+116109879
4407+115918432+115521780+115201241+115273903+115714099+116170378+116398917
4397+116415479+116211427+115662978+114825867+114073423+113807606+114064073
4387+114483449+114739578+114804044+114723663+114522388+114437908+114729243
4377+115089068+114797526+113679978+112474856+112088913+112764671+113954789
4367+114810290+114859667+114330237+113746020+113229757+112470673+111440464
4357+110728731+110878079+111691313+112483193+112790152+112654411+112420331
4347+112351194+112384328+112321390+112218867+112300824+112469548+112318539
4337+111729708+111129126+111012695+111349317+111589475+111365429+111063272
4327+111376795+112321559+113113026+113165647+112801003+112654487+112740288
4317+112635964+112347040+112218896+112170654+111908654+111730636+112190770
4307+113156747+114034297+114646012+115209728+115813902+116403409+116886773
4297+116968935+116349615+115321676+114719921+114981687+115613414+115910733
4287+115865201+115929911+116186059+116294884+116149821+116060456+116263073
4277+116596169+116749438+116678304+116667491+116965062+117436985+117733093
4267+117732971+117601816+117459792+117236525+116849972+116412815+116230099
4257+116480714+116976466+117519691+118312434+119529504+120734054+121309868
4247+121250560+121062630+121198905+121745863+122303680+122271625+121543640
4237+120620587+119948392+119603714+119515858+119509575+119366707+119157919
4227+119234164+119767795+120482755+120909662+120951282+121089827+121721451
4217+122420561+122473858+121971100+121668736+121946707+122476427+122751069
4207+122604937+122319614+122294762+122578585+122833101+122831516+122761404
4197+122840406+122883105+122614119+122227876+122169994+122474130+122808736
4187+123112084+123606064+124160234+124236188+123702238+123250254+123581943
4177+124450743+125013063+124976797+124831350+125040091+125557891+126145316
4167+126791176+127657501+128635388+129163167+128795953+127840733+127041660
4157+126754704+126768669+126793587+126804259+126923053+127173480+127467938
4147+127788515+128207318+128708173+129143229+129321556+129029499+128212861
4137+127351742+127262011+128157267+129248584+129662296+129446156+129249053
4127+129345039+129516014+129600099+129602847+129461508+129156134+128927333
4117+128994134+129187626+129237293+129279748+129615883+130049551+130018828
4107+129420515+128802133+128741437+129430250+130657543+131802578+132189581
4097+131792159+131251832+131063001+131124429+131148859+131108373+131156230
4087+131390517+131827328+132397984+132840280+132792001+132210851+131609762
4077+131653952+132463153+133431747+133831645+133491852+132793830+132212492
4067+132054581+132415390+133097882+133656084+133699815+133220587+132650249
4057+132493914+132791654+133144257+133338434+133559666+133927331+134315093
4047+134691029+135166777+135634057+135710546+135156790+134187661+133331316
4037+132990079+133161682+133633614+134335547+135307010+136335728+136904837
4027+136717891+136167567+135997792+136468074+137120452+137391117+137148249
4017+136631855+136167914+135985901+136095645+136293479+136389203+136416840
4007+136584139+137050987+137767616+138533396+139192967+139631372+139604541
3997+138960331+138076319+137568413+137533198+137600730+137591136+137608730
3987+137752189+138104857+138656045+139075993+138971191+138399100+137883334
3977+137988314+138889591+140163962+141096309+141345779+141136223+140814287
3967+140560052+140515318+140817700+141378706+141847177+141957578+141802209
3957+141628102+141518358+141477215+141749466+142753687+144435974+145866212
3947+146147934+145696053+145614031+145927996+145600011+144387761+143349974
3937+143388519+144527769+146374700+148297473+149293920+148764960+147550609
3927+147166186+147945217+148671374+148398336+147904487+148420994+149785218
3917+150609349+149876196+147968391+146107336+145129861+145051468+145841238
3907+148175153+152642345+158193390+162310755+163408534+161739789+158063632
3897+153640021+150594823+150459495+152542298+154130062+153648199+153167976
3887+154899246+157488315+158221468+157838930+158628821+159351677+157594589
3878+155038110+154978595+157712023+161482544+165258035+168074751+168273663
3868+166466515+165221685+165049125+164029129+161206580+158281845+157483382
3858+160100285+166637142+175697214+181069237+177130471+168468131+161354625
3848+157932637+158151863+160937349+164911903+169393538+174211438+178146772
3838+178942103+176339079+172839327+170281188+168576205+167319465+166811727
3828+167186201+168113933+170188981+174550706+179720722+181590123+179871843
3818+178055503+176364851+172593842+167629960+164568809+165034158+168727720
3808+173459510+176648599+178953732+182570749+186072152+185920393+183159421
3798+181187159+179924379+177781508+175288829+174079880+174534631+176017668
3788+178114680+180648623+183189582+185693459+188976405+193274245+197124518
3778+199221604+200532963+203098174+208179340+215608537+223515216+229666552
3768+234111593+238443101+243238607+248706082+255954484+265612813+276228096
3758+285786340+294723481+305420562+319648643+336519755+351456174+361076145
3748+368520140+377877333+388337257+395436170+399303643+405047851+415914227
3738+431966132+450247731+465424833+473719697+476096892+476215546+477157384
3728+480346097+485423625+490733245+494877939+497463857+498600574+499244934
3718+501140051+505540883+512955693+523524441+535802130+546001939+551770268
3708+554504362+557008426+561437393+567656965+572910729+575044165+575356461
3698+576571243+580282999+586426570+594076324+602777265+612074925+619207487
3688+620504535+616556372+611246264+607670754+607051190+609132409+613397144
3678+619173651+623422855+622762552+620277019+620880190+623180146+622307595
3668+618003472+613917786+611866315+611973565+614490834+619746173+627111429
3658+634385415+638956293+640822712+642633687+645952833+649695576+651796151
3648+652145621+652256435+652924315+654363462+656671484+659331452+660987199
3638+661022236+660950736+662847541+667024758+672026735+675731289+676136879
3628+673750005+672441328+674325079+678699089+684428292+689901956+693107213
3618+694442974+696493732+699951226+703109966+705382726+708463815+712697301
3608+715041260+712698352+707411351+703767568+704285247+707358833+710345389
3598+713513058+718144857+722538749+723704051+722118079+721266985+723116523
3588+725579549+725118439+722033149+719749886+719947954+721358366+722081916
3578+721605427+720647196+719701419+718170516+715949974+715165803+717822546
3568+722122730+723624149+721377423+718926327+718596438+719146978+718599889
3558+717108299+716125460+716381523+717431211+718360781+719351498+721935316
3548+726671626+731640741+734719954+735824110+735521606+734015836+731831157
3538+729308711+726140142+722669444+720448002+720713219+722752498+724473592
3528+724519583+723160413+721595223+721151295+722888370+726639139+729591784
3518+728170493+722939687+718328295+717039125+718138180+719911867+721953697
3508+724345748+726283517+726581970+725270517+723545296+722002014+720428870
3498+719384960+719984267+722193555+724998323+727734818+729677463+729197748
3488+725696664+721762831+721218518+725208020+730629617+732942891+730808479
3478+726419314+722563883+720862745+721653368+724449433+727918706+730111188
3468+730161155+729245089+728506609+727246099+724433678+720584924+717069961
3458+714608811+713195398+712764749+713364056+715035709+717926156+722007340
3448+726078846+728016840+726949222+724185417+721866442+721190533+721719166
3438+721994511+721197736+720512074+721648492+724184217+725846341+725435349
3428+724176864+723840148+724629121+725361598+725178910+724194195+722754373
3418+721653818+722242622+724523559+726449324+726574467+725983563+726673876
3408+728947536+730509126+728614046+723764522+719596833+718680392+720636542
3398+723950736+727436665+730351421+732407281+733160241+731492640+727093271
3388+722018069+719156881+719301606+720588300+720927042+720279869+719715599
3378+719410094+719379633+720832810+724608488+729100514+731679455+731883075
3368+731487013+731621310+731474109+730215399+728927054+729191971+730426147
3358+730472138+728864183+727739094+729002831+731927115+734148107+734052149
3348+731887051+729484497+728870410+730312933+732160671+732975827+732867715
3338+732208462+730858821+729444583+729197823+730769240+734019963+737642813
3328+739204628+737564186+734456763+731980158+730028810+727687026+725517127
3318+724698444+725022781+725361073+725570170+726471081+728122402+729247265
3308+728682095+726783114+724792902+723233939+721774010+720690786+721482159
3298+725271717+731137017+736377502+738392997+736494467+732109653+727557607
3288+724717276+724472541+726366946+728622899+729590058+729553821+730005027
3278+731248656+732349661+732694105+731909034+729630272+727062211+726846061
3268+729852874+733619925+735088031+733996780+732530248+732202535+732335256
3258+731510121+729785426+728831771+729851524+731916236+732962548+732522371
3248+732443593+734031217+735684562+734761219+730846142+726046585+722743495
3238+721518697+721105454+720544485+720587100+721920010+723513560+724355126
3228+724854123+725181536+724657855+723549273+722965421+722748896+721659145
3218+719664131+718438508+719370855+721883998+724019160+724759666+724986394
3208+725590202+726126638+725678583+723753118+720685534+718054301+717592966
3198+719187192+720910087+721322804+720991565+721347112+722512115+722792937
3188+721008070+718559225+717615774+718179144+718383364+717185951+715367473
3178+713889238+712823120+712105347+711889422+711614302+710080173+707458618
3168+705823653+706454096+708016210+708395991+707146060+705260959+703409620
3158+701642460+700481734+700767132+702140857+703027663+702654034+701752448
3148+700781612+699042812+696443690+694550411+694750205+696390722+697290357
3138+695967575+693224779+691193752+691103946+692148457+692673488+692231286
3128+691824420+692412698+693845843+695140190+695167724+693213825+689561264
3118+685535899+682669684+681674091+681951236+682072328+680988654+678908261
3108+676951135+676125625+676722606+678040586+678694062+677957308+676733785
3098+676307788+676749090+677275172+677212150+676183395+674421037+673049188
3088+672974162+673699288+674294318+674894975+675860859+676104318+673954151
3078+669715862+665715931+663482410+662518703+662266465+663340536+665734538
3068+667640721+667524281+665941459+664070463+662077325+660007886+658639488
3058+658342161+658344036+657859669+657065745+656436278+655930003+655253194
3048+654235243+652609356+650232611+647764109+646538035+647583146+650659883
3038+654063509+655741988+654999757+652745303+650177317+647931942+646084804
3028+644359433+642796644+642171753+642868819+643852633+643869739+642900480
3018+641490668+639781203+638130408+637362218+637368520+636550212+633913802
3008+630893709+629742962+630684762+631761759+631287145+629469268+627554156
2998+626281830+625450655+624604175+623792433+623470909+623828708+624544830
2988+625053431+624785213+623550587+621971479+620904911+620177085+618651170
2978+615882489+612975011+611462751+611899102+613581407+615207819+615805963
2968+615261725+614012694+612439138+610776414+609355724+608540680+608268186
2958+607904835+606919070+605548347+604394636+603534651+602616447+601641223
2948+600895578+600269674+599437037+598613140+598204024+597812576+596692627
2938+595052861+593759714+592801333+591193716+588693328+586563530+586061494
2928+586893681+587615318+587175141+585730142+584178869+583104311+582111118
2918+580594732+578973047+578102221+577715688+576868908+575791348+575609261
2908+576314692+576582984+575636120+574022013+572587217+571674227+571131902
2898+570479702+569300295+567729027+566274763+565165430+564230307+563317017
2888+562416668+561477907+560483701+559554543+558783051+558194698+557786895
2878+557370239+556703071+555902957+555185597+554336154+553186157+552244957
2868+552009300+552031958+551397014+549839964+548025688+546950079+547048813
2858+547692385+547667626+546239583+543786124+541484967+540242988+539853979
2848+539320770+538050694+536491918+535525209+535455248+535602261+534908346
2838+533037726+530689115+528835900+527955696+527826502+527705635+526896706
2828+525380882+523753045+522563097+521933517+521668488+521431594+520869500
2818+519809609+518431308+517142588+516195724+515528406+515029784+514661369
2808+514198759+513274215+511868980+510407063+509201734+508104818+506866815
2798+505591150+504621853+504111302+503821702+503340410+502449853+501266732
2788+500051575+498912794+497766661+496585153+495543606+494780443+494071898
2778+493111567+492047699+491199907+490335871+488908616+486993392+485300958
2768+484202241+483299642+482101028+480752325+479806173+479369785+478911039
2758+478070599+477172764+476570794+476002247+475046567+473815242+472760603
2748+472072916+471606330+471172305+470600532+469657082+468175620+466294008
2738+464447733+463040960+462096947+461270874+460269503+459155894+458086399
2728+456954859+455615384+454295416+453383588+452941198+452758998+452669192
2718+452475100+451848821+450609918+448911444+447023418+445156661+443490373
2708+442103632+440857114+439508786+438006617+436648498+435875694+435791065
2698+435939579+435769195+435224994+434592864+433890096+432822290+431313181
2688+429702113+428393661+427559523+427126548+426822656+426324972+425561358
2678+424733560+423936672+423039475+422040580+421152386+420413606+419625196
2668+418740753+417924134+417233220+416613882+416129964+415851318+415574435
2658+414959485+413930955+412728890+411630324+410794685+410233266+409704596
2648+408818128+407520742+406297332+405602067+405286433+404875667+404182652
2638+403305562+402277632+401163760+400299874+399950104+399845780+399516004
2628+398939655+398413461+397937459+397218523+396214489+395253107+394560430
2618+394001825+393424163+392968118+392799872+392748667+392491028+391924208
2608+391145139+390263172+389398198+388684552+388174526+387792681+387358019
2598+386722774+386035575+385656206+385598886+385373771+384648758+383745334
2588+383183953+383008054+382839809+382442172+381927081+381437237+380944917
2578+380451622+380057098+379710779+379249519+378765002+378533660+378543938
2568+378501924+378281273+377994224+377710100+377441845+377279377+377260395
2558+377254843+377148644+376968619+376732025+376372164+375874967+375320863
2548+374795119+374384052+374162126+374046323+373794686+373308068+372830828
2538+372710337+373011566+373468811+373773304+373779944+373471625+372945280
2528+372465452+372296606+372423738+372625745+372769120+372803369+372611940
2518+372146292+371578421+371100056+370716598+370360826+370021821+369716016
2508+369512020+369561875+369884899+370160657+370002389+369432005+368828684
2498+368426133+368125879+367797566+367501664+367337019+367218553+366937506
2488+366451526+365973048+365653213+365361887+364960086+364548757+364256756
2478+364064765+363977022+364057224+364235036+364360967+364408608+364427402
2468+364435730+364448860+364449460+364346562+364103740+363808213+363535269
2458+363282882+363049514+362840042+362618115+362332304+361977581+361644541
2448+361487887+361545320+361653132+361671813+361653957+361634525+361462191
2438+361019763+360426458+359888673+359502777+359259581+359093173+358890116
2428+358583072+358268151+358125376+358201753+358376301+358552386+358734774
2418+358886739+358893942+358739126+358541620+358368160+358166078+357927383
2408+357768816+357786259+357925282+358064906+358181496+358343702+358540795
2398+358631801+358538357+358396445+358410700+358595226+358761934+358747941
2388+358518700+358019815+357072688+355484577+353180082+350226875+346812633
2378+343127586+339187301+334889930+330343660+325981016+322231297+319162925
2368+316534955+314222845+312477892+311636552+311786810+312914580+315087368
2358+318309693+322492462+327777774+334634279+343068128+351692993+358263387
2348+361179231+360500396+357997345+355596553+353418514+350530767+346845382
2338+342913875+338920209+334792959+330778473+327480559+325442518+324668513
2328+324532379+324306701+323802002+323426985+323685149+324742939+326448053
2318+328484743+330420374+331887393+332874922+333688953+334609896+335731645
2308+337031281+338373495+339517190+340317904+340886938+341432376+342008875
2298+342545948+343038981+343544843+344020019+344327363+344420395+344422046
2288+344522018+344815556+345191286+345413175+345369773+345151147+344872876
2278+344623415+344566320+344773805+344950378+344680960+343984945+343304760
2268+342966618+342947299+343096826+343284428+343359641+343237537+343041606
2258+342988526+343126536+343318077+343462202+343595298+343761780+343906318
2248+343937491+343833880+343671449+343582168+343665559+343893376+344119729
2238+344217412+344202670+344228141+344455695+344918079+345493003+345993951
2228+346276911+346324665+346297055+346426850+346765817+347107073+347260200
2218+347302402+347429084+347654049+347833923+347953477+348193898+348663260
2208+349221640+349683237+350057916+350469846+350966330+351542341+352221213
2198+352956580+353576856+353987023+354334768+354839767+355529405+356250404
2188+356879721+357438477+358003684+358552912+358970693+359247952+359558784
2178+360036061+360615524+361202564+361802734+362404891+362959070+363537145
2168+364300383+365265892+366300274+367383498+368715433+370489383+372690455
2158+375232070+378173310+381589165+385291918+388935588+392398371+395832382
2148+399297266+402582387+405530755+408344564+411316078+414392665+417334168
2138+420196143+423303341+426810689+430562135+434299212+437841185+441174811
2128+444490581+448075768+452074161+456280751+460179134+463239178+465145399
2118+465789947+465278345+463925515+462019595+459688690+457151164+454852558
2108+453181169+452234267+451947030+452276881+453134090+454152866+454637496
2098+453865555+451490610+447651534+442758870+437192399+431135557+424689294
2088+418110686+411803858+406043145+400794070+395859541+391206285+387087550
2078+383783185+381295401+379379652+377762844+376255161+374800483+373518178
2068+372581067+371973320+371442999+370749272+369913371+369164012+368679570
2058+368438287+368260701+367955870+367513443+367161534+367143940+367474279
2048+367988094+368553114+369192560+370106375+371579584+373808716+376854805
2038+380749475+385527462+391130771+397337739+403815513+410245383+416301661
2028+421451552+424994087+426474611+425918781+423702179+420418032+416640403
2018+412535586+407957355+403063228+398434843+394452881+390936079+387520600
2008+384124515+380920196+378051656+375518369+373238219+371119187+369099078
1998+367204936+365628042+364636537+364208889+363803374+362809319+361236738
1988+359614603+358341376+357475915+356933252+356558461+356155084+355644570
1978+355105246+354620579+354197508+353817764+353530603+353506219+353857791
1968+354300368+354245975+353496203+352555341+351994185+351830141+351736246
1958+351554383+351343148+351122459+350833497+350486202+350197915+350080349
1948+350214795+350787018+351938028+353177006+353388729+352104435+350262775
1938+349049793+348709738+348798456+348930915+349001402+349018582+348969103
1928+348910170+349159331+349991706+351071666+351815436+352316496+352957067
1918+353298060+352559317+351046157+349912216+349850057+350633102+351444620
1908+351541328+350906197+350156650+349758563+349627005+349516567+349489558
1898+349796826+350369574+350781541+350966630+351440081+352288661+352649123
1888+351924786+350735663+349888845+349443604+349187616+349104862+349146127
1878+349149953+349078116+349109927+349713810+351564436+354758552+357847818
1868+358538094+356356828+353265461+351161472+350406824+350375501+350404498
1858+350249908+350039760+349940876+349965222+350187111+350852553+352164006
1848+354321263+357421596+360431673+361035069+358574669+355437611+353768360
1838+353510046+353550597+353577194+354603135+357541037+361405772+363728949
1828+363671704+362778370+361939356+360582775+358737963+357444704+357192054
1818+357500786+357901874+358616834+360107673+362159707+363712255+363929455
1808+363215209+362734105+363404574+365485980+368422194+370946628+372040956
1798+372100564+372709774+375200146+379203116+382074207+381350395+378428061
1788+376587413+377084647+379027293+381313632+383635196+385711575+387054652
1778+388059548+390206452+394704142+400978071+406080470+407226003+405266889
1768+402701754+400976195+401059624+403481085+407054531+409548167+410632442
1758+411693795+413139432+414796829+417589743+422470291+428273057+432099115
1748+432672876+431550863+430826938+431659126+434119750+437120674+439200654
1738+440828867+444460870+450862681+456194471+456278050+453281628+450664500
1728+449231055+449206746+450846738+453730283+457754785+464124784+473673631
1718+483948803+489330486+487852438+483692402+480830764+480697143+483551879
1708+489070484+495756155+501550405+506739346+513943108+523626401+531606644
1698+534748204+534555350+532175040+529081535+528436350+531578472+537276164
1688+544669216+555068782+568397208+578117114+578631266+575184201+574120747
1678+577285452+583918717+591621213+598277024+604623840+611790389+617500085
1668+619046294+619130511+622143739+628403262+634560000+638183826+640860225
1658+645535014+654158791+667604934+683023657+691318520+691713232+693452632
1648+699008975+703500701+702398045+698805730+697593912+700090924+706036727
1638+714707845+723000008+724905516+719427950+713079408+710147846+710434295
1628+712106172+713936504+715683632+716349862+714457859+711282988+709922393
1618+710691259+709831912+704525480+697626848+692602589+689732698+687551920
1608+684881223+681844775+679227046+677295954+675712157+674369044+673800723
1598+674467778+675841577+676645480+676148508+674754827+673156325+671586258
1588+670026845+668528502+667179162+666089560+665594690+666454561+669523046
1578+674542354+678681308+678562692+676238389+676568353+680533547+684918361
1568+686841275+687839944+690610351+696102247+705375373+720551688+739873258
1558+751449530+750883009+749353907+752849213+760509358+769822923+778818829
1548+787022161+795809720+806705356+819398239+831877597+839974917+838179773
1538+829969988+825115212+826296495+829589982+830314132+829142753+830125442
1528+834553471+840424323+845851471+851208996+856684161+860662935+862799973
1518+864611923+866070877+866287327+866263168+868129062+873214393+881662835
1508+891018715+893903761+886435983+877143725+873083023+874687377+879787112
1498+884764406+886033019+883924190+882594731+884810922+889488562+892745736
1488+891679843+887658605+884028927+882664055+883299600+884826002+887105739
1478+890945790+896345329+901897095+905421362+904725347+900241799+896108322
1468+895812495+899132241+902548470+902906044+901858832+903468588+909154501
1458+915650244+916542902+911254851+905971602+903744308+903841167+904688584
1448+904870222+903577751+901257275+899315229+899128340+901501409+906227891
1438+911261603+912924778+910246353+907300386+907091664+908152905+907472870
1428+904903533+903130821+903692465+905758829+908378808+911617451+914502647
1418+914441426+911212762+907566578+905103702+903394087+901670742+900013570
1408+899215145+899638666+900435816+900674473+900854986+901829722+903113115
1398+903653227+903208773+901524067+897897690+893119440+889520898+888141471
1388+887303957+884681952+881032767+879735494+882430725+887489346+892330468
1378+895984829+899052113+901926205+904068345+905157496+906004313+907595763
1368+910038081+912976996+916307696+919691739+921948593+922039224+920543058
1358+919118766+918810184+919485193+920495266+921272685+921462725+921345685
1348+921981980+924008654+926794516+929584054+932501361+935546362+937707183
1338+938191776+937766904+937869765+939057800+940694415+941740276+941908109
1328+942083970+943293612+945476266+947680227+949078484+949350528+948732915
1318+948285536+949241816+951455305+953290814+953527145+952656695+951916114
1308+951793372+951895407+951806351+951676331+951901934+952454500+952768708
1298+952261758+950846470+948959718+947135313+945645224+944413899+942966949
1288+940830212+938277680+936131640+934657681+933408875+932162319+931027627
1278+929706496+927640358+924703919+921280337+917950613+915167002+913020586
1268+911216588+909381154+907430256+905558735+903956857+902451012+900431915
1258+897441832+893747182+890047129+886833320+884248302+882285775+880867785
1248+879903252+879421061+879437717+879607275+879364641+878646193+878118461
1238+878440697+879617629+881215680+882859873+884374271+885735766+886935805
1228+887624768+887437353+886943158+887489646+889752803+892879507+895356862
1218+896428457+896475574+896432734+897088160+898649374+900810495+903286350
1208+906074838+909154501+912358857+915694434+919391635+923399219+927034524
1198+929450208+930491717+930864521+931476958+932892996+935227577+937974126
1188+940012354+940703043+940912140+941944721+943868686+945826262+947299545
1178+948277958+949123575+950744509+953946465+958396551+962729972+965762519
1168+967303101+967780716+967580097+967074872+967064219+968432316+971186442
1158+974314422+976639324+977574672+977662002+978640040+981790078+986166939
1148+989755127+991898843+992979891+992978615+992437379+993193415+995998183
1138+998898234+999672051+998445003+996611520+995088344+994683054+996172168
1128+999444948+1003834413+1008717399+1013208525+1016149390+1016862661
1120+1015683479+1014127217+1014528455+1018315088+1024296377+1029430250
1111+1031888098+1032851506+1034508303+1036728244+1037104049+1034735256
1103+1032104848+1032022770+1034121845+1035487166+1034275648+1031668648
1094+1030453978+1032403076+1036861565+1041224097+1042966648+1042246400
1085+1042005116+1044400093+1048167069+1051062318+1052646715+1053135359
1077+1052548506+1051856092+1052232122+1052941792+1052760004+1052320878
1068+1051887078+1049898816+1046667226+1045534485+1048574159+1054447787
1060+1060923198+1066685562+1070598388+1072143921+1072407262+1072464807
1051+1071658879+1069004237+1065307411+1062671226+1062419889+1064050352
1043+1066495971+1069392496+1072189687+1073276512+1072024480+1070529964
1034+1070605890+1070895340+1069648785+1068113305+1068825826+1071808781
1025+1073741823+1071843743+1067803598+1065773622+1066964283+1068636460
1017+1068111204+1065306961+1061447103+1057533227+1054228186+1051891054
1008+1050877454+1051693511+1053799188+1055431977+1055829164+1055600860
1000+1054750291+1052940517+1051383429+1051820830+1054019614+1056200392
991+1057083597+1056121315+1053028222+1048308417+1043188350+1038814340
983+1035978961+1034846820+1034296730+1032440139+1028770172+1025097279
974+1023309562+1022807939+1021329328+1018066377+1014713169+1012687770
965+1010731544+1006552527+999766734+992088133+985557128+981179667+978402208
955+975749592+972548987+969557705+967535306+966126845+964708105+963493136
945+962931267+962550735+961341393+959085664+956726025+955432503+955593659
935+956633293+957702112+958644062+960005707+961845192+962913486+961740606
925+958468351+954811138+952287867+951276143+951644145+953179100+954995777
915+955446608+953574937+950424449+947955872+946752531+945781846+944439708
905+943628528+944355754+946320157+948359661+949479873+949023040+946592276
895+942732193+939300734+937976752+938454516+939115495+939467591+940408791
885+941893854+942123208+939580580+934772170+929748511+926781687+927143687
875+929997522+932839953+934151106+934866628+936344413+938187799+938992302
865+938073460+935802051+933189799+931311150+930483540+930167906+929685864
855+928811587+927956292+927958018+929342771+931700760+934109691+935462859
845+934662482+931761006+928475696+926729243+926965950+928336448+929843269
835+930886354+931378073+931694908+932421834+933993401+936095027+937479930
825+937201509+935775417+934309861+933113348+932291364+933002009+936407810
815+941695710+946406512+949064830+950330442+950877605+950183691+948421783
805+947076493+946474560+945219452+943013916+941835559+943311093+946341689
795+948194304+947540378+945412719+943311468+941769161+940494921+938918852
785+937258529+937132035+939680890+943417105+945702244+946296449+947033803
776+948522017+949704650+949762120+948664341+946503820+943534820+940618038
766+938823119+938413102+938641331+938736014+938696700+938735789+938912099
756+939565950+941123938+943619074+946632265+949252169+949915848+947336083
746+942391651+938140233+937341882+940109738+943952490+946372975+947156396
736+947444120+947554408+946783517+944947633+943148287+942732944+943779405
726+944957687+944851450+942915857+939628897+936682930+936020751+937590518
716+939193071+939568051+940146276+942463075+945713122+948091894+949205878
706+949603666+948904274+946349642+942913606+940696741+939772722+937040578
696+929685114+919992968+914398061+916511016+922747319+925653297+921857512
686+914871925+909819155+908248038+907870433+905878795+902466842+900194758
676+900036303+900153869+898108287+891932980+880695901+868910457+866218978
666+872959005+881028791+885715659+885985827+882174136+875968594+869762001
656+865044372+862296549+861674509+862496043+862919939+861665356+859913051
646+860036694+862408637+864193429+862019103+855713251+848612274+844459591
636+844335948+845914118+845661806+842539078+838726411+836778214+837493286
626+838564430+835182938+826409559+818461315+816849459+820060192+823742538
616+826387802+828235089+829364754+830517002+832537750+834935578+836029380
606+834219155+829588332+824590406+822169620+822560205
##END=
