##TITLE=<SNM>
##JCAMP-DX=4.24
##DATA TYPE=INFRARED SPECTRUM
##DATE=2/5/2025
##SAMPLING PROCEDURE=Instrument type and / or accessory
##ORIGIN=Admin
##XUNITS=1/CM
##YUNITS=ABSORBANCE
##RESOLUTION=4
##FIRSTX=4497.3318
##LASTX=599.83466
##DELTAX=-1.4281778
##MAXY=1.7759479
##MINY=0.2269581
##XFACTOR=1
##YFACTOR=1.6539804e-09
##NPOINTS=2730
##FIRSTY=0.2439685
##XYDATA=(X++(Y..Y))
4497+147503865+146832809+147199208+147905535+148457172+148753334+148714946
4487+148237544+147552722+147285940+147809694+148632349+148760749+147810216
4477+146553765+146126248+146826782+148000231+148865653+149040334+148573059
4467+147969158+147845479+148193399+148405856+148228986+148114784+148463695
4457+149039370+149269944+148874653+148112306+147477684+147213298+147167243
4447+147111764+147063897+147056194+146790646+146052453+145349811+145464580
4437+146354985+147165378+147297346+146861171+146241954+145814401+145860168
4427+146304461+146760681+147031482+147208938+147252371+146939380+146275090
4417+145539726+144934601+144603158+144872500+145869682+146915965+146956200
4407+145779274+144301762+143478198+143407475+143647058+143921508+144229301
4397+144589771+145001494+145449868+145747760+145655018+145251006+144844895
4387+144538994+144162245+143544407+142618650+141405533+140132919+139193829
4377+138890586+139336941+140401297+141506329+141821906+141035468+139730853
4367+138789538+138642858+139146368+139804865+140044863+139634355+138955038
4357+138620010+138839890+139380735+139984582+140525309+140866040+140814741
4347+140246634+139274606+138310352+137856213+138164411+139083474+140137352
4337+140715252+140401297+139312724+138054354+137264583+137219338+137815473
4327+138771375+139712231+140203381+140004663+139341644+138712211+138389211
4317+138343903+138577982+139075366+139444584+139139061+138202692+137416894
4307+137484382+138254306+138918559+138932506+138629136+138761023+139485477
4297+140147460+140170389+139768404+139557578+139781972+140128117+140174155
4287+139870686+139480765+139097159+138561026+137976838+137788706+138070048
4277+138298640+138182871+138169231+138741698+139673627+140396540+140810696
4267+141243177+141776382+142120653+142065129+141687641+141257358+141167418
4257+141716101+142729995+143571714+143681627+143096006+142414220+142240314
4247+142628326+143112304+143251191+142983291+142479403+141877808+141304611
4237+140978142+140991341+141038360+140733171+140164596+139746016+139655194
4227+139840902+140331736+141076578+141743840+142121806+142483628+143156116
4217+143910381+144250031+144164218+144086585+144176362+144171506+143948211
4207+143759782+143880552+144283897+144704540+144958466+145169869+145556808
4197+146055426+146358732+146249279+145724723+144954385+144276825+144035385
4187+144256301+144600438+144696990+144483551+144244175+144351719+144918105
4177+145665487+146216224+146500079+146731779+147018797+147229920+147276039
4167+147281904+147409980+147639815+147741368+147467774+146863558+146285118
4157+145963568+145762238+145557520+145513356+145739030+146068967+146402292
4147+146877000+147554209+148232778+148589789+148329880+147419863+146327443
4137+145713380+145783752+146161087+146322164+146064165+145704930+145736606
4127+146123374+146272009+145866682+145294116+145112831+145481869+146119041
4117+146594649+146764672+146881514+147108448+147205901+146947705+146516656
4107+146280667+146419437+146868513+147487811+148202318+148950926+149529321
4097+149609711+149042730+148124307+147378952+146983264+146633524+146150546
4087+145870232+146185448+147034410+147990330+148603924+148668899+148322664
4077+147852020+147439890+147139530+146884009+146543017+146175997+146019750
4067+146151943+146550044+147323427+148326403+148851643+148378864+147367654
4057+146770447+146980327+147601075+148049404+148080702+147782711+147369348
4047+147119575+147267813+147713565+147994231+147763648+147201514+146786844
4037+146739140+146894334+147084393+147338302+147668708+147960167+148145406
4027+148276933+148398585+148488984+148528391+148575951+148777578+149225240
4017+149804239+150201908+150037120+149151310+147948941+147182567+147221172
4007+147823685+148611889+149373947+150019831+150550378+150948903+151090159
3997+150973012+150834098+150767312+150570315+150214494+150080193+150542414
3987+151554191+152650620+153257268+153099498+152378792+151532118+150948119
3977+150899965+151466098+152380990+153122832+153285071+152847923+152142659
3967+151677636+151901336+152875671+154140141+155050204+155262876+154856378
3957+154116158+153330604+152756605+152691143+153375127+154574406+155473243
3947+155520271+155152080+155099070+155393781+155604022+155650924+155766062
3937+155930626+155979276+156094991+156682990+157681740+158463313+158643246
3927+158490881+158378643+158329705+158282262+158372103+158688346+159031924
3917+159071799+158625660+157842484+157199420+157150860+157719975+158662165
3907+160016637+162018858+164396261+166312426+167271751+167344258+166501206
3897+164851842+163304139+162979085+163950627+164837752+164446695+163767738
3887+164430533+166149268+167320563+167771351+168560185+169364587+168964323
3878+167716647+166983346+167306977+168603195+170641652+172427740+172752236
3868+172255807+172555888+173575810+173789420+172604484+171063069+170413555
3858+171428413+174499476+178944940+181586891+179635627+175355556+171846786
3848+170160412+170186179+171409260+173303099+175600175+178279731+181009145
3838+182616057+182159989+180368279+178586659+177365470+176689523+176616746
3828+177083462+177896603+179512200+182553785+185821268+186647725+185160239
3818+183932023+183311519+181884252+179929564+179134297+180390550+183358961
3808+186558893+188481202+189736175+191906527+194456278+195385170+194904994
3798+194685726+194899984+195029862+195458001+196802797+199010898+201806205
3788+205174664+209059625+213187746+217716852+223428046+230511569+237890830
3778+244924082+252752257+262593933+274335467+287225430+300269650+311944677
3768+321072981+327444699+331345282+333927916+336920328+340794208+344322491
3758+346763680+349622034+355271677+364903816+377444327+389544970+398980923
3748+407730801+418847631+432635315+445374319+454418945+462338744+472297054
3738+485022797+498761578+510571222+519516132+527706679+536946589+546902665
3728+556464495+564225876+568470649+568680313+565877600+561267879+556286039
3718+552916283+552341816+553915123+555778349+556463090+555867288+553861752
3708+550046865+545702414+543207638+543572658+545967791+549177398+552161162
3698+553996242+555015480+557032259+561514193+568117341+574228079+576043339
3688+573144119+569745785+568991925+570725021+573361062+575837351+578684426
3678+582602487+585367288+583587957+579206819+576262589+574675407+572072124
3668+568063718+564132576+561241968+559518026+558656451+558462824+559010624
3658+559746681+559547036+558686002+558952748+561286258+564516227+565834824
3648+563850585+560236029+557093919+555841306+556893084+559004101+560361907
3638+560843146+561927718+564461090+567883893+571577623+575073185+576986826
3628+576681664+576287923+577620647+580203641+582730274+584663808+586519286
3618+589281529+593366982+597654027+600376197+601608017+603429620+606450357
3608+608415820+607622860+605463229+604581473+606356588+609944153+613222880
3598+614999508+615982672+617615297+620321971+623437089+626342111+629035451
3588+631762234+633632415+632786192+628776705+623789172+621203294+622527297
3578+626038607+629041722+630650850+631533182+632292844+633233196+634414852
3568+634992311+634003381+632476489+632371693+633450644+633255395+630488035
3558+626925119+624871365+624462849+624513877+624723253+625964370+628876240
3548+632638368+635109215+634857028+632606223+629773203+627232588+625607819
3538+624750425+623460081+620973810+618091419+615784685+613831186+612142992
3528+611975348+614386950+618340796+621059938+620391162+616830409+612913826
3518+610862450+610989012+612086774+613003846+613382524+613085290+612177300
3508+611421818+611346068+611191685+610023579+608235202+606752276+605562980
3498+604467488+604137532+604889014+605448598+604368566+602156790+600686764
3488+600843706+602009362+603342986+604100450+603338230+601095209+598873594
3478+597652153+596893969+595889146+594501718+592977061+592121865+592594996
3468+593668072+594091688+593616431+592199272+589314539+585456048+582381615
3458+581188031+581407713+581744696+581156895+579836027+579278822+580424873
3448+582103012+582243341+580258418+577494337+575591074+574896351+574443977
3438+573263834+571305290+569281519+568358718+569426677+571745592+573220986
3428+572897229+571941994+571512432+571052058+569405847+566799465+564899877
3418+564883408+566081065+566986677+567024985+566718633+566465725+565964269
3408+564964384+564027383+563943165+564466567+564315860+562806086+560728332
3398+559117906+558117841+557390973+556918274+556750269+556470261+555796728
3388+555265072+555503278+556127620+556161855+555427239+554659793+554325585
3378+554040208+553257518+552114385+551300380+551076373+550703173+549328466
3368+547352552+546196590+546539123+547462213+547776889+547560054+547655084
3358+548312977+549026583+549259131+548914832+548349050+548040320+548043455
3348+547905866+547404085+546963207+546842051+546466832+545382512+544331310
3338+544368717+545303771+545913087+545373179+543749528+541688422+540258218
3328+540211910+540901840+540846740+539777051+539008560+539406950+540162612
3318+540085456+539264892+538640585+538368577+537723549+536609246+535941335
3308+536257524+536967203+537268256+537079927+536810946+536684672+536637175
3298+536627625+536640779+536456052+535850846+535105671+534934530+535847134
3288+537673962+539565225+540544785+540423664+539953813+539730671+539501151
3278+539114653+539419058+541094315+542930765+542737498+540354473+538147417
3268+537824453+538441444+538495319+538372793+539125068+540255876+540447449
3258+539323884+537200254+534502914+532368761+532122700+533540399+534991577
3248+535403733+534910782+533980016+533135379+532980275+533517840+533867580
3238+533242877+531834512+530433894+529663277+529688719+530146714+530324305
3228+529671457+527998399+525586292+523402949+522729200+523940262+525724747
3218+526319647+525399548+523950677+522826392+522197076+521752090+520858586
3208+519055470+516624120+514352161+512823864+512103014+511997209+512413366
3198+513111440+513207083+511800843+509298103+507114760+505912887+505094556
3188+503960577+502483092+501065069+500151096+499937324+500140898+500182629
3178+499769932+499171896+498724171+498224661+497140738+495315567+493093952
3168+490916231+489188613+488240585+488005299+488037696+488014776+487893944
3158+487607990+486999431+486028988+484801565+483504266+482371692+481442764
3148+480387670+478898942+477129304+475457904+474095630+473227568+473106339
3138+473583218+474030727+474028781+473703582+473289552+472820421+472259035
3128+471555519+470646267+469611174+468711436+468099057+467568591+466775631
3118+465666590+464488861+463464039+462706179+462326708+462308870+462369376
3108+462096683+461144079+459508679+457868920+457161692+457454277+457760664
3098+457259857+456160401+455203652+454793838+454741080+454702268+454711962
3088+454912256+454901121+454137603+452888954+451914547+451460696+451267789
3078+451096829+450717791+449923389+448829772+447769849+446971591+446487289
3068+446096610+445341958+444084515+442769089+441805494+441109509+440509564
3058+440114489+439991278+439860752+439386684+438553146+437564000+436619828
3048+435940961+435639619+435428045+434873146+434021806+433332561+432950459
3038+432492788+431579825+430298778+429141951+428511266+428243763+427814489
3028+427086143+426517262+426433439+426416682+425800340+424610539+423468343
3018+422579489+421530989+420202590+419076863+418440304+417998093+417415914
3008+416695064+416005999+415443207+414883011+414078591+413056723+412236086
2998+411888761+411722197+411266004+410449439+409557305+408814761+408274348
2988+407901833+407529678+406982779+406401248+406113781+406111979+406006750
2978+405514376+404650314+403536732+402311399+401153023+400248419+399684079
2968+399309905+398821783+398137222+397512736+397132256+396858410+396492345
2958+395937410+395133242+394211414+393555358+393339424+393231493+392807156
2948+391978916+390924795+389929342+389303774+389160815+389267413+389281611
2938+389028847+388473480+387650861+386702329+385765436+384848220+384007006
2928+383491712+383424719+383438990+382933101+381726507+380280627+379151404
2918+378382265+377694137+377110840+376907086+376994621+376881716+376241878
2908+375188369+374112374+373440246+373287521+373299413+373106867+372767902
2898+372482957+372206660+371817424+371303643+370606649+369628170+368493939
2888+367545695+367015661+366841494+366823800+366899550+367142800+367432466
2878+367299814+366348651+364782335+363287084+362346840+361840230+361398560
2868+360953502+360677457+360517777+360183065+359617967+359127935+358902523
2858+358722013+358285676+357566628+356735216+356016744+355638319+355540730
2848+355236145+354389201+353322503+352528137+352058178+351724474+351438916
2838+351130439+350686714+350032749+349126560+348098350+347375698+347246001
2828+347365824+347143007+346487023+345815616+345471967+345424542+345401226
2818+345101181+344378421+343381959+342451698+341774237+341230833+340645843
2808+340004275+339347499+338671587+338026775+337528851+337191183+336870597
2798+336432350+335918533+335484611+335142835+334666280+333882474+332978231
2788+332308842+331938381+331591740+331083905+330560971+330182113+329788372
2778+329131776+328253444+327362355+326483806+325518661+324562957+323890613
2768+323582280+323383643+323054084+322647586+322226781+321560383+320470981
2758+319258802+318414561+318091885+318072497+318011990+317620159+316874371
2748+316099682+315617398+315347408+314933233+314192383+313283960+312439214
2738+311690508+310972613+310350649+309947394+309735027+309579094+309365431
2728+308952698+308210982+307263387+306478283+306080758+305932501+305770947
2718+305495191+305127721+304640751+303956119+303047191+301970349+300910048
2708+300224604+300195432+300611660+300874028+300647103+300147250+299675525
2698+299180790+298468679+297603788+296878866+296453484+296188269+295867575
2688+295463491+295082273+294748966+294404487+294055684+293749964+293429017
2678+292996140+292510756+292126258+291842232+291500528+291015397+290448047
2668+289897869+289448522+289136946+288874541+288505594+288017886+287570269
2658+287267233+287040542+286771110+286403568+285953591+285507560+285167982
2648+284924137+284658940+284302876+283849097+283260575+282559942+281933185
2638+281515443+281178658+280774430+280453304+280460943+280707545+280834990
2628+280682662+280408690+280136249+279782077+279314766+278878573+278538635
2618+278172282+277731440+277367339+277191911+277103710+276939020+276682346
2608+276452339+276322065+276220711+276022777+275682191+275239457+274754740
2598+274305862+274016610+273961474+273994952+273816893+273346411+272896578
2588+272808827+273054258+273357834+273544308+273578093+273415530+273014545
2578+272443789+271862781+271371308+270930808+270501228+270209256+270217454
2568+270425010+270518039+270391459+270293276+270422757+270615357+270623430
2558+270523211+270590258+270866446+271072470+270934106+270461065+269875822
2548+269356041+268928768+268574595+268316623+268185737+268162673+268158997
2538+268040093+267721795+267263602+266823517+266541202+266475362+266563347
2528+266629889+266544662+266372693+266273879+266277429+266274942+266222832
2518+266207697+266286113+266395108+266456443+266438244+266299213+266013313
2508+265643302+265291994+265030869+264916434+264961336+265065231+265081988
2498+264947714+264683003+264332110+263949667+263590359+263296765+263116002
2488+263077875+263121931+263098939+262891455+262513642+262072242+261677240
2478+261426728+261387231+261497414+261555632+261386997+260986102+260483096
2468+260037552+259757580+259646387+259610116+259536889+259386290+259207888
2458+259050262+258872040+258630916+258425667+258392945+258492462+258555761
2448+258506876+258384008+258211516+257994285+257775558+257602958+257482270
2438+257393871+257284768+257060456+256698949+256349354+256183133+256183349
2428+256219152+256268649+256406400+256605451+256703166+256596478+256383607
2418+256265351+256342849+256557017+256785276+256921677+256896054+256725148
2408+256528476+256408545+256357606+256344597+256411860+256621344+256971552
2398+257388195+257738043+257921562+258081314+258668052+260210908+263121678
2388+267797023+274738632+284428699+297145541+312926436+331625687+352968583
2378+376561130+401829475+427966385+454013203+478961394+501643320+520722690
2368+535263081+545330835+551799097+555487782+556457648+554145796+547787556
2358+536466719+519574693+497576823+472441095+448378984+430854182+423484056
2348+427025241+440096975+458797632+476833692+489265984+495495212+497505181
2338+497408998+496613731+495902431+495455463+494665458+492548423+488644957
2328+483252547+476822701+469511964+461317633+452399246+443087441+433588460
2318+423901726+414069437+404345513+395029816+386152547+377417264+368519201
2308+359419871+350296613+341408604+333023602+325293465+318188680+311618794
2298+305550796+299990903+294945674+290387973+286205544+282275267+278618709
2288+275348451+272481034+269970095+267852970+266161407+264760465+263476247
2278+262331367+261472657+260885523+260352174+259726606+259089074+258550932
2268+258075548+257609301+257213109+256916577+256595325+256128428+255572808
2258+255099137+254802606+254612510+254400179+254145253+253900687+253642445
2248+253322851+253012301+252804313+252654993+252471889+252274694+252152960
2238+252140257+252210890+252345957+252521007+252651552+252652092+252561927
2228+252512394+252565423+252681588+252823124+252999544+253249155+253612841
2218+254077323+254545571+254917780+255195824+255492680+255952495+256633794
2208+257447404+258229211+258872815+259383046+259834987+260303704+260819971
2198+261379988+261985681+262660187+263419921+264242846+265067645+265805757
2188+266374729+266801822+267261133+267856448+268432194+268804890+269052735
2178+269333608+269600445+269728989+269726827+269660320+269556209+269420025
2168+269202343+268812169+268288929+267827096+267516978+267213780+266791317
2158+266361899+266082576+265897489+265664221+265409836+265323617+265599823
2148+266296780+267280034+268454231+270060801+272440510+275561196+279156203
2138+283173996+287720724+292781539+298303467+304335734+310912575+317954295
2128+325331881+332970159+340894895+349114236+357457904+365692740+373729444
2118+381521816+388924448+395860939+402474395+408992099+415646997+422841010
2108+431175777+441141799+452836051+465990239+480028308+494004790+506815976
2098+517764153+526907160+534828437+542013260+548331392+553105442+555535567
2088+554847439+550283665+541274428+527620911+509772964+489009400+466851705
2078+444377929+422399231+401773617+383184496+366967300+353203725+341747785
2068+332309310+324625554+318404903+313267491+308964266+305423621+302513518
2058+300032923+297876535+296018120+294503409+293480713+293049529+293210164
2048+294061522+295817934+298698757+303052633+309385791+318079127+329331890
2038+343398104+360503939+380439334+402345670+424842366+446450819+466158100
2028+483595692+498776137+511919261+523339199+533188425+541363187+547610145
2018+551600460+553055278+551853801+547979453+541517786+532663185+521558859
2008+508288200+493137449+476676822+459534302+442245110+425275351+409003487
1998+393706534+379687709+367273471+356492506+346924261+338117012+330044415
1988+322955162+316962842+311914298+307494781+303432356+299703039+296487900
1978+293887932+291778933+289942933+288230865+286625178+285227894+284125411
1968+283217367+282283682+281251147+280241946+279338947+278503877+277760846
1958+277248273+277012788+276910443+276771394+276563478+276365941+276244279
1948+276224117+276399905+276874550+277409737+277424098+276718275+275838664
1938+275337496+275162284+275007648+274843409+274870744+275182068+275642063
1928+276104041+276673247+277543416+278582618+279465148+280204449+280990689
1918+281582634+281565570+281152802+281022023+281505587+282365828+283162698
1908+283664803+283972650+284329291+284863235+285532155+286251257+287006703
1898+287817934+288594533+289160352+289554543+290081640+290813896+291328289
1888+291266125+290853807+290526302+290420875+290414785+290358981+290216491
1878+290089316+290074162+290157534+290435470+291241169+292666725+293978006
1868+294038260+292693843+291007541+289972916+289760603+289959132+290106578
1858+290063910+290006521+290088469+290252276+290444732+290790454+291466798
1848+292625715+294282358+295861755+296239604+295160996+293810452+293252003
1838+293503704+294011287+294488814+295270585+296752845+298561438+299722571
1828+299978525+299988489+299990003+299599865+298899448+298551366+298855501
1818+299461302+299976164+300492648+301367665+302613629+303724436+304232127
1808+304270578+304373284+304976041+306215248+307856269+309322474+310129633
1798+310446183+311011929+312460224+314609224+316189486+316044293+314884980
1788+314355271+315106896+316644815+318268827+319701950+320851821+321639412
1778+322372659+323801457+326470184+329941818+332635518+333312907+332546651
1768+331462871+330714849+330978749+332676564+335072599+336783604+337577213
1758+338272152+339209801+340406413+342358110+345451317+348932753+351314696
1748+352128378+352250291+352645438+353821833+355846109+358156302+359882767
1738+361208896+363496315+367185180+370172294+370244116+368668503+367421187
1728+366967155+367297976+368366259+369894448+371962869+375369492+380546220
1718+386095680+389152310+388845274+387255390+386330678+386811089+388830247
1708+392151101+395959897+399285220+402380446+406543199+411832507+416046036
1698+417834845+418214424+417757041+416951972+417220196+419314924+422771602
1688+427210111+433088229+439930628+444363226+444290864+442704980+442557155
1678+444511447+448030505+451974657+455602331+459459669+463977928+467942512
1668+470105639+471776246+475054036+480176132+485515027+489620193+493049771
1658+497343446+503582260+512085500+521007311+525523227+525795848+527051488
1648+530680171+534119984+534729732+533621231+533185903+534416641+537674611
1638+543026696+549211381+553232869+553988494+554337045+556678699+560978898
1628+566055479+571306624+577063189+583178756+588664790+593462949+598906028
1618+605708930+612455218+617074236+619992664+622823594+625995002+629115093
1608+631743279+633570143+634721816+635930717+637872251+640505481+643364016
1598+646245397+649371759+652986784+656940486+660762508+664076767+666780342
1588+668933774+670658870+672074984+673330660+674757513+676869647+680092948
1578+684361974+688654208+691668783+694095954+697883884+703637062+710249220
1568+716492862+722752866+730047566+738743749+749428026+764059230+783679481
1558+801820914+811484476+817091632+823266443+829832762+835300021+838949209
1548+840723892+841261638+841867565+843754107+846655309+847370501+842382175
1538+834737554+829577115+827144323+825197671+822381949+819474765+817683072
1528+817083199+817077577+817470021+818454915+819329103+818613550+816328582
1518+813936296+812197578+811300615+811494855+812738783+814829655+817798175
1508+821038919+822069796+819598660+816718648+815851956+816853210+818581838
1498+819388636+817980955+815296336+813772039+814532710+816805641+818803177
1488+819088807+817916160+816732991+816514317+816940420+817135957+817052784
1478+817599178+819544677+822738356+825785364+826530395+824620429+822462600
1468+822112031+823512000+824946493+824785335+823790206+824250544+827221658
1458+831059104+832064755+829519311+826843990+826086995+826989652+828448938
1448+829241537+828740550+827529631+826804853+827164648+828344646+829845375
1438+831070997+830965768+829113606+826861360+825431119+824571707+823522811
1428+822195205+820999638+820151181+819703312+819596138+819260128+817867727
1418+815677536+814093490+813597908+813397469+812760334+811636481+810364516
1408+809243690+808323519+807564145+807228352+807686671+808790343+810158528
1398+811839298+813642377+814245494+812697052+810450356+809704748+810544413
1388+811128069+810268369+809291115+810372948+814044335+819250398+824799173
1378+830159114+835132377+839203848+841619918+842373022+842539441+843246705
1368+844893312+847269598+849733958+851329176+851456171+850633732+850026868
1358+850221612+850822062+851037780+850614993+850137574+850182908+850507963
1348+850439853+849839763+849340217+849663902+850872874+852299727+853247647
1338+853720742+854245153+855198479+856666990+858604272+860788913+862907029
1328+864897213+867012591+869511835+872520932+876002764+879540742+882428755
1318+884448994+886240542+888554628+891575329+894907895+897821278+899801516
1308+901167394+902802109+905190935+908006658+910512677+912204186+913170629
1298+913734898+913844090+913359103+912728598+912378389+911602727+909339453
1288+906045087+903440686+902257012+901399905+899616790+897124465+895043755
1278+894046969+894141386+894914742+895409315+894580390+892534997+890673825
1268+890275615+891489056+893641480+896049694+898441476+900854376+903330196
1258+905751456+907925358+909579605+910356853+910335519+910275193+910526948
1248+910116918+908006513+905016155+903135380+902967519+903122334+902344510
1238+901081049+900337604+899993089+899250077+898325653+898437152+899973053
1228+901733537+902284328+901402068+899923754+898712187+898058834+897820557
1218+897955985+898788802+900599738+903102658+905527306+907247861+908440760
1208+909943868+912126274+914362592+916053236+917547045+919538239+922179758
1198+925204423+928351759+931341828+933885975+935956450+937822811+939743732
1188+941639499+942989593+943234790+942658484+942645583+944556270+948350255
1178+952465547+955168833+956103347+956433375+957565011+959898125+962928340
1168+966121010+969080736+971308982+972578136+973218011+973525696+973537948
1158+973772550+975191258+977848921+980642589+982968711+985470983+988366275
1148+990484968+991097670+991385751+992919273+995683102+998218311+998978262
1138+997712783+995944299+995682814+997578293+1000594741+1003342714+1005160857
1128+1006180491+1007067868+1008641464+1011346985+1014412011+1016343239
1120+1017044881+1017651242+1018232952+1018071074+1017861986+1018624603
1111+1019361057+1018874557+1018172050+1018823889+1020809532+1023185098
1103+1025594754+1028463739+1032231993+1036446676+1039995032+1042513664
1094+1044565184+1045868573+1045233672+1043401258+1043606669+1048151595
1085+1055285642+1060180993+1059899399+1056641934+1054632650+1055549794
1077+1058195926+1060088378+1058924091+1054675246+1050370831+1049125462
1068+1050773582+1053006152+1054390769+1054454411+1053010909+1051225992
1060+1051376122+1054297001+1058733095+1063606607+1068820021+1073120327
1051+1073741823+1070119591+1065708939+1064435604+1066992868+1070892875
1043+1073206960+1073146634+1071457576+1068130487+1063321554+1058931947
1034+1056760424+1056560490+1056805687+1056470109+1055834055+1056100945
1025+1058076715+1061035865+1063357519+1064036674+1063223316+1061969874
1017+1061113200+1060448028+1059605769+1058867801+1058533377+1058582748
1008+1059369870+1061147652+1062580847+1061605611+1058094157+1054278694
1000+1052379107+1052724991+1054187952+1055363554+1055242614+1053689127
991+1051865290+1051539514+1052824525+1053390884+1051433637+1048314843
983+1046189015+1044728936+1042218376+1038179195+1033834347+1030957433
974+1030218169+1030153590+1028646879+1025690468+1023101996+1021256248
965+1018204843+1013334719+1009272978+1008087646+1008032509+1006038000
957+1001929700+997793218+994489770+991391877+988524838+986663811+985727279
947+984729339+983118842+981158352+979348785+978080856+977374169+976759881
937+975819889+974724722+973779829+972860451+972089257+972347931+974030864
927+976016724+976855667+976183431+974251627+971265593+967911405+965449927
917+964714482+965622329+967304180+968413041+968225504+967391822+966746109
907+965988249+964593109+963179230+962773669+963330802+963773770+963309829
897+962255311+961407575+960790980+959552385+957483351+955957685+956348327
887+957983907+958974350+958998783+959478725+960672490+960583839+957729052
877+953549903+950851229+950582753+951230555+951499753+952173070+954333998
867+957130909+958381756+956805782+952988012+948507809+944852999+942716216
857+942139334+942972584+945017472+947812149+950170993+950467434+948451807
847+946205976+945817856+947003332+948002569+947483058+945211352+942562337
837+941985672+944324839+947636360+949767089+950835661+952152601+953873660
827+954852860+954532058+953752719+953007112+951689236+950014448+949401385
817+950414027+952628506+956244108+961432512+966648953+969803496+970476165
807+969206938+965945942+960726329+954874050+950359899+948425068+948767781
797+949703808+949915418+950032106+951336793+953366114+954348701+953858164
787+953364312+953913445+954976900+956365337+959143076+963013964+965431044
777+965089917+963924621+964095437+965082709+964994563+963163662+960625930
767+959031577+959408453+961086989+962172282+961220110+957924590+953191190
757+949234245+948548603+951882250+957494595+962011412+961979483+957015590
747+951685992+951687362+958341322+967489843+973337005+973189974+968704077
737+963817303+961884201+963473653+966422424+968251018+968476683+968387815
727+969327302+971551295+973907112+974481039+972339643+968961742+967098336
717+967836087+969736251+970889582+970752281+970115578+969584751+968571388
707+966336584+963293612+960282929+957441476+954987278+954058098+955466139
697+958351989+960463763+959889044+956964345+953296274+948731743+941755034
687+933591696+928234278+927183941+927886736+927509572+925456827+922530399
677+919664080+916993011+913383968+906768928+895406937+881338560+874558326
667+885022560+903857491+913961643+910440314+900356704+893056742+891445740
657+892150409+892310990+892820915+895136154+898777414+902951879+907171174
647+909193431+906714439+901682869+897734645+894856362+890998591+885755194
637+880270421+875709422+873001739+872889232+874719556+876579069+876993496
627+874891452+869696273+863409314+860545807+864564159+874649571+885869720
617+892240502+889985156+879445172+866801990+859908238+859995448+860727794
607+857540241+854200828+855667970+860334845+862441574+859947086
##END=
