##TITLE=<SNM>
##JCAMP-DX=4.24
##DATA TYPE=INFRARED SPECTRUM
##DATE=2/5/2025
##SAMPLING PROCEDURE=Instrument type and / or accessory
##ORIGIN=Admin
##XUNITS=1/CM
##YUNITS=ABSORBANCE
##RESOLUTION=4
##FIRSTX=4497.3318
##LASTX=599.83466
##DELTAX=-1.4281778
##MAXY=1.8611445
##MINY=0.37503877
##XFACTOR=1
##YFACTOR=1.7333259e-09
##NPOINTS=2730
##FIRSTY=0.39600512
##XYDATA=(X++(Y..Y))
4497+228465470+229468587+230433103+230151624+228961492+227922321+227299564
4487+226792298+226492783+226801239+227782244+228904048+229300741+228676764
4477+227949642+228220512+229308685+230194695+230478838+230406917+230044869
4467+229420221+229017647+229417366+230593933+231782965+232023608+231001991
4457+229352873+228009768+227444198+227583553+228183889+229062385+230024941
4447+230671047+230576636+229898378+229307671+229013624+228495628+227611252
4437+227207268+228034390+229620682+230674159+230302602+228626215+226516751
4427+225043507+224925060+226112355+227790514+228843887+228524256+226999328
4417+225344759+224699856+225322510+226638105+227889464+228383181+227689088
4407+226180545+224949097+224715090+225051279+224996998+224208924+223229088
4397+222797612+223156325+223974711+224763370+225294054+225669101+226115278
4387+226714926+227241071+227228606+226378032+225026210+223922305+223387649
4377+223163718+223127491+223393340+223677346+223558486+223340435+223720760
4367+224735774+225684111+225804037+224750354+222969033+221668088+221678954
4357+222361407+222424697+221739356+221367748+221882356+222702032+223168326
4347+223328950+223403605+223257406+222749538+222138026+221736433+221439119
4337+220936065+220179920+219469750+219170872+219284230+219244340+218485994
4327+217341890+216737479+216848877+216928054+216596026+216369447+216743325
4317+217585851+218574748+219552142+220258306+220258374+219474513+218576485
4307+218360841+218783652+219148417+219162911+219199860+219590158+220203200
4297+220590867+220299106+219376784+218579751+218672202+219649751+220840519
4287+221498472+221239603+220204627+218872767+217664822+216821040+216543826
4277+216948308+217825549+218699987+219224464+219428571+219556630+219774027
4267+220067473+220269602+220146908+219676470+219235864+219264560+219749475
4257+220342555+220942925+221710470+222470656+222622064+221908284+220842978
4247+220043178+219567376+219241607+219202147+219641567+220254368+220404813
4237+219846791+219104005+219107599+220301875+221913717+222479047+221510834
4227+220167884+219854786+220644545+221431812+221360337+220685329+220179644
4217+220060423+219946584+219747601+219834274+220168898+220175002+219754444
4207+219532989+219835306+220269172+220530276+220782353+221051899+221070038
4197+220891189+220878827+220948204+220601836+219829804+219292259+219544405
4187+220505276+221569464+222063870+221805448+221209548+220764936+220629965
4177+220697846+220759314+220676010+220530465+220479898+220548794+220777195
4167+221304750+222055273+222675812+222971578+223057633+223006756+222672476
4157+221956117+221090946+220517639+220422764+220421440+219915136+218892488
4147+218066536+218041072+218663210+219365831+219794385+219914431+219840601
4137+219721277+219597001+219364267+218974141+218592097+218572977+219255000
4127+220523003+221633563+221877971+221391080+220944971+221038488+221472045
4117+221726254+221570668+221242595+221008451+220710346+220065616+219333593
4107+219266709+220180607+221360045+221847143+221612105+221334564+221320448
4097+221327652+221183328+220925989+220497161+219762146+218816131+218049807
4087+217857718+218287355+219021596+219676608+219956212+219670504+218952322
4077+218330064+218228191+218519952+218847165+219119204+219328538+219189338
4067+218552242+217960193+218119940+218984887+219921292+220517639+220713080
4057+220468482+219825935+219091626+218663021+218732449+219158750+219550475
4047+219556871+219149397+218610442+218260533+218214333+218390586+218688141
4037+219061090+219432904+219666756+219677743+219563989+219631457+220193950
4027+221225452+222263661+222770859+222578547+221937359+221227946+220694992
4017+220380037+220170188+219878875+219414403+218923127+218674867+218832516
4007+219370233+220067249+220570870+220648397+220361778+219931212+219600302
3997+219565450+219769901+219961490+220178492+220802865+221918445+223019841
3987+223523376+223328743+222851617+222597202+222650176+222710612+222743125
3977+223171593+224147319+225092767+225303648+224684674+223684911+222829472
3967+222522014+223007840+224175328+225416731+226000647+225728230+225037627
3957+224472813+224303954+224590229+225433306+227063649+229293864+230923657
3947+230808390+229646903+229093781+229309132+228993043+227656712+226216755
3937+225642846+226499179+228984136+232168964+233911736+233062521+231249237
3927+230936930+232486876+234006886+234041910+233532168+234152139+235773696
3917+236371333+234386060+230731087+227705611+226622785+227297449+229485368
3907+233852143+240778977+248530251+253795277+254840157+252328223+247278599
3897+241191025+236806970+236233026+238713736+240772065+240163562+239333707
3887+241282203+244715514+246300947+246489769+247650912+248125493+245089357
3878+240997131+240249222+243481796+248584652+253689158+256666646+255539391
3868+252582106+251927644+253415451+253144959+249550457+245513750+244332335
3858+247814029+256888548+269716491+276789816+269797456+256518969+246135767
3848+241427335+242327770+247252413+253658639+259723122+265045490+268771094
3838+268838563+265169921+260606140+257039561+254243758+251999754+250991257
3828+251302154+252305321+254846020+260697198+268069419+271087570+268695511
3818+265634117+262980129+258375066+252621118+249337788+250702179+256191635
3808+262306187+265393801+267143623+271402490+276703418+277840937+275002271
3798+272109307+269402379+265637092+262086554+260808287+262020719+265041811
3788+269750982+275789348+281658321+286543865+291836935+298715421+305806249
3778+311424916+316512951+323242677+333086701+346441201+361417758+373859959
3768+381422790+385168339+386635272+387439216+389440187+392501529+394318940
3758+394260172+395196439+400478900+411310772+425071664+435001863+437997044
3748+440013351+446181323+454396449+459013032+461052345+466637931+478695578
3738+496158553+514804249+529014963+535748849+536810149+536665859+539319538
3728+546542242+556925186+567035610+575087120+580941307+582939011+580094207
3718+575730578+574991729+580501767+590418761+597984755+596861867+589169396
3708+580694749+574413608+571285760+570879988+571105811+570412010+569940042
3698+571476129+575231238+580698256+587739911+595514498+600833548+599860865
3688+593772568+587738535+583787280+581446596+581526650+585970264+595625570
3678+608156766+615819045+611477630+601890824+596876448+595626808+591908769
3668+584587407+577440872+572561328+569792314+568549414+568960413+571487443
3658+574827598+575888829+574771512+576332496+584038584+595432175+601914139
3648+596860148+585402321+575850452+570824074+568914952+568073389+567446127
3638+567255071+567919264+569656552+572728245+577680896+584066988+587952287
3628+584723719+577113159+571083253+569554593+573223424+580666758+587714670
3618+591103484+592324307+593704550+594997380+596141725+598776835+602450721
3608+603587363+600975431+597654979+596401213+597289922+598932266+600537541
3598+602436966+604699728+606340215+606645920+606705685+608392733+612280577
3588+616267457+616556381+612360769+606964210+603727870+603685986+605696964
3578+607772315+608695274+608695686+608728630+609931915+613669142+620053033
3568+625631777+625362592+619123609+611655551+606593169+604615754+604816439
3558+605993796+607078170+606923839+604841955+601965583+600850948+602916602
3548+606935600+609848972+609436186+606778518+604665134+603966932+603173476
3538+600974880+597942665+595527291+594900132+596468819+599247393+601299223
3528+601451078+600085484+598084753+595819240+593340112+590796473+588225530
3518+585402596+582509374+580470749+579985130+580809190+582338881+584024279
3508+585158239+585434645+585600668+586508909+587874228+588790653+588552623
3498+586328237+581642398+575958498+571856282+570294920+570179447+570105102
3488+569575226+568938852+568735209+568842257+568344018+566698819+564603971
3478+563186348+562934598+563563991+564181762+563692635+561884440+559902589
3468+558911027+558682213+558023143+556157521+553395178+550939949+550146183
3458+551388395+553628978+555413858+555993458+555442744+554230070+552781052
3448+551155936+549329413+547914060+547550894+547522834+546354555+543858337
3438+541472570+540507005+541009509+541931402+541996153+540869174+539342578
3428+538213844+537427094+536470917+535354528+534782390+535167564+535814082
3418+535360134+533148780+530040396+527760818+527466462+528838762+530524743
3408+531269438+530463946+528289216+525914454+524695728+524609656+524327267
3398+523048020+521366646+520233098+519836473+519729528+519509139+519205223
3388+519153126+519378948+519408006+519008527+518582741+518389484+518117307
3378+517596303+517086922+516598242+515852310+515030587+514653804+514671961
3368+514412508+513638618+513217475+514195420+516196803+517559921+517489152
3358+517063642+517469379+518318302+518355440+517141495+515510739+514497651
3348+514164712+513855672+513397631+513070056+512591280+511525028+510369954
3338+509993102+510373359+510771256+510823078+510835767+511159249+511700095
3328+512025400+511729806+510576313+508524483+505973313+503820797+503094706
3318+504168351+505992055+506635719+505310874+503282668+502080793+501773575
3308+501680179+501647339+501824916+502001461+501831037+501311752+500674140
3298+500074973+499709607+499941378+500939336+502324015+503386690+503698137
3288+503395115+502794882+501841765+500361180+498968007+498923372+500529266
3278+502405823+503148420+503060147+503260557+503755427+503581323+502532059
3268+501547718+501294111+501385582+501276573+501047450+501016295+501177675
3258+501163095+500488104+498911680+496694688+494552522+493380288+493763915
3248+495375104+496941830+497255237+496192115+494679721+493780111+493683139
3238+493584206+492729884+491252187+489775178+488770205+488385306+488368869
3228+488173308+487619360+487193025+487248904+487301930+486534574+484817575
3218+482860929+481461326+480994482+481451422+482388962+482940742+482454745
3208+481152939+479814855+478877282+478112333+477210591+476360121+475900189
3198+475682447+475274440+474546390+473551630+472220010+470698676+469527130
3188+469025967+468849800+468366726+467276093+465827798+464552539+463761903
3178+463269853+462610371+461527510+460244549+459205601+458510253+457789011
3168+456770111+455626625+454560683+453495911+452445890+451706594+451373896
3158+451092572+450559876+449899638+449313194+448782218+448255540+447678415
3148+446765463+445237010+443337379+441771203+441109726+441230701+441206114
3138+440046191+437781503+435498727+434224328+434093209+434531649+434826212
3128+434596779+434028698+433568938+433349237+433068532+432481951+431792552
3118+431322166+430891119+429956778+428520277+427346634+426961941+426925972
3108+426458544+425472553+424630576+424474354+424734254+424617784+423708752
3098+422320325+420987192+419993670+419403135+419156233+419040863+418809504
3088+418412742+417999267+417700784+417549170+417504707+417364819+416802791
3078+415791181+414830052+414401653+414287005+413787253+412663746+411452655
3068+410649330+410081834+409495597+409184184+409368742+409527543+409120636
3058+408377730+407716494+407067809+406283088+405551873+405047891+404652538
3048+404200206+403681506+403161258+402629835+401941983+400992717+399982002
3038+399297176+399096078+399185623+399243531+398934388+397970542+396454847
3028+395051771+394365879+394217291+393979089+393491097+393038902+392617140
3018+391973751+391302577+391094395+391229538+390925415+389781792+388311729
3008+387198367+386512165+385935419+385330166+384704555+383964572+383084391
2998+382244409+381538778+380856291+380167270+379584403+379133239+378760204
2988+378427712+377987690+377262012+376381969+375671077+375196324+374814417
2978+374499635+374255828+373920894+373374306+372781638+372433534+372415446
2968+372478478+372249355+371584714+370618290+369514556+368422789+367563241
2958+367059189+366788801+366572504+366350980+366144002+365967319+365673307
2948+364900174+363513156+361985322+360937537+360497825+360440020+360638710
2938+361017557+361278936+361008375+360050651+358756892+357754876+357321010
2928+357134217+356791959+356275666+355741044+355204256+354627441+354013522
2918+353297301+352369768+351291275+350380042+349983693+350095520+350266839
2908+350037715+349388652+348617308+347940803+347422447+347073449+346782119
2898+346317132+345596268+344809242+344180880+343792749+343674663+343832708
2888+344090613+344126548+343812729+343374495+343110950+343059850+342990215
2878+342670756+342124958+341589787+341204028+340863558+340434850+339924781
2868+339388475+338880744+338518644+338399836+338436458+338348908+337816074
2858+336732870+335443822+334561716+334368080+334519625+334480596+334102334
2848+333628509+333254168+332900390+332430073+331895451+331470629+331258802
2838+331255329+331366778+331371902+331038550+330422327+329891248+329700982
2828+329680865+329463674+328887031+328052414+327141800+326315710+325667163
2818+325164247+324715388+324307415+323973375+323662925+323322834+323085629
2808+323146804+323411863+323497694+323165786+322520643+321718900+320794669
2798+319869819+319213706+318932451+318812027+318567222+318109250+317546638
2788+317047848+316711126+316507002+316346791+316158657+315829432+315192473
2778+314245581+313270181+312544743+312056235+311639253+311209548+310712133
2768+310072389+309359400+308800742+308514123+308360376+308117945+307723968
2758+307311284+307009603+306743444+306306242+305618975+304817163+304123671
2748+303690424+303453254+303116704+302430399+301482338+300610135+300083181
2738+299918638+299863893+299546531+298812290+297891223+297125208+296653344
2728+296456097+296503380+296692580+296760873+296418890+295588743+294488757
2718+293494891+292897306+292699476+292606905+292274963+291655335+291067344
2708+290840765+290905655+290828008+290290429+289467812+288814142+288521161
2698+288361087+288072852+287672840+287295730+286958870+286630023+286346619
2688+286124751+285885569+285583115+285288483+285052723+284816240+284532974
2678+284234697+283910338+283488902+282985883+282517491+282167599+281955412
2668+281876613+281888837+281913287+281893600+281822900+281712447+281517900
2658+281123511+280521507+279941270+279595917+279411136+279215988+278986451
2648+278698972+278249271+277696149+277272650+277060015+276924821+276756684
2638+276531996+276239926+275930921+275728362+275699407+275799131+275927104
2628+275952396+275755631+275322040+274753117+274200889+273818844+273665132
2618+273607671+273457879+273198529+272948670+272774515+272671748+272633733
2608+272633595+272619634+272544033+272340545+271970554+271546591+271268826
2598+271211863+271301133+271439027+271512427+271389526+271066783+270722702
2588+270514675+270428225+270406148+270479910+270653790+270775642+270677397
2578+270404825+270187771+270190161+270374013+270610530+270830025+270987468
2568+270983737+270792423+270590104+270540913+270546398+270458607+270379842
2558+270441654+270476918+270248259+269836417+269516047+269387661+269333828
2548+269228293+269069612+268954345+268936446+268911584+268720149+268370549
2538+268033535+267792050+267546644+267228611+266952772+266833139+266770983
2528+266589332+266294390+266036313+265874760+265730969+265529046+265276763
2518+265041553+264908748+264912531+264961052+264890386+264642074+264344485
2508+264176382+264192630+264305799+264391424+264393212+264348869+264298543
2498+264197633+264017306+263882954+263928259+264045142+263992031+263730996
2488+263469359+263377854+263406206+263379848+263199985+262927533+262696381
2478+262581475+262548635+262480256+262250359+261848404+261431765+261191982
2468+261189798+261362544+261614432+261826482+261864600+261673561+261316516
2458+260887808+260463174+260119042+259891535+259734797+259592966+259440526
2448+259230161+258945330+258699185+258610774+258627418+258617274+258527436
2438+258332047+258011590+257712093+257703771+258022956+258340180+258339131
2428+258074210+257797993+257597996+257413111+257286205+257338714+257512766
2418+257563385+257369955+257113219+257057924+257255462+257554014+257812865
2408+257981484+258037003+257973163+257825382+257642699+257472103+257382386
2398+257470900+257869209+258772550+260427893+263093160+267085009+272903107
2388+281257364+292908104+308439124+328104167+351750210+378796036+408315213
2378+439235714+470601840+501798678+532486822+561880142+587894035+608029189
2368+621718211+630438522+635514659+637709197+638109604+636867873+631787817
2358+620199042+601963107+578819258+552250145+525254799+503673137+492652375
2348+494091489+506798818+525985292+543930894+555326308+560478578+562114251
2338+562383230+562201802+561896166+561941386+562308987+561728115+559063948
2328+555000177+550876538+546451562+540159417+531322670+521026657+510699248
2318+500793705+491127292+481707402+472633072+463471261+453343437+441792798
2308+429236602+416449700+403965546+392114843+381235584+371457962+362445358
2298+353715624+345172683+337052329+329461405+322282992+315467366+309139664
2288+303409238+298228701+293497299+289268778+285762514+283084042+280998117
2278+279097041+277166376+275284575+273613740+272212710+271032997+269969755
2268+268903142+267793373+266750196+265925534+265340019+264874189+264388346
2258+263799031+263096376+262338287+261612471+260987910+260479165+260050508
2248+259682923+259403061+259205144+259016323+258768819+258414800+257918744
2238+257367531+256975514+256837259+256818828+256773677+256675484+256508309
2228+256252793+256003295+255902660+255936893+255935947+255810089+255666539
2218+255632960+255667227+255629228+255474021+255286351+255163124+255131419
2208+255163623+255220620+255260406+255235389+255141064+255063400+255112093
2198+255292799+255497559+255633888+255707047+255761637+255808903+255846041
2188+255878366+255882011+255821729+255736070+255724912+255828022+255980084
2178+256093064+256146588+256185325+256220589+256179135+256023515+255852936
2168+255765661+255715799+255630449+255532789+255442935+255313139+255149403
2158+255041908+255012885+254964227+254810429+254565659+254296234+254068812
2148+253936283+253929560+254082258+254453487+255070071+255878211+256816283
2138+257874746+259032055+260229598+261468251+262849972+264492506+266446469
2128+268679899+271130864+273814099+276862545+280382014+284243965+288087982
2118+291585597+294658562+297367192+299669913+301402559+302390235+302473900
2108+301558919+299739788+297280261+294433015+291329927+288031724+284647759
2098+281372080+278368819+275679119+273287146+271180949+269308226+267595783
2088+266052664+264771113+263810482+263106589+262504740+261915562+261409861
2078+261088476+260929760+260847918+260797850+260751565+260696837+260720839
2068+260962738+261380683+261672134+261584394+261232920+260924086+260784989
2058+260778284+260895442+261092293+261226335+261258745+261343699+261604390
2048+261975517+262321781+262606973+262880715+263119673+263200862+263100089
2038+262973234+262958310+263050537+263200827+263386554+263599172+263850716
2028+264150574+264461918+264723985+264904020+265070301+265431713+266126219
2018+266915668+267330639+267190768+266764742+266426455+266361927+266543424
2008+266821928+267054009+267192762+267279264+267384576+267536585+267656718
1998+267683402+267855873+268636399+270068103+271400582+271776780+271194549
1988+270327195+269658909+269250490+269035792+268957904+268970301+269092583
1978+269368714+269749899+270096661+270292962+270421090+270836284+271801281
1968+272932422+273396945+272919767+272152893+271802193+271908020+272165599
1958+272476771+272903347+273384857+273778834+274055997+274341293+274819588
1948+275676316+277116858+279161105+281123493+281735298+280531479+278603840
1938+277281969+276889419+277051109+277379664+277635799+277736623+277798726
1928+278125390+279154761+280994162+282884870+283985319+284688560+285744375
1918+286435425+285486228+283456664+282183882+282492389+283708277+284658179
1908+284676627+283993813+283323705+283088014+283180206+283407679+283897253
1898+284894609+286157523+286972918+287267257+287995531+289538994+290631346
1888+290064882+288527316+287394250+287033818+287100959+287325440+287558536
1878+287722151+287912572+288376355+289648553+292580082+297344634+301997290
1868+303256111+300350028+296093241+293245617+292343497+292526472+292878806
1858+292993694+292965600+293089016+293517071+294336111+295756725+298007555
1848+301354863+305880079+310166611+311111612+307844633+303606553+301335263
1838+301051291+301293723+301511911+302910758+306751525+311912874+315138175
1828+315123148+313840840+312548354+310554295+307941468+306158273+305889914
1818+306400326+306868305+307509734+309079418+311489599+313416431+313736028
1808+312935866+312456093+313416603+316191669+320093578+323273488+324134205
1798+323321080+323351100+326240539+331439714+335112121+333593021+328724723
1788+325135774+324696887+326265470+328286214+330295403+332003806+332880342
1778+333516234+335848769+341308669+348865379+354434046+354437760+350244487
1768+345239807+341493468+340488873+342765425+346369125+348335468+348612837
1758+349033671+349727093+350479044+353078459+359137389+366808883+371595271
1748+371663668+369483023+367910141+368134691+370051241+372471016+373883412
1738+375037695+378996068+386535171+392222682+390254241+383819491+377859425
1728+373656248+371596578+371864938+373745243+377120095+383612100+394267324
1718+405755275+410470962+405831890+397575740+390995669+388063967+389289398
1708+394215881+400684503+405935190+410373336+417149554+426409851+432859319
1698+433317291+429906744+423439739+415626190+410836535+410937187+414488000
1688+420481422+430232772+442915926+449928661+445242202+436495585+431389428
1678+431721370+436101401+441198480+444651254+447969402+452506446+455021922
1668+452323677+448301653+448362037+452518482+456222628+456367159+455596192
1658+458460976+467659445+483667624+501011962+506208730+500915574+499620371
1648+504994578+509512125+506361926+499898153+497041966+499667104+507441417
1638+519752190+533534298+541162052+539380163+535786160+537192297+544365001
1628+554672190+565752167+577499605+589544907+599614101+607613651+617368543
1618+631290987+645333924+652642218+654642123+657451852+662976676+669329894
1608+674489454+678273655+681367630+683828258+685331196+686337716+688069055
1598+691302369+695714759+700228661+703876825+706639856+709272696+712212959
1588+715136305+717572586+719447733+721083682+723138331+726678587+732960279
1578+742154999+751057358+754708548+754830829+758075147+766915883+777711270
1568+785078849+789168822+794114630+802797391+817100503+839339000+866896201
1558+882988149+880620986+874646787+871953906+870977303+869892792+868518463
1548+867918265+869706343+874473543+881456738+889308561+893257339+885299466
1538+869481243+857849897+852964680+850223106+845674404+841105414+840072759
1528+842415506+845350406+847893082+851703348+856411608+858396726+856533959
1518+853139712+848725533+843010272+838258821+837645556+842666604+852790748
1508+863938194+865670702+853184347+838904893+832083181+832535582+836783669
1498+840145523+838492312+832520520+827848505+828672703+834054681+838326977
1488+836325559+829592498+823278207+820323226+820462288+821977330+823994979
1478+827124718+832088201+838519203+844086048+844394366+838007105+830152738
1468+826221428+826843772+828601590+828051666+826756153+829131569+836727067
1458+845330530+846300462+838334749+829376889+823868021+821738338+821464338
1448+820911526+818804264+816050036+814132248+813333153+813658389+815897906
1438+820120546+823549387+823066037+820346472+818935555+819143255+818531090
1428+815919570+813211009+812406686+813576272+816295081+820542136+824421452
1418+823745670+817921194+811227472+806815357+804770542+803885684+803648411
1408+804628316+806740324+808113964+807294099+805673075+805509735+807193619
1398+809674742+811765085+812083926+809752182+806332351+804734091+805904984
1388+807826967+807827104+806301058+806188405+808757560+812685637+816717909
1378+821251136+826849343+832280014+835078120+834615472+833217485+833180484
1368+834758455+837393289+840855486+844284670+845780180+844555643+842233253
1358+840717455+840335273+840370073+840419866+840756381+841455822+842015374
1348+842197490+842284834+842337309+842428230+843476084+846381685+850297796
1338+853050029+853565978+852730639+852014486+852361524+853942796+856179905
1328+858179673+859635431+861353702+864509919+869123132+873602509+876379570
1318+877709333+878986345+880875935+883242685+886225795+890303871+895511161
1308+901028214+905517288+908343867+910537235+913493936+916981717+919530377
1298+920384286+919976038+919141936+918731488+919120410+919667239+919270476
1288+917387283+914222606+910702089+908313812+907851989+908337058+908084998
1278+906682266+905140676+904493711+904825344+905402434+905576365+905538264
1268+905980899+907092714+908409891+909649352+911059856+912931151+915101893
1258+916957027+917957977+918272622+918634309+919472193+920535728+921590460
1248+923024347+925199972+927476420+928532046+927836732+926333313+925313794
1238+925044472+924762632+923710996+921815629+919416417+916946779+915121081
1228+914653206+915300653+915928567+915932350+915790123+916077327+916859229
1218+918008320+919278042+920241440+920796454+921283242+921778490+922106546
1208+922574628+923755011+925639306+927659018+929312916+930457674+931309864
1198+932386741+934180596+936658418+939284518+941622933+943550555+944920001
1188+945822327+947268181+950353973+954400068+957276509+958002153+957578637
1178+957189784+957373757+958627798+960900395+963001880+963992720+964667058
1168+966457268+969331233+971938076+973493420+974517547+975835274+977407399
1158+978517357+978855454+978871685+979149673+979807298+980807492+982501623
1148+984967478+987325700+988664816+988829669+988130229+987000945+986301160
1138+987491516+991230944+995904198+998570050+997702317+994844170+993376308
1128+995127248+998705399+1001754946+1003711935+1005137638+1006136318+1006970902
1118+1008737453+1012604871+1018711187+1025527259+1030323482+1031227047
1110+1028885812+1025550093+1023447988+1023988284+1026608194+1028684646
1101+1028543588+1027625856+1028114089+1030357526+1033333896+1035568530
1093+1035662889+1034444267+1035033737+1038963602+1044055901+1047011570
1084+1046713362+1044223987+1041489153+1040162555+1040106778+1039554929
1075+1038014096+1037877372+1041217905+1046263093+1049024886+1048615882
1067+1048168639+1050025148+1053341267+1056166745+1057116526+1055299150
1058+1051523409+1049268212+1051786610+1058412589+1064892421+1067399953
1050+1065816893+1062751459+1061307462+1063197051+1067502153+1071693363
1041+1073741823+1073292448+1070800459+1067170039+1064242017+1064094426
1033+1067035034+1069756112+1068300285+1063696907+1060591240+1060597705
1024+1060821361+1058662036+1054737397+1050570533+1046693762+1044032999
1015+1044564697+1049057761+1055225492+1059272688+1059353086+1057287088
1007+1056594731+1058735075+1061685311+1062161921+1059107766+1054826254
998+1052351252+1052388597+1053180265+1052650698+1050675002+1049053153
990+1048917529+1049371649+1049113331+1048194567+1047572980+1047669746
981+1047993263+1047887969+1046736127+1044062503+1040350516+1037210049
973+1035785308+1034937520+1032248698+1027754121+1024235186+1022741120
964+1021431784+1019509801+1018380999+1017928185+1015436333+1009824028
955+1004166812+1002204046+1004112617+1006518982+1006086732+1002721645+998561246
945+994894101+991588711+988587306+986177985+984405037+983178781+982219646
935+980933006+979249603+978220593+978618112+979453589+978954352+976714010
925+973957032+972022876+971555000+972521081+974106892+975249862+975742909
915+976384441+977823831+979376217+979554276+977562142+973922025+970403227
905+969297946+971455620+974891614+976442694+974728961+970727088+966183957
895+962315576+959597661+958379108+959080680+961221780+962694457+961456096
885+958014807+954668153+952755317+952146178+952758687+954658111+956609049
875+956584290+954335832+951790543+950763115+951672731+953723048+955378872
865+955496340+954466573+953547191+952874022+951593434+950081349+949822687
855+950602250+949946826+946944871+944357903+944773373+947204221+949269806
845+950328664+950716485+950553283+950476323+951082987+951627546+951306918
835+950710983+950350397+949539403+948008406+946953743+947455524+949348759
825+952340604+956434567+960206181+960678665+957061587+952893486+952188887
815+954978465+958077667+959530812+960806724+964031372+968274920+969937965
805+967456017+963712531+961871978+961313388+959686381+957120115+955617108
795+955833543+957020873+958850009+961308574+963515835+964576963+965071936
785+966218894+968086683+969425936+968847333+966214286+963295687+962103818
776+962504844+962916806+963198370+964580814+966676935+967351342+966520335
766+966939311+969650830+971467587+969000838+963826422+960052951+958705651
756+958186882+957992524+958698430+959678678+959968564+960666148+963830824
746+969192170+973871269+975371662+973596445+970212927+967041236+965085278
736+964877922+966731611+969590583+971103974+970348482+968666592+967066132
726+965644005+965579769+968044042+971360849+972410491+970513542+967682286
716+965815117+965425989+966357820+968174990+969588589+968857649+966382854
706+965313817+967869492+972045021+973369282+970042572+965046145+961967988
696+960997780+960358449+959992842+960602050+960169318+957099689+954898136
686+956955055+960176402+959578335+955792622+952656418+951573902+951022327
676+948857431+945334232+943184604+943524283+943411561+939028400+931938810
666+926392735+923385622+923390711+926690048+930927750+932652006+931089096
656+927811904+923338992+917372221+911929583+910756696+914145991+917681020
646+917136048+913638983+912668019+917137630+922796771+922662179+915824305
636+907003719+898691174+890852282+885342588+883550177+882806996+880911560
626+879905659+881466229+883599695+884950434+887757343+891528270+889654086
616+878701204+864639010+855605498+855466504+863336276+872444546+872656373
606+864116252+859114186+865682462+879734134+890695269
##END=
