##TITLE=<SNM>
##JCAMP-DX=4.24
##DATA TYPE=INFRARED SPECTRUM
##DATE=3/5/2025
##SAMPLING PROCEDURE=Instrument type and / or accessory
##ORIGIN=Admin
##XUNITS=1/CM
##YUNITS=ABSORBANCE
##RESOLUTION=4
##FIRSTX=4497.3318
##LASTX=599.83466
##DELTAX=-1.4281778
##MAXY=1.7218394
##MINY=0.17694947
##XFACTOR=1
##YFACTOR=1.6035879e-09
##NPOINTS=2730
##FIRSTY=0.1962055
##XYDATA=(X++(Y..Y))
4497+122354062+123049021+124427686+125961553+126921001+126747726+125613878
4487+124303205+123606499+123912442+124986317+126021321+126226925+125533517
4477+124549565+123822872+123424275+123322143+123636179+124194020+124456790
4467+124228903+123911373+123908818+124270069+124866203+125524848+126145254
4457+126764248+127188008+126881155+125756451+124580044+124094758+124280290
4447+124744845+125263676+125619370+125375138+124281563+122848408+122048649
4437+122234051+122740569+122824238+122462532+121958912+121384067+120711484
4427+120074518+119642171+119466991+119424767+119160435+118374634+117345483
4417+116813355+117116974+117785246+118164979+118044494+117561271+117033408
4407+116910386+117333979+117755092+117460802+116433677+115316658+114629374
4397+114277620+113858580+113374400+113372290+114184389+115398068+116341562
4387+116683605+116387596+115567812+114544079+113691010+113184714+112957320
4377+112787409+112493258+112139702+111941653+111972234+112128560+112349282
4367+112727928+113390912+114258468+114915394+114810678+113746746+112243739
4357+111272313+111395948+112248943+113041797+113337407+113114046+112553566
4347+112104799+112191776+112593468+112617247+111974743+111067165+110454955
4337+110345973+110513729+110617404+110636686+110837866+111291409+111699029
4327+111795456+111678009+111599758+111633006+111704957+111817191+111983971
4317+112041583+111854490+111563248+111340296+111211123+111322232+111878623
4307+112628258+113001803+112894662+112799749+113175868+114041361+115009572
4297+115493863+115163491+114353130+113826558+114068142+114839930+115419478
4287+115376064+115065633+115020584+115050105+114527892+113468039+112694299
4277+112855234+113681922+114371324+114505841+114374502+114437653+114820983
4267+115424858+116131498+116704597+116815222+116397697+115838314+115654074
4257+115965898+116436400+116770350+116970916+117058023+117031094+117092944
4247+117346505+117474201+117326536+117359273+117862437+118358465+118360361
4237+118147872+118301735+118869221+119305443+119112394+118441567+117975080
4227+118140958+118630137+118860830+118729696+118641521+118898836+119344415
4217+119625148+119615679+119477352+119414508+119441047+119338877+118890027
4207+118239736+117911009+118265764+119063153+119796536+120366020+121056575
4197+121869250+122333238+122172609+121757100+121610039+121763930+121832750
4187+121518212+120932401+120556598+120772897+121314587+121509161+121209026
4177+120977971+121215865+121721594+122242693+122814212+123415438+123789680
4167+123704943+123174505+122491227+122074184+122094535+122323174+122487473
4157+122564674+122609036+122603358+122605839+122776512+123174868+123635491
4147+123867931+123695251+123240305+122794289+122473088+122187356+121929920
4137+121856389+122071174+122529037+123145913+123863164+124617427+125306904
4127+125771477+125817762+125341053+124487241+123648436+123195497+123218598
4117+123552557+123960075+124236793+124297481+124207429+124067346+123999158
4107+124243948+124936686+125835418+126653789+127394634+127953934+127892706
4097+127040418+125843818+124875932+124432081+124536760+124908911+125109599
4087+125045992+125108010+125619658+126344520+126671184+126270506+125487083
4077+124968642+124983928+125275263+125445054+125267727+124746973+124089294
4067+123585220+123411954+123556023+123892091+124253445+124495260+124624973
4057+124806546+125101403+125340487+125423969+125574506+126052581+126714450
4047+127114208+127064884+126854105+126738294+126505464+125890169+125125870
4037+124627612+124432871+124398982+124624415+125258834+126105009+126694350
4027+126748887+126514450+126517200+126900911+127237202+127137848+126754584
4017+126502370+126521456+126621814+126614371+126503661+126414176+126450304
4007+126652990+127019054+127538183+128240548+129077755+129736492+129858539
3997+129479372+128931939+128368337+127758886+127297733+127382284+128141556
3987+129231275+130122805+130479660+130332385+130029435+129944837+130130555
3977+130365977+130557187+130827419+131157642+131226267+130764435+129941836
3967+129304433+129322619+129991002+130875860+131542059+131855817+131874048
3957+131602989+131044275+130460639+130342784+130903598+131736911+132225366
3947+132251589+132254274+132584535+133020246+133025477+132576739+132361434
3937+132837492+133602618+134058912+134209318+134324916+134375866+134312854
3927+134326774+134470509+134544327+134579992+134966899+135870695+136875323
3917+137314072+136850364+135730473+134603288+134098581+134400769+135243775
3907+136412608+137933819+139562793+140600251+140693138+140173173+139342647
3897+138336505+137652659+137909296+138934693+139519853+138856730+137964047
3887+138159949+139207452+140066125+140652019+141376937+141636724+140766984
3878+139701816+139759336+141066868+142967886+144782876+145602529+144764309
3868+143260569+142670428+143097794+143450580+143119482+142541970+142453265
3858+143553353+146476404+150888244+153797886+152198127+148144815+144823716
3848+143374484+143643713+144942259+146574346+148299487+150211823+151984309
3838+152689713+152060228+151070486+150492751+150131221+149638102+149158317
3828+148907553+149001174+149899237+151969032+154317535+155338025+155296692
3818+155629146+156082401+155470748+154091693+153284128+153878116+155897064
3808+158327535+159705298+160119367+160878035+162095654+162786468+163111869
3798+163887356+164729674+164871680+164718393+165279152+166866329+169116369
3788+171732436+174713862+178032619+181676481+185933082+190858419+195629708
3778+199534109+203322002+208403879+215370847+223618046+231669231+238333824
3768+244152643+250512168+257658423+265128035+273357857+283354440+295073350
3758+307336310+319818124+333733103+350293328+368988981+386548472+399632823
3748+409275014+418983886+430540569+441787704+450404015+458223262+468075349
3738+480977161+495758562+509549953+519450212+524529468+526027401+525677041
3728+524312472+522205851+520465052+520809242+523298673+525781933+526399468
3718+525471307+524410600+524267646+525221565+526428906+527291835+528823518
3708+531921860+536023446+540149935+543900566+547358189+550570084+553233840
3698+555085553+556784276+559790401+565190616+572577321+579524310+583293006
3688+584427792+585653309+587642178+589274144+589513813+588246592+586811252
3678+587131394+589042132+589959625+589151782+587825981+585591608+581556444
3668+577120593+574188919+573095242+573315657+574469549+576981913+581477459
3658+586842252+590171937+590746690+591194769+592974522+594403468+593137250
3648+590230219+588941068+590328607+593199249+595698827+596890854+597907627
3638+600800571+606117118+612282840+617205724+619911853+620333542+618650170
3628+616182372+615155675+616229800+619114566+624018568+630323640+635067292
3618+636156509+636033775+638159725+643009533+649028101+654906466+659725573
3608+662637138+663971153+665107947+667257983+671285824+676421764+679849540
3598+679851398+678093502+677344684+678423196+679978741+680194845+678134834
3588+674449993+671327751+670583617+671742489+672733652+672114482+670605547
3578+670091640+671362988+673560600+675298649+676119724+676873151+678122866
3568+678599602+676966223+674578600+673554430+673862417+674103573+673781388
3558+673763769+674842727+676660541+677869072+677396647+675861842+675231297
3548+677055356+680850442+683875671+683504496+680108909+676499523+674693528
3538+674449993+674662455+674898333+675259546+675706547+676465550+677968909
3528+679482305+679042440+675917076+672059694+669958350+669966082+670302689
3518+669496705+668343036+668464655+669623825+670116841+669206187+667803706
3508+667083657+667272776+667591914+666856551+664844117+663061540+662985789
3498+664083257+664635522+663973384+663153275+663818312+666815144+671225907
3488+674356772+673837068+670249908+666538826+664725918+664250743+663607635
3478+662439545+661294946+660718669+661435298+663697957+666118513+666766675
3468+665481798+663696545+662270869+660876714+659085290+657283533+656666890
3458+657925451+659849719+660242453+658365911+655485345+653295761+652737920
3448+653613932+654619740+654437535+652924586+650883754+649409164+649712096
3438+652458777+656675588+659852470+659867040+657214175+654891375+655398294
3428+658254997+660840957+661076166+658746824+654808487+650373714+646431065
3418+643892682+643288900+644097709+645081438+645698156+646434410+647695945
3408+649116268+649737668+648480445+645420945+642656497+642206448+643311499
3398+643498759+642058290+640860985+641529293+643290312+644451786+644611987
3388+643910375+641664070+637963172+635040976+634898542+636954390+639253401
3378+640791626+641723913+642380253+642785327+642413928+640793931+639005927
3368+639311014+642712028+647637589+651211515+651845182+650251797+647983934
3358+646006812+644782818+644480258+644515346+643879673+642522389+641600138
3348+642008260+643362347+644594666+645067017+644677034+643214040+640478212
3338+637103440+634611147+634298403+636179033+638902075+640823220+641581256
3328+642106536+642873344+643043283+641767401+639657880+638532981+639814067
3318+642967903+645668123+645965479+643978915+641359874+639866996+640163535
3308+641179602+641078352+639284549+636779396+634778187+634205553+635339671
3298+637078834+638000118+638309518+638907873+639382305+639022578+638457676
3288+638686268+639979620+642274617+644934396+646341932+645391804+642803837
3278+640014485+637894334+636757094+636339086+635898849+635163859+634752243
3268+635342124+636981301+639305439+641656636+642927091+642187789+639694009
3258+636801029+634958906+634803388+635786151+636841172+637576906+638094232
3248+637805424+635932822+633172983+631306700+631079817+631670367+632077671
3238+632234155+632712229+633409010+633229406+631909813+630950021+631459615
3228+632401864+632173048+630721205+629100464+628091757+627897880+628279017
3218+628620308+628229210+626780341+624663237+622959645+622512867+622737000
3208+622056760+619923748+617709149+616932416+617290768+617466617+617263002
3198+617598123+618834271+620189510+620518014+619389175+617641649+616446425
3188+615709055+614443618+612709286+611544764+611009932+610016018+608121374
3178+606144697+604899109+604236078+603624193+603132626+603161432+603340329
3168+602518399+600096096+596842571+594187959+593003886+593036186+593261359
3158+592857772+591950649+591240450+590865521+590052437+588279264+586428406
3148+585862648+586462713+586656069+585478873+583584192+582078788+581380112
3138+581278044+581314136+581064171+580464440+579746101+578987285+578018683
3128+576828291+575760336+575150421+574907741+574653761+574155763+573376169
3118+572209751+570515340+568510415+566977468+566758391+567756059+568601480
3108+567951793+566124092+564533793+563752043+563150528+562200883+561033313
3098+559769548+558421781+557520196+557819745+559115885+560121024+559858570
3088+558693267+557674635+557230794+556862220+556045717+555029576+554352681
3078+553929803+553237669+552195472+551215311+550558190+550228124+550246969
3068+550534402+550757159+550646468+550268825+549801976+549160206+547989551
3058+546144752+544061287+542400812+541413142+540883030+540468961+539884767
3048+539091383+538376650+538091671+538380850+539016747+539412454+539189474
3038+538612082+537866052+536518358+534528858+532865744+532212006+532073660
3028+531752218+531081233+529943808+528238580+526330481+524586003+522820263
3018+520985017+519779980+519778679+520494639+520900530+520521364+519684566
3008+518958012+518626720+518535246+518163104+516955317+514937382+513093624
2998+512588229+513309616+513835268+513204166+511899849+510681914+509529733
2988+508252661+507227004+506950835+507330150+507702068+507428129+506326869
2978+504560721+502441127+500582315+499751464+500000723+500307409+499608101
2968+497950637+496259831+495287773+495100215+495305354+495452025+495173774
2958+494200006+492586215+490921354+489930934+489745272+489798871+489560911
2948+489119077+488834172+488658918+488150884+487083263+485628038+483940094
2938+482029394+480125086+478747991+478188292+478131534+478031845+477733746
2928+477557302+477797640+478216504+478109455+477034326+475412135+474048347
2918+473141819+472279225+471281780+470350609+469485116+468501498+467534086
2908+466927107+466766795+466899713+467165922+467316347+466989441+466065331
2898+464824909+463556907+462237685+460834088+459738144+459428596+459681163
2888+459615931+458736685+457558187+456931917+457009973+457141070+456681097
2878+455637674+454479024+453547444+452818103+452153660+451613549+451320133
2868+451050096+450340604+449143781+447958779+447168851+446642754+446047111
2858+445231165+444299659+443450038+442694306+441821156+440787992+439961304
2848+439769100+440209856+440720789+440519181+439280097+437527144+436124737
2838+435450667+435253780+435100381+434705789+434001723+433135190+432339613
2828+431655135+430859112+429818736+428768213+428006869+427486384+426980916
2818+426478234+426122633+425955073+425877277+425658423+424995430+423906696
2808+422928765+422522576+422445189+422019561+420885183+419280091+417730083
2798+416607934+415908552+415383867+414870741+414405861+414043458+413674959
2788+413039732+411941594+410552531+409395629+408814371+408539726+407998909
2778+406961246+405676666+404497091+403564284+402791417+402023494+401244123
2768+400595663+400136619+399710433+399163446+398520859+397789734+396784409
2758+395388283+393888120+392775933+392194489+391799005+391244101+390583041
2748+390015982+389463271+388674867+387640104+386617793+385827382+385278685
2738+384808491+384175865+383231349+382048131+380836404+379788557+379055053
2728+378716698+378635520+378439414+377817976+376818078+375729939+374732420
2718+373825520+373049977+372447719+371779894+370666145+369116993+367659314
2708+366816458+366536459+366190448+365240394+363913478+362946252+362668893
2698+362726655+362673985+362388821+361909631+361278975+360558629+359758777
2688+358828126+357811650+356846617+355982054+355205024+354585370+354155839
2678+353742848+353147615+352387126+351587981+350805339+350060907+349382525
2668+348766477+348237815+347859800+347607382+347384996+347130199+346717468
2658+345960325+344948867+344112701+343735244+343659195+343552072+343208960
2648+342593730+341789343+340904782+339973128+339026047+338228612+337764959
2638+337577959+337363676+336860809+336086382+335305747+334818937+334705645
2628+334673902+334250949+333274468+332118532+331331541+331141047+331333214
2618+331499102+331394692+331099343+330790873+330466829+330042538+329582974
2608+329204142+328850660+328397228+327886704+327473305+327186207+326929737
2598+326687577+326512472+326285217+325736669+324816351+323821842+323077968
2588+322686015+322588408+322641412+322639516+322465154+322170585+321815207
2578+321368392+320850620+320386818+320049802+319791510+319563178+319381121
2568+319246456+319100900+318905723+318706829+318576698+318533135+318575917
2558+318740727+319020986+319291617+319410411+319356478+319187877+318923750
2548+318566997+318183221+317833270+317485065+317136750+316946479+317037172
2538+317231235+317184364+316769217+316176883+315680001+315416320+315356923
2528+315378816+315384651+315411636+315575108+315831355+315917960+315671303
2518+315252476+314889404+314592605+314311380+314143225+314183517+314315915
2508+314300861+314044317+313717894+313549813+313501233+313290667+312762414
2498+312050505+311367942+310834318+310494160+310304410+310100107+309729861
2488+309268662+308981713+308979352+308997584+308685564+308063383+307512568
2478+307333596+307450625+307526729+307296743+306814523+306373562+306141847
2468+305957208+305585401+305072721+304686715+304573051+304611131+304575262
2458+304345536+303979249+303611790+303304603+303039361+302831899+302716487
2448+302637818+302515549+302396253+302388448+302449926+302374862+302027178
2438+301506395+301030700+300725984+300607561+300683146+300914805+301100188
2428+300978755+300544001+300132051+300058790+300232502+300286584+300050464
2418+299701609+299487847+299487922+299622717+299775967+299903087+300041766
2408+300207190+300329607+300317156+300158869+299998334+300070926+300427512
2398+300769416+300769379+300508579+300353433+300445093+300563237+300472431
2388+300123967+299450046+298198528+296058807+292801231+288303325+282633165
2378+276129925+269285282+262501820+255935094+249544923+243339076+237513399
2368+232303102+227895239+224487869+222140035+220785596+220777883+222995511
2358+227971399+235361431+244690338+256068272+269150747+281637412+290161969
2348+292660767+289741861+284479340+280112661+277268279+274622774+271440279
2338+267997357+264526130+260878960+257173360+254160917+252554282+252227821
2328+252458235+252698574+252857882+253241175+254419004+256760555+259943737
2318+263149462+265779245+267867561+269849534+272100504+274723447+277566584
2308+280261302+282386192+283826234+284904076+286007956+287187959+288235936
2298+289029023+289626691+290129205+290625790+291213942+291891023+292486293
2288+292860423+293116168+293465934+293928583+294271956+294260191+293910946
2278+293486173+293248436+293250834+293338163+293317423+293120796+292792700
2268+292375045+291935217+291666612+291754257+292120508+292458063+292531733
2258+292385080+292265803+292351739+292550188+292612855+292401639+291976829
2248+291524512+291267020+291333182+291672057+292130395+292551414+292807345
2238+292882539+292923407+293098810+293450824+293928044+294459959+294953088
2228+295325657+295618683+296018516+296693905+297623887+298648875+299665834
2218+300702864+301826258+303046999+304331746+305679923+307158044+308838666
2208+310730726+312767134+314830230+316825492+318756710+320713761+322812243
2198+325113967+327518614+329814131+331922649+333951995+335985504+338017898
2188+340037951+341987457+343768287+345373417+346851019+348179235+349314133
2178+350261808+351045974+351669085+352063937+352102890+351767956+351237992
2168+350723528+350292250+349866175+349329745+348611963+347643250+346394391
2158+345069259+343969152+343066935+342083392+340959310+339925439+339250960
2148+339008875+338992781+339331693+341226336+346030687+353495968+361984341
2138+370307124+378281294+385877970+392989063+399742659+406430725+413320139
2128+420547795+428019619+435480886+442593614+448951392+454297005+458553848
2118+461491358+462872987+462998174+462592989+462350458+463000627+465491433
2108+470657555+478832032+489982117+503863978+519377062+533936524+544441308
2098+548945886+547115323+540106409+530197713+519276741+507886058+495991206
2088+483398869+469524924+454100118+437763654+421488111+406175370+392589193
2078+380967872+371118610+362961901+356400992+351049468+346586706+342891383
2068+339792707+337184556+335064554+333241796+331494976+329857434+328375372
2058+327036748+325986671+325319701+324942876+324889426+325285951+326103941
2048+327383020+329378541+332403585+336974251+343861955+353645055+366571362
2038+382791894+402129799+423767719+446489541+468851858+489105993+505460596
2028+516429888+521260926+520601613+516137066+509333440+501124991+492234889
2018+483074750+473758499+464342262+454763966+444886158+434774107+424609089
2008+414465221+404442377+394769447+385631833+377084286+369123980+361742962
1998+354972566+348919058+343698037+339302068+335565005+332296723+329404820
1988+326828153+324512081+322530981+321010486+319870830+318880596+317935040
1978+317063265+316252040+315432377+314564617+313698343+312977477+312491857
1968+312128487+311714920+311259537+310886708+310624551+310412536+310237765
1958+310137091+310091930+310007016+309796005+309451294+309036203+308637560
1948+308349050+308284821+308483864+308706937+308521684+307823770+307036965
1938+306587064+306502912+306612284+306815862+307080825+307351921+307554402
1928+307679701+307859397+308220406+308665028+309028751+309391154+309845961
1918+310101167+309812099+309201738+308827255+308921145+309279794+309601627
1908+309776472+309886810+310014209+310129248+310199833+310298574+310505107
1898+310763361+310907244+310855579+310804452+311094727+311753837+312337157
1888+312436994+312149562+311794853+311533811+311406171+311398496+311417712
1878+311405725+311435814+311620993+312083921+312977551+314226188+315205011
1868+315142752+314118805+313031633+312535865+312609758+312901688+313113406
1858+313137975+313061666+313065531+313261972+313628204+314071302+314585432
1848+315375285+316592513+317784875+318063907+317345419+316563261+316352881
1838+316590989+316944657+317358317+318090111+319334808+320756618+321636347
1828+321781605+321680021+321579998+321322115+320993016+320964470+321344120
1818+321874046+322315881+322715528+323261586+323991856+324713503+325225402
1808+325548851+325889882+326501098+327580018+329086909+330604319+331615851
1798+332086232+332579397+333710244+335472824+336965293+337281680+336865047
1788+336850253+337644195+338917958+340377458+342000875+343615706+344900955
1778+345941294+347313185+349479909+352185704+354375325+355226880+355157744
1768+354970633+355085412+355847388+357466531+359533381+361290795+362616001
1758+363932361+365341421+366787614+368628696+371235025+374192346+376455043
1748+377576820+378067012+378550699+379401659+380761544+382344335+383636460
1738+384837520+386849842+389779547+392008270+392185680+391440840+391097319
1728+391317511+392025517+393211709+394711983+396616440+399561829+403920294
1718+408642016+411450510+411550794+410569332+410137496+410844647+412678704
1708+415388699+418441285+421226177+423938774+427510433+432081619+436226693
1698+438948210+440699045+441578476+441882263+442942934+445588068+449431771
1688+453929510+459349128+465689138+470798316+472761537+473351753+474907001
1678+478109195+482469072+486975323+491107239+495476185+500615470+505636073
1668+509179186+511756412+514972879+519249273+523526708+526834501+529679718
1658+533253645+538406311+545503317+553395342+558429883+560129238+562242996
1648+566128924+570119745+572284499+573340263+574845259+577182591+580392480
1638+584637465+589232217+592158687+592714149+592928803+594484163+597476052
1628+601215755+605228654+609792554+615333085+621606488+628148552+635219687
1618+643087515+650127800+653366160+652470968+649478225+645918497+642549374
1608+639805221+637975512+637428822+638613639+641722575+646487191+652347342
1598+658552948+664005349+667552514+668915299+668956780+668721050+668586422
1588+668411205+668040773+667512668+667021510+666908366+667651311+669622189
1578+672639167+675694281+677819339+679762340+683016757+687972425+693847891
1568+699795242+706153465+713751368+722793010+733598645+747937914+767222742
1558+786147842+798037490+806576674+816278299+826845528+836206605+843518748
1548+849318759+854168940+857697371+859207570+858958014+857256317+853580100
1538+849301215+846682249+845499885+843961809+841155508+838392844+837387110
1528+838402954+840417246+842261376+843691066+845016012+846455886+848185906
1518+850075606+851632638+852700891+853667076+854906235+856693496+859211361
1508+861661281+861826165+859273063+856988845+856753339+858295801+860598901
1498+862166564+861867126+860369193+859511394+860318196+862535286+864973385
1488+866190985+865665780+863961927+861906154+860117704+859112639+859395573
1478+861012746+863213332+864934803+865444175+864702568+863732740+863842910
1468+865185103+866702438+867162672+866673669+866814616+868690638+871795633
1458+874070187+873262864+870123301+867080155+864759140+862834054+861219781
1448+860038904+859495411+859743704+860479586+860985538+860816045+860066261
1438+858836915+857185621+855781801+855340598+855555513+855613720+855190136
1428+854624787+854283125+854267959+854746406+855876435+857193352+857548024
1418+856324402+854291822+852148254+849750223+847189018+845205577+844292990
1408+844165127+844224895+844054584+843688687+843556512+843803393+843943522
1398+843510125+842598504+841445207+840168805+838995883+838026055+837028498
1388+835788745+834408194+833380009+833573365+835793577+840066217+845572291
1378+851193443+855964229+859521430+862358804+865121394+867738502+869764912
1368+871145018+872313851+873830369+875890826+877909356+878918732+878668730
1358+877753318+876922950+876819098+877792866+879539092+881253798+882350076
1348+882898253+883437583+884470079+886040864+887782629+889342264+890665648
1338+891970820+893601151+895836528+898679701+901873160+905175452+908458564
1328+911523640+914240362+917001763+920406940+924164707+927079543+928679172
1318+930048350+932418578+935738934+939011192+941356889+942647638+943479567
1308+944407617+945061206+944582462+943179981+942370428+943147718+944653828
1298+945224603+944273509+942589505+941104210+940032389+939028737+937748394
1288+936386873+935565872+935458155+935494656+935155967+934300621+932513657
1278+929269202+925078186+921374909+919005053+917774518+917453893+918147626
1268+919553229+920873046+921766230+922491036+922897374+922407108+921359670
1258+921032355+921675908+921683342+919413100+915131911+910449291+906376995
1248+902577598+898301835+893598772+889296991+885942142+883278200+880909310
1238+878938060+877675559+877124558+876950827+876807204+876765054+877329957
1228+878709096+880420679+882059559+883757092+885429797+886553655+887142644
1218+887941864+889383745+891204087+893076689+894974938+896945073+898845552
1208+900318061+901211468+902097590+903871693+906695761+909770501+912368801
1198+914842806+918196764+922588421+926854891+929963306+932226634+934420902
1188+936510351+938066194+939298141+940746490+942411166+944025068+945877970
1178+948309825+950601402+951604906+951466338+951629140+953082024+955371519
1168+957321360+958376232+959195820+960835369+963244105+965131054+965799363
1158+966348878+968236570+971248642+973762270+974943965+975839379+977926970
1148+981247103+984483233+986721955+988333404+989970797+991666472+993052153
1138+993765213+993826171+994084277+995580723+997926791+999462637+999696730
1128+1000032148+1001586282+1003963126+1006465231+1009082563+1012044084
1120+1015181194+1017528526+1017791463+1016106344+1014778425+1015851138
1111+1018450553+1019969227+1019485354+1018456649+1018671861+1021065283
1103+1025515593+1030683722+1034909900+1037709288+1039634299+1041094170
1094+1042243081+1043386045+1044561420+1045117700+1044795737+1044896392
1085+1046939380+1050468777+1053034814+1052659997+1049899711+1046995060
1077+1045700890+1046222156+1047880587+1050265831+1052940552+1054134884
1068+1051679092+1046435137+1042846417+1044544694+1050745319+1057694538
1060+1062850252+1066615900+1070178452+1073036940+1073741823+1072049419
1051+1068992149+1065908489+1064561390+1066503201+1070772273+1073482305
1043+1071776892+1067694411+1065235943+1064662268+1063126422+1060796188
1034+1061719480+1066819366+1070771381+1068504410+1062008659+1057017086
1025+1056116914+1058079912+1060302056+1060816111+1059679615+1058340694
1017+1057814150+1058157373+1059201020+1060392378+1060936466+1060699994
1008+1060447687+1061226315+1063457677+1065959262+1066357125+1063835914
1000+1060456533+1058651505+1058899501+1060007525+1060391635+1059238413
991+1057166433+1055274429+1053172267+1049118407+1042740707+1036207266
983+1032138761+1031127973+1031401615+1030411046+1026985203+1022281470
974+1018317189+1015800736+1013894012+1011912727+1009929062+1007421381
965+1003275638+997737226+992710564+989671656+988288057+987162860+985224542
955+982270009+978829670+975635541+972739959+969448744+965624815+962518927
945+961543003+962330254+962784392+961176214+957736023+954272713+952511917
935+952715755+953865632+954970832+955785737+956487647+957119603+957251555
925+956398737+955060782+954433880+954687302+954711091+953897449+953142833
915+953488882+954447559+954348167+952373200+949586376+947558777+946425254
905+944900411+942494649+940870190+941931232+944889483+946653327+945587973
895+943215292+941733490+941648521+942027204+941981932+941571580+941173940
885+940214148+937654876+933787309+930041734+927245617+925464749+924989425
875+926157069+928443369+930509847+931365416+931244466+931161503+931678606
865+932135420+931400504+929507384+927948493+928010864+929239763+930145214
855+930109308+929611161+929156875+929267269+930761856+933739063+937049086
845+939529336+940799568+940606584+938722236+935865310+933538050+932656314
835+933116250+934521185+936540161+938653398+940207978+940737644+940082047
825+938586345+937077409+936084611+935404110+934947074+935155669+936127430
815+937408962+938894480+941163756+944526708+948047111+949950117+949486018
805+948008677+947073120+946382361+944813657+942618646+941347522+941900976
795+943704294+945662163+947263874+948630375+949784713+950498740+950687933
785+950381879+949562216+948115354+946322666+945313141+946193762+948907437
776+951802350+952689588+951194033+949137814+947912259+947156974+946716292
766+947566508+949733270+951465817+951409914+950055456+948694678+947920957
756+947402293+946638013+945800732+945658149+946414996+947389581+947809448
746+947361481+946691463+947113263+949251032+952202815+954257622+954223947
736+952264888+949835635+948296964+947611335+947472618+948528010+950375188
726+950327611+946959158+943021564+942017466+943589292+944567669+943668314
716+942831628+943860035+945584851+945504341+943570930+942239591+942933770
706+944246003+943549446+939663518+933694460+927780264+923411132+920928429
696+920003130+919776618+919184582+918331912+918587936+919816836+919083778
686+914544038+908579960+904535318+902986834+901987494+899626930+895889606
676+892009328+888811482+885205813+878234812+866411252+855457013+855658770
666+865882552+876556979+882438242+882492064+877725738+871141821+866040151
656+863103980+860828162+858905158+858251866+858613823+859564323+862564352
646+868549765+874571009+876477138+873971093+869788478+866112335+863869970
636+863351975+863550981+861883852+856805673+850270225+845838797+844202519
626+842812898+840269981+838718077+840234893+843084533+844902347+846360509
616+848212370+849214908+848466015+846067018+841905961+837231221+835918987
606+840523031+847739871+849921203+843169354+832450919
##END=
