##TITLE=<SNM>
##JCAMP-DX=4.24
##DATA TYPE=INFRARED SPECTRUM
##DATE=2/5/2025
##SAMPLING PROCEDURE=Instrument type and / or accessory
##ORIGIN=Admin
##XUNITS=1/CM
##YUNITS=ABSORBANCE
##RESOLUTION=4
##FIRSTX=4497.3318
##LASTX=599.83466
##DELTAX=-1.4281778
##MAXY=1.7170674
##MINY=0.21831384
##XFACTOR=1
##YFACTOR=1.5991436e-09
##NPOINTS=2730
##FIRSTY=0.24151874
##XYDATA=(X++(Y..Y))
4497+151030049+150535075+150540936+151053531+151527334+151340597+150599557
4487+149914249+149600654+149671882+150154976+150872264+151403886+151613546
4477+151794012+152157935+152513686+152525380+152091012+151415311+150832456
4467+150597581+150745508+151058442+151233372+151126017+150817258+150577007
4457+150793022+151569415+152329623+152304948+151483949+150565592+150046866
4447+149821318+149476228+148619017+147188364+145730297+145076512+145490772
4437+146329141+146777282+146731986+146612787+146533946+146252657+145873629
4427+145863547+146278040+146604261+146426432+145829974+145205010+144888172
4417+144874978+144874232+144817093+145052015+145717642+146230582+145796195
4407+144418395+143050099+142524831+142694618+142984294+143299165+143737280
4397+143920308+143473286+142813127+142653087+142960700+143030260+142469546
4387+141684636+141316930+141430826+141484760+141105099+140564018+140280111
4377+140229131+140116735+139815440+139424773+139216772+139567566+140500710
4367+141354846+141428646+140810056+140041844+139283668+138416906+137677198
4357+137562519+138212940+139256692+140192995+140719837+140756309+140379406
4347+139890451+139678005+139696903+139422658+138733008+138357931+138883702
4337+139771998+139935924+138983491+137524007+136519224+136557438+137510337
4327+138720699+139595176+139965220+139902751+139532231+139078937+138746603
4317+138506203+138304426+138401494+139146830+140432100+141638949+142158197
4307+141923275+141449519+141300856+141510488+141637560+141385298+140916209
4297+140496284+140132809+139752197+139570520+140002540+141138095+142539191
4287+143647294+144145977+143836388+142654839+141056523+139830824+139263419
4277+139003199+138911508+139367979+140452759+141456852+141677973+141317880
4267+141060092+141090190+141087469+140884658+140627531+140534684+140810569
4257+141476206+142158495+142416097+142261219+142117383+142479880+143603722
4247+145026445+145595182+144712738+143260681+142561163+142859579+143412093
4237+143571947+143287676+142851910+142540616+142412519+142358212+142376616
4227+142707319+143519243+144480556+144937932+144686256+144257907+144219143
4217+144478898+144637978+144725150+145117466+145820842+146238186+145816406
4207+144767455+143902930+143725595+143964831+144118097+144105442+144140553
4197+144284455+144447766+144573934+144547554+144212975+143731754+143589493
4187+143975752+144462917+144554441+144231723+143731503+143196246+142842843
4177+143104545+144254879+146015891+147698788+148668124+148695632+148036042
4167+147250740+146832669+146847047+146965100+146901922+146713592+146639391
4157+146826696+147231675+147623534+147748845+147671299+147761621+148129671
4147+148344559+148032333+147467417+147200245+147329898+147511967+147533483
4137+147519356+147628193+147841235+148064714+148329351+148829106+149641961
4127+150441883+150717675+150251559+149241288+148166376+147618353+147864391
4117+148446686+148605664+148159471+147651051+147656912+148216880+148892199
4107+149231727+149196821+149168046+149560977+150414534+151267785+151504253
4097+150935041+149952957+149086083+148642797+148731740+149251808+149876492
4087+150284946+150384120+150289484+150207996+150287984+150519299+150874659
4077+151430201+152114223+152559615+152504209+152123010+151779317+151664843
4067+151746592+151863060+151869573+151764119+151580140+151242830+150734503
4057+150269124+150069416+150091696+150146198+150175681+150282523+150557681
4047+151050428+151814307+152668452+153027203+152496317+151549390+151000520
4037+150937976+150826195+150524089+150530938+151246651+152439131+153460202
4027+153844075+153709678+153505377+153397118+153217006+152986632+153051151
4017+153585811+154271231+154627280+154541469+154328110+154325966+154603193
4007+155019828+155380900+155564376+155661667+155873638+156171289+156296228
3997+156150715+155841024+155349488+154660201+154171517+154379667+155199614
3987+156163518+157071792+157831283+158044465+157508052+156789823+156634078
3977+157077588+157640054+158035314+158245775+158189717+157791456+157274370
3967+157040502+157257299+157749245+158335472+159072618+159937590+160487458
3957+160313915+159741554+159543486+160084184+161187013+162470523+163382124
3947+163509895+163248799+163406500+164004934+164193274+163447798+162236897
3937+161467678+161763214+163094769+164760548+165797330+165757262+165141402
3927+164847413+165218557+165741085+165808214+165608002+165806294+166533208
3917+167054077+166604529+165371394+164196759+163589528+163585279+164381260
3907+166458998+169831334+173482825+176087284+177305081+177349939+175835618
3897+172823039+170053610+169440285+170849889+171956799+171192184+170322292
3887+171538132+173949164+175147617+175347977+176199028+176724892+175243669
3878+173472910+174049987+176709181+179576209+181796721+182748725+181505210
3868+179350932+178887351+180333090+181331742+180286276+178308150+177496421
3858+179354771+184563876+191912182+195911354+191821180+183921292+177796915
3848+175308207+176274953+179523095+183492244+187196681+190450769+192778925
3838+193073939+191275953+188837078+186686379+184689709+182974468+182293493
3828+182809517+183912775+185787469+189358246+193571234+195169997+193964052
3818+193007668+192634530+190792170+187721614+185754576+186378337+189494851
3808+193144758+194896712+195445481+197123281+199297556+199423240+198069005
3798+197337171+196618774+194633268+192425820+191836742+193161344+195579849
3788+198500755+201604503+204357849+206754940+209839399+214041168+217886459
3778+220008477+221438767+224183317+229201752+236131372+243434522+249492460
3768+254584099+260125622+266405297+273257780+281525663+291766622+302568481
3758+312171813+321461662+333102123+348579042+366463153+382515528+394262105
3748+404518662+415930044+426615724+433166726+437373378+443686989+453703733
3738+466489514+480005806+491676980+499280941+502755442+504273490+506119801
3728+509153476+512562377+514722450+515042475+514555691+514615403+516081679
3718+519370971+524670538+532260520+541898311+551185141+556803688+558791785
3708+559769526+561766941+565954360+572115003+577782825+580242424+579570506
3698+577726879+576558487+577335067+580297625+584613784+589019659+592324419
3688+594362201+596501327+599834936+603894062+607067398+608068137+607642742
3678+607596859+607620043+605606638+602686496+601765931+602555407+602260840
3668+599798185+596705060+594278858+592642096+591683624+592254048+595753112
3658+601928776+607991094+612002287+615639222+620643923+625511758+626832335
3648+624225024+621272791+620262212+620720519+621442158+621977956+622952380
3638+625287375+629092710+633729751+639103527+645459592+650866765+650902100
3628+645859157+643081584+646415268+653980241+662109749+667382665+668156747
3618+666506305+666167719+668042692+670412948+672473317+675354061+679289925
3608+682053558+681476947+678397091+675696077+675391930+677538176+681064262
3598+684869075+688077671+690051120+690822519+691459139+693123670+695450987
3588+696783193+696411807+695752673+696863032+700590392+705508694+708641701
3578+708507966+706768293+705869719+706497468+708048839+710107493+712086831
3568+712798146+712092794+711261460+710831630+710334708+709848447+710076482
3558+711224933+712483637+712379348+710072606+706891368+705227433+705438248
3548+705559161+704261768+702500998+701582371+701094917+699840164+697970483
3538+697373372+699870280+705201938+711092316+714936191+715225205+712478568
3528+709021735+707283851+708168112+710358787+711992456+713048247+714538639
3518+716119008+716220763+714571215+712627660+711472127+710844303+710057398
3508+709242763+709309183+710504374+711578056+710842886+707905413+704004138
3498+701169015+700996368+703216115+705801360+707442857+708821654+710881725
3488+713258018+714894520+715292594+714530439+712915406+711311928+710986685
3478+712491390+714819154+716017626+714940589+712266337+709607962+707928373
3468+706897853+706087988+706285684+707826394+708358651+705569747+701618452
3458+700882536+704334003+708803241+710972670+710372503+708572820+707066401
3448+706510663+706978661+707963708+708417244+707655237+706120043+704686976
3438+703769915+703422010+703551273+703930487+704481603+705370561+706570597
3428+707672234+708371771+708756128+708611137+706841198+702769512+698019310
3418+695775261+697645613+701960244+705604187+707085634+707305022+707601192
3408+707993675+707874327+707592544+708023717+708910438+708968435+707681701
3398+705968939+705001410+705190682+706345320+707792700+708289845+707456051
3388+706395340+705756633+705263587+705143345+706231563+708384443+710099666
3378+710527856+710083266+709331398+708791761+709016666+710086322+711332801
3368+711472127+709875730+707794041+707053281+708121744+710430947+713078139
3358+714716803+714764065+714208849+713773800+712706902+710813664+709361290
3348+708738312+707805447+706154260+705039578+705815449+707871047+708861089
3338+707791134+706205845+706065177+708205012+712126489+716036709+717646300
3328+716111106+713166252+711889583+713465553+715107870+713297527+709179026
3318+706970610+707800974+709430469+710762004+712618491+714622130+714729998
3308+712235027+709265276+708508413+710211484+712281544+713293055+714154579
3298+716267801+719392310+721890113+722091237+719944917+717534705+717009754
3288+718425079+720035863+720410008+719685200+718586843+717229068+715613066
3278+714405277+714119916+714073548+713278071+712152505+712115382+713747560
3268+716101639+717676044+717899010+717234063+716250730+715460173+715336427
3258+715537253+714853669+712776006+710403589+709184841+709522458+710988474
3248+712935086+714334458+714349516+713946970+715260689+718528101+721621972
3238+723015455+722855480+721427929+719068409+716958392+716261390+716946614
3228+718079634+718110720+715512951+710529496+705595689+703262706+703975587
3218+705983848+707392911+707979138+708446540+708971789+709638824+710867859
3208+712232493+712258435+710418647+708117346+707040235+707594855+709026431
3198+710379436+711212335+711610036+711842619+712044787+711814888+710483352
3188+708470320+707308302+707427426+707343487+705914073+704056991+703444523
3178+704346153+705116360+703838199+700703179+698041152+697450079+697954232
3168+697892955+697499205+698001419+699134961+699513504+699051917+699024634
3158+699744074+699978148+698895297+697273928+696283364+695865088+694982765
3148+693318011+691970597+691982823+692825264+693041968+691862580+689622705
3138+687145626+685313815+684886891+685829000+686810841+686477846+685149665
3128+683965581+683158624+682508361+682172906+681950014+681145144+679869145
3118+679008068+678833333+678922862+678848614+678212367+676922130+675553843
3108+674613226+673950962+673523293+673782116+674722062+675475943+675420481
3098+674884125+674244075+673066253+671007152+668974737+668258502+668980328
3088+670277796+671529642+672479802+672648350+671561399+669464130+667345839
3078+666173086+666103013+666439960+666430045+666072897+665893316+665900845
3068+665294192+663523955+661162496+659228930+658078168+657419184+657140457
3058+657385266+657772009+657449226+656175761+654551709+653152262+652246234
3048+652001947+652136502+651961171+651344231+650755469+650299472+649892453
3038+649913400+650368949+650290602+649018404+647179511+645786848+645119813
3028+644743134+644186575+643449915+642816724+642250623+641458352+640635814
3018+640380570+640748229+641084579+640678231+639134166+636629132+634165545
3008+632875457+632775119+632907512+632854957+633005167+633169838+632451814
2998+630884267+629766081+629798956+630037949+629303972+627735605+626187962
2988+624891463+623582328+622389821+621672393+621284792+620718133+619720749
2978+618388655+616933075+615629196+614764839+614530802+614881801+615325795
2968+615097163+613927057+612514751+611927033+612556869+613659549+613884976
2958+612531524+610184489+607953374+606435847+605613235+605195742+604764346
2948+604067642+603315587+602784263+602337920+601729553+600947121+599892001
2938+598328554+596630142+595771599+595928406+595834068+594342781+592080058
2928+590622652+590472517+590671629+590131843+588666461+586907593+585697306
2918+585384847+585370311+584577667+582747346+580826862+579719970+579330730
2908+579202809+579216078+579104483+578289960+576875082+575773707+575266684
2898+574544224+573222268+572069791+571563812+570923502+569331467+567260624
2888+565874372+565658637+566112546+566511440+566651772+566756472+566701159
2878+565886039+564322293+562999219+562419924+561688445+559877655+557446794
2868+555533243+554637874+554465040+554378455+553927491+553297393+552929585
2858+552696182+552101494+551053791+549723225+548127984+546441127+545096956
2848+544242774+543529669+542497174+540953258+539219139+537999086+537626991
2838+537654722+537543910+537298394+537007666+536386849+535301314+534219209
2828+533633317+533417209+533027484+532017464+530286886+528185479+526380355
2818+525378312+525253299+525798861+526545586+526643017+525387294+523050697
2808+520661469+518910465+517674348+516582850+515640667+515075089+514778397
2798+514265299+513220391+511751543+510069866+508352557+506935331+506141345
2788+505842789+505556422+505010076+504357839+503811941+503280169+502460129
2778+501209625+499737906+498419528+497461578+496772291+496087216+495207689
2768+494204937+493360446+492778878+492125597+490963876+489294872+487532463
2758+486033125+484862161+483928402+483169675+482639730+482417248+482368905
2748+482152499+481534031+480511636+479160309+477608566+476072402+474661327
2738+473280964+471899483+470715883+469938781+469561282+469373054+469068870
2728+468405525+467397071+466341019+465536000+464970906+464364701+463510482
2718+462514588+461623320+460814499+459774586+458442380+457229148+456386148
2708+455624105+454749423+454067404+453753679+453494073+453038897+452454049
2698+451710381+450675015+449479153+448333050+447130740+445726970+444419550
2688+443712409+443615500+443485790+442752111+441611338+440710677+440225534
2678+439636473+438510274+437122606+436066293+435527738+435214310+434805390
2668+434231574+433570093+432865487+432159614+431622661+431426382+431396117
2658+431033526+430046616+428672366+427397336+426532121+426020141+425502682
2648+424663968+423588386+422650228+422068622+421736148+421465510+421241090
2638+421114027+420915214+420354556+419505666+418831922+418523191+418188220
2628+417452603+416491150+415688926+415109259+414598658+414133493+413715664
2618+413141513+412259115+411290469+410536811+409926133+409189920+408313896
2608+407480475+406744187+406093477+405643892+405439861+405239034+404797687
2598+404174783+403508642+402786257+402042552+401432544+400946655+400382233
2588+399672036+398970374+398435658+398107545+397890058+397575997+397056860
2578+396499967+396114006+395811649+395338694+394668826+394030752+393579117
2568+393234492+392832691+392303491+391730681+391292427+391070877+390911499
2558+390554574+389894844+389075885+388382759+388023263+387949910+387933808
2548+387798470+387502710+387074818+386573535+386065394+385598477+385206478
2538+384860288+384424979+383823805+383206119+382763988+382463532+382139854
2528+381766790+381483815+381413444+381522430+381612891+381437895+380901837
2518+380184931+379624981+379422999+379460384+379447897+379262987+379072783
2508+379072299+379170364+379031000+378425987+377476387+376513629+375780360
2498+375346094+375202370+375252651+375270132+375104864+374896882+374857074
2488+374923457+374875114+374659976+374364178+374012509+373622448+373303654
2478+373127129+372996190+372747058+372309363+371721719+371065083+370467562
2468+370124205+370150668+370406248+370622916+370701748+370700928+370598465
2458+370309302+369894865+369521018+369231520+368937623+368603137+368302531
2448+368128467+368121273+368215313+368203870+367905575+367429005+367073012
2438+366909607+366706545+366317603+365875137+365522237+365233895+364999784
2428+364922405+365009363+365066689+364908316+364561940+364240014+364141092
2418+364249220+364370618+364436740+364597572+364876112+365005747+364813084
2408+364493879+364338004+364387614+364461787+364395889+364222757+364127226
2398+364225366+364464359+364700781+364737383+364403418+363782527+363162158
2388+362580887+361673778+360098031+357823380+354883745+351137488+346442748
2378+340899902+334805604+328484874+322271862+316534153+311507164+307104177
2368+303091513+299522059+296783846+295101965+294314557+294392476+295805825
2358+299012483+303961200+310603726+319451872+330481469+341571820+349346490
2348+351555242+348605543+343590108+339903189+338093965+336571480+334453115
2338+331956132+329306218+326442620+323322882+320226030+317837026+316744633
2328+316766028+317111137+317267646+317468770+318280685+319992441+322459829
2318+325246124+327807701+329835046+331525034+333327773+335440436+337697456
2308+339837961+341728813+343396326+344888508+346122425+346991405+347602568
2298+348203294+348892618+349598715+350256879+350830248+351283262+351702358
2288+352289331+353084100+353835632+354274259+354383692+354310899+354140636
2278+353868731+353534132+353286268+353282727+353525895+353843497+354022668
2268+353940555+353647404+353378555+353393614+353748190+354256629+354644751
2258+354734057+354575349+354393122+354339785+354390961+354482093+354597489
2248+354742965+354941369+355216256+355577132+356045465+356565832+356903151
2238+356887012+356730391+356828195+357301970+357966247+358643346+359317537
2228+360013943+360660068+361163550+361616639+362276555+363280014+364497234
2218+365702414+366780755+367774338+368815145+370018536+371446832+373181846
2208+375295179+377634051+379827484+381702495+383506687+385541897+387818113
2198+390191238+392563208+394868907+397109080+399375642+401679961+403894528
2188+405969471+408031107+410180036+412271155+413986153+415191408+416117862
2178+417029482+417877364+418458895+418725844+418804191+418841427+418842284
2168+418621331+417987319+416910432+415459698+413726175+411802635+409734141
2158+407539403+405242426+402808434+400168063+397282659+394103658+390643619
2148+387037396+383401615+380105316+378251774+378951684+381954422+385887901
2138+389817988+393727090+397714577+401598334+405193934+408574731+412024185
2128+415692504+419454453+423224342+427043877+430839297+434562632+438396294
2118+442465520+446717235+451133248+455583887+459669663+463118446+466080780
2108+468920003+471963145+475374021+479170634+483472182+488602455+494800893
2098+501851053+508928795+514943851+519269179+521970865+523329908+523451454
2088+522164907+519097575+514015943+506958068+498028536+487550167+476251796
2078+464918426+454185298+444616537+436472828+429623531+423876617+419021194
2068+414791209+411211301+408476815+406360090+404401588+402480247+400656784
2058+398942792+397453518+396266825+395258669+394352491+393557797+392821211
2048+392195660+391799823+391506336+391145088+390811719+390617043+390568775
2038+390829275+391686289+393427975+396436230+401064065+407420055+415461375
2028+424946571+435154562+445048753+453762922+460784047+465937764+469314014
2018+471061477+471339607+470376588+468333589+465268530+461314067+456674454
2008+451500199+445867265+439767674+433225692+426534618+420147468+414276546
1998+408852377+403901722+399715980+396474323+393801598+391035505+388029226
1988+385278862+383206082+381749831+380617668+379572500+378511305+377478549
1978+376577589+375827995+375149815+374471636+373870536+373575857+373667847
1968+373808104+373531875+372802744+372003241+371431364+371088230+370896834
1958+370864034+370950805+370944357+370622655+370031917+369490864+369295555
1948+369538126+370247690+371404229+372546828+372777771+371737262+370151638
1938+368911309+368245057+368000211+368052617+368248448+368374468+368334735
1928+368266004+368495903+369190222+369976306+370395216+370685198+371271314
1918+371698386+371180666+370025767+369313036+369518260+370208926+370663319
1908+370488808+369846746+369185562+368751669+368452033+368143153+367909862
1898+368022948+368578164+369248106+369712153+370173591+370848603+371248615
1888+370814535+369908544+369262866+369025848+368972846+369046609+369245721
1878+369386985+369291119+369124994+369547519+371343996+374497652+377474933
1868+378169103+376332371+373823685+372224157+371675575+371581014+371484962
1858+371291292+371113874+371109140+371360881+371903611+372756563+373938709
1848+375658105+378136787+380597094+381118243+379162126+376755045+375683973
1838+375817447+376138776+376347355+377198816+379308869+381933810+383503817
1828+383729206+383672738+383529014+382485150+380632876+379164847+378801213
1818+379213861+379782048+380419302+381513857+383141600+384648690+385292579
1808+385088622+384711570+384941468+386287317+388559805+390722488+391767917
1798+391913989+392434989+394384620+397475397+399670172+399018456+396556211
1788+394922319+395179091+396523747+397953422+399325994+400681832+401719769
1778+402547785+404125471+407423745+412114236+415925683+416628537+414829600
1768+412464862+410772525+410704912+412684622+415537337+417394644+418215280
1758+419212776+420534248+421953188+424381179+428656189+433571584+436549424
1748+436834375+436099429+436014670+437169942+439358940+441738439+443491977
1738+445443696+449697833+456493569+461845988+461904953+459191639+457296538
1728+456891084+457767145+459913353+463081620+467284134+473470757+482341510
1718+492035061+498030772+498517145+496719289+495958289+497525315+501647506
1708+508023139+515483562+522394918+528867349+536987203+547261129+556143660
1698+560750622+562491339+562528686+561760978+562651202+566722889+573319476
1688+581558044+592048600+604487893+613894927+616304729+615815113+617159545
1678+621763003+629163976+637417080+644558484+651127228+658324243+664596817
1668+667608687+669056961+672320572+677791780+682949821+686111379+688891487
1658+693819256+702315827+714553473+726945803+731161884+728366569+727494235
1648+730306249+732736066+731169413+727497366+725108176+725348810+728675487
1638+734702954+740267419+739839824+733160455+726210037+722225196+720539196
1628+719576065+718628589+717708993+716192659+713385119+710645489+710118526
1618+711389306+710875388+706355980+700748354+697229424+695923383+695300405
1608+694166937+692660294+691483515+690718453+689862295+688720479+687769126
1598+687508813+687730065+687703004+687070410+686174519+685414973+684754498
1588+684005985+683284233+682929917+683022578+683360717+684199133+686413811
1578+690156229+693268587+692967199+690726876+690151607+691672340+692731932
1568+691911631+691185258+692322826+695410434+701146279+710865325+721511868
1558+723327130+716230230+709656641+706663034+706267271+707408417+709335274
1548+711968676+716308801+723366640+732981023+743691079+751745072+751713241
1538+745585509+741441737+742200016+745503285+747887853+749111969+751400969
1528+755310444+759453918+763314417+768143935+774146951+779136445+781627389
1518+782424954+782141531+781165057+780920771+782934847+788009844+796327430
1508+805665323+808725648+801777094+793561933+790717418+792716063+796663408
1498+799494206+799282496+797085485+796200926+798610467+803307443+806989404
1488+807010053+804203780+801324154+800311525+801457889+803863852+806661478
1478+809789565+813567019+817991382+821942229+822884636+819965426+816348096
1468+815328385+817371310+820465106+822167507+822714747+824785701+830182959
1458+836999717+839250624+834849968+829069097+825486580+824096451+824006102
1448+824407903+824612382+824410214+824154224+824243232+825014333+826893481
1438+829805236+832353283+833047900+832587058+832456976+832797501+832974472
1428+833054012+833833239+835660429+838118722+840766735+843180078+843872085
1418+841212966+836584124+833074363+831815361+831954538+832400321+832927061
1408+833819522+834758202+834680451+833318948+832118613+832565142+834615074
1398+837171917+839139029+839674939+838678188+837482475+837552548+838647177
1388+839088040+837828814+836172856+836551175+839998541+845509780+851263441
1378+856176525+860281161+863796140+866349405+867569196+868017663+868804642
1368+870704216+873774754+877223387+879572770+879638221+877733876+875239652
1358+873054270+871264651+869857526+869047885+868801884+868373694+866906038
1348+864565675+862460057+861462412+861688658+862810273+864263243+865294136
1338+865380087+864686216+863875680+863603961+864125036+865118283+865996282
1328+866470616+866743156+867139590+867806923+868919965+870634069+872592086
1318+874149197+875310097+876599067+877869102+878281638+877723589+877295026
1308+878059492+879908822+881861696+883178844+883881064+884283388+884521412
1298+884621154+884496216+883764922+882154809+880073270+878068959+875876794
1288+872838982+869112218+865501895+862233811+858831321+855168518+851841394
1278+849361482+847542343+845891007+844321000+843191036+842672720+842459444
1268+842301035+842463992+843300245+844608299+845870283+846887534+847838066
1258+848957519+850309405+851723463+853004978+854189957+855435243+856801293
1248+858346476+860188426+862194227+863920930+865200581+866450638+868011774
1238+869617563+870989055+872422346+874221134+876032967+877369124+878484403
1228+880222137+883054576+886488971+889459320+891336604+892464928+893497013
1218+894596786+895742703+897236599+899341397+901852022+904359665+906578145
1208+908387742+910052646+912270082+915560679+919653611+923656939+926792406
1198+928979875+930801101+932906719+935386184+937722670+939349854+940213988
1188+940783442+941603892+943158021+945802232+949165585+952057511+953801806
1178+955090031+956610763+957986728+959194816+961549118+965737618+970009608
1168+971727663+970338504+968017300+967566597+969794022+972833922+974621975
1158+975699906+977986521+981334741+983384897+982905270+981603330+982228544
1148+986003092+991752131+996687206+998420841+997190240+995847970+996939170
1138+1000101325+1002923625+1004288483+1005474579+1007407475+1008934917
1130+1008877218+1007990050+1007716094+1008304633+1009421178+1011110757
1121+1013001236+1014288864+1014934802+1015441415+1015886602+1016477004
1113+1018174335+1021332538+1024370201+1025419581+1024830670+1024585788
1104+1025902414+1028257462+1030076750+1030048199+1028465892+1027368728
1095+1028656505+1032205924+1036619328+1041149173+1045930236+1050678649
1087+1053843114+1053463974+1049438357+1044392955+1041771406+1043421400
1078+1048739938+1054766586+1057553030+1055780035+1052333414+1051010601
1070+1052765779+1055807393+1058351936+1059993284+1060703183+1060391358
1061+1060055380+1061349717+1064188493+1066263323+1065885600+1064040668
1053+1062635258+1062541181+1064032692+1067137670+1070946061+1073688523
1044+1073741823+1070601063+1065907367+1062981970+1063458914+1065340373
1035+1066145839+1066546671+1068362158+1070511981+1070293562+1067729712
1027+1065140367+1063329204+1061419194+1059549588+1058651536+1058296474
1018+1057319926+1055737693+1054289046+1053361250+1053491631+1055354603
1010+1058575872+1061641937+1063130391+1062655236+1060885298+1058788476
1001+1056922075+1055534481+1054655886+1054003834+1053572513+1053490885
993+1052727388+1050106659+1047082042+1046300728+1047282197+1046562906
984+1042494797+1037286140+1034016490+1033490720+1033980485+1033205284
975+1029987742+1024629919+1018820348+1014529721+1012247280+1010831359
967+1009194857+1007006717+1003740795+998873259+993176923+988276214+984777188
957+981758086+978498799+975931743+975246966+975579440+974698310+971862591
947+968154240+964567623+961555827+959648873+959311480+960416992+961993634
937+962608040+961542931+959247296+956527272+954355905+954034016+956041458
927+959197723+961815843+963053823+962918895+961893594+960624080+959499111
917+958710418+958575863+959392809+961037287+962726642+963131872+961212395
907+957355997+953228103+950404684+949491648+949959795+950492648+950046194
897+948743135+947346446+946112864+944853265+943765420+943205581+942962190
887+942703889+942559270+942603998+942648800+942777987+943023019+942713282
877+941202016+938957594+937051162+936166678+936220798+936118670+934763951
867+933134084+933803355+937383934+941008869+941671729+939788108+937939524
857+937511408+937962260+938365478+938441067+938443080+938705108+939122117
847+939276426+939334348+939994227+941192475+941781535+940764582+938377181
837+936013412+935125721+935959813+937465189+938417063+938388289+937998713
827+938428171+940015696+941442725+941184796+939518402+938233457+939015367
817+942238202+946244064+948162573+946571693+942943031+940047602+939481949
807+940254615+940108506+938800527+938566528+940894590+944609426+947577314
797+949462575+952012337+956052863+958820671+956435357+949937059+945078542
787+945377545+948908924+951839167+952682875+952327218+951787656+951333822
777+951027290+951067172+951460549+951722130+951227370+949675031+947116920
767+944297601+942992381+944657732+948323219+951020581+950985768+949555832
757+949299320+951265389+954267941+955820280+954118849+949881373+945671703
747+943263653+942716338+943770638+946215066+948667769+949002927+946817321
737+944389218+944606668+948276330+953555135+957550710+958431989+956308629
727+952577393+949179153+947962790+949276584+951563944+952969727+953008938
717+952374927+951584072+950376729+948449723+946605462+945938651+945858663
707+944646177+941993394+939160210+937039682+935534679+933653965+930094483
697+925659535+923625182+925314910+927773949+927830008+925690546+922996091
687+920330560+917164082+913570979+911153537+910877568+910784535+907304518
677+899652252+891591029+887329549+886289040+883263006+875152135+868006556
667+871721243+883528836+893312214+896133099+892659343+887228241+883799586
657+882447774+880753797+877759893+875236819+874979487+876396452+876898368
647+874455356+869955405+866343591+865487284+865980478+864572385+860618406
637+857407200+858225339+862763011+867475865+868752088+865761463+861120397
627+858730983+859830607+861478812+859836869+854640064+849361109+847828972
617+849973055+850836294+845645975+836134614+828842255+828130939+833596556
607+842203305+848841675+846850112+834494981+820166029+815203372
##END=
