##TITLE=<SNM>
##JCAMP-DX=4.24
##DATA TYPE=INFRARED SPECTRUM
##DATE=2/5/2025
##SAMPLING PROCEDURE=Instrument type and / or accessory
##ORIGIN=Admin
##XUNITS=1/CM
##YUNITS=ABSORBANCE
##RESOLUTION=4
##FIRSTX=4497.3318
##LASTX=599.83466
##DELTAX=-1.4281778
##MAXY=1.7161906
##MINY=0.2906231
##XFACTOR=1
##YFACTOR=1.598327e-09
##NPOINTS=2730
##FIRSTY=0.30554849
##XYDATA=(X++(Y..Y))
4497+191167692+191519821+192255720+192485550+191987815+191218353+190424353
4487+189565651+188896783+188897977+189659254+190688771+191286802+191094693
4477+190415515+189901614+189916810+190419542+191231927+191962364+191988748
4467+191125403+190137783+190084791+191146920+192421147+192946553+192631585
4457+192074743+191811033+191912076+192079013+192004149+191759253+191747823
4447+192104520+192342219+191888377+190758432+189513349+188807917+188988577
4437+189762925+190257155+189749052+188410833+187131478+186647821+187028665
4427+187794230+188329853+188362987+188068008+187689906+187300672+186897695
4417+186472475+185993497+185582578+185633780+186386591+187458696+188124319
4407+187996091+187352209+186795870+186536971+186233713+185711795+185360840
4397+185454313+185662588+185551290+185098231+184555037+184187712+184279245
4387+185009234+186129277+186903532+186669730+185517205+184149600+183079658
4377+182350434+181929203+181829559+181897151+181979808+182327406+183309301
4367+184628745+185318234+184833701+183735231+182876436+182465796+182317076
4357+182382766+182674836+183139623+183763013+184372698+184527534+184121538
4347+183715112+183845932+184426902+185005523+185202145+184924003+184535589
4337+184576405+184974608+184940990+184021894+182836067+182310587+182555483
4327+183001140+183310476+183535850+183598109+183371635+183238465+183796874
4317+184926185+185788280+185867525+185485918+185249226+185415510+185776347
4307+185898776+185585599+185078075+184696224+184616028+185062953+186070431
4297+186927492+186728558+185643979+184826821+184995063+185773624+186409134
4287+186530258+186158216+185421925+184492238+183634934+183101996+182986335
4277+183274527+183909626+184721583+185474282+186044140+186400072+186498467
4267+186427109+186475495+186785876+187141827+187344490+187573089+188087568
4257+188694549+188875844+188551703+188377923+189013041+190326872+191572738
4247+192190833+192205339+191868948+191297804+190631770+190118485+189711499
4237+189071571+188373093+188436918+189506413+190582414+190615977+189820765
4227+189211788+189292096+189616461+189467536+188764509+188150573+188141250
4217+188546948+189000809+189537048+190264240+190941517+191198253+190885467
4207+190227880+189835309+190228272+191139835+191678554+191290942+190216581
4197+189067711+188315515+188124356+188427521+189134985+190221634+191534626
4187+192699326+193363998+193419078+192938162+192102619+191246583+190754125
4177+190766114+191116322+191644115+192371157+193262546+194020205+194256487
4167+193885712+193373657+193412068+194081420+194656871+194614190+194266499
4157+193892257+193050690+191557635+190355344+190488439+191739526+192997773
4147+193595022+193632183+193338453+192830053+192369088+192318091+192798634
4137+193583648+194278172+194611692+194695916+194935106+195498829+195957631
4127+195669104+194508729+193071108+192174182+192262694+193183077+194344309
4117+195141330+195424842+195563493+195930613+196436366+196738505+196701045
4107+196341980+195597391+194624744+194123131+194764645+196342166+197878835
4097+198536403+198201969+197341645+196500787+195924684+195604365+195553573
4087+195787207+196120802+196303215+196252517+196012581+195685587+195463812
4077+195551149+196036093+196826346+197569312+197771583+197259808+196435359
4067+195902383+195899642+196145302+196251472+196248153+196484454+197032309
4057+197606007+198061584+198442092+198578487+198282259+197942343+198267137
4047+199329564+200399879+200805727+200513973+199899627+199481473+199720532
4037+200483375+200996978+200831010+200438979+200370269+200602710+200886035
4027+201096697+201169640+201165332+201285394+201522272+201664111+201837388
4017+202477168+203488375+204029462+203510191+202339412+201371668+201042605
4007+201308086+202005817+202922564+203772166+204372752+204714887+204771030
3997+204442059+203817215+203332346+203459809+204196772+205046841+205620371
3987+205971363+206162111+205958441+205310308+204692195+204598648+205114805
3977+206221013+207929280+209794640+210890593+210689999+209571299+208267089
3967+207269382+206882814+207394048+208903811+211035378+212900495+213607475
3957+213039743+212003942+211484130+211989025+213548461+215609229+216902009
3947+216543373+215414081+215188595+216121471+216860037+216404274+215220126
3937+214427654+215009613+217425512+220881166+223125672+222385484+219717230
3927+217933745+218430324+220006652+220901732+221317444+222672613+225032966
3917+226432811+224997688+221311086+217707346+215857724+215994548+218052799
3907+222607930+229986355+238562242+244928528+246731796+244100331+238297264
3897+231366901+226338593+225676214+229037221+232463022+232204664+230315288
3887+231110594+234357432+236317195+236502555+237443094+238128239+235609246
3878+231897658+231562796+235519634+241318523+246629001+249555986+248422201
3868+245229119+244101263+245256920+244845237+240887392+236228515+234529832
3858+237651891+246564113+260224396+269703473+264576863+251190564+239974020
3848+234630539+235075151+239465899+245355539+251445622+257895424+263753887
3838+265632970+262015507+256144233+251324125+248046074+245945180+245316009
3828+245991478+247107549+249452743+255238264+263146756+266985472+265057873
3818+262324712+260029657+255177441+248367270+243742478+243856050+248516046
3808+254830347+259293981+262719540+268147096+273591471+273523842+268875239
3798+264805500+261994064+258652729+255344844+253942203+254802807+257171756
3788+260523980+264238458+267216477+269503570+272965862+278388010+283277817
3778+285067306+285162139+286904882+292250825+301021413+310701606+317961853
3768+322549502+326961543+332575465+339777612+349638596+362315789+375083602
3758+384995303+393545104+405352613+423621689+446550350+465660918+475234456
3748+481891432+492804906+505527297+511514511+511009056+512672461+521603087
3738+537812756+556931341+570802807+573082498+566142924+558138964+554642290
3728+556166820+560349330+564414668+566692383+566737245+565282712+564291903
3718+565657980+570351016+579255165+592469511+605846300+611888594+609566763
3708+604819766+601904211+602626592+607823143+616040152+623384268+627051367
3698+627509983+627112973+628130818+631315770+636198696+642135640+647418783
3688+648846615+645330213+639706223+636177589+637977519+646177784+659646945
3678+674697507+682876813+677646550+667420888+662887238+662906257+660199089
3668+653923534+649323952+648693942+650670264+653541590+657228044+662147889
3658+666517604+667898896+669165701+677035634+693751652+712813329+720873600
3648+712987259+699513697+690004487+686303863+686005827+686354431+686469514
3638+686971090+688295400+690627187+694979599+702749515+712550422+717311702
3628+712093596+704269831+701762398+705517394+713488462+722677036+728875322
3618+729537700+726950613+724458097+722912422+722188139+722528689+722801516
3608+720743600+716837945+714308362+715117521+717779193+718921145+717372860
3598+716121344+718653762+724016710+727825257+728867640+730868872+736062365
3588+741101992+741998937+739649846+736220334+732173193+728777915+728140448
3578+730072243+732076458+732557897+732226222+732999582+737183061+745358787
3568+753169053+754158705+748460429+741668157+736746299+733507796+731923561
3558+732274776+733626906+734168757+733316414+732940511+735310337+739977790
3548+744061178+745440233+744679031+743544537+742627230+741180976+738738655
3538+736117483+734819277+736070719+739876879+744260541+746648043+747143204
3528+748427164+750841665+750691677+745763553+738864105+733894214+731736132
3518+731609340+733816498+737985508+741108257+740858252+738470825+736373081
3508+735782154+737256228+740551340+743892321+745827696+746917738+747803420
3498+747580191+745260038+741287855+737422624+735592413+736505169+739514178
3488+743633664+747748825+750479263+750913042+748820146+744693500+740330870
3478+737631384+736399931+735031319+733132714+731770590+731825931+733161130
3468+734728583+735696755+736571027+737954780+738923176+738066208+735410055
3458+732570650+731680418+733846406+738112301+742550558+746046524+748058124
3448+747769857+745149132+741916522+740059609+740002552+740695361+740979376
3438+740421713+738965465+736758978+734638859+733765408+734323593+735004245
3428+734257512+732105919+730049942+729330656+730276155+732974969+736774566
3418+739364786+738672947+735580032+732922015+732402762+733717376+735593606
3408+736628307+736001281+734409961+733752505+735038330+736918289+737002419
3398+734613202+731582788+730046586+730312253+731597332+733656367+736473844
3388+739289830+741042847+741192760+739549605+736113231+731923561+728873979
3378+728024172+729224076+731873739+734751630+735708316+733742809+731098963
3368+730880134+733244739+735929755+737621987+738597841+738849263+738264153
3358+737881464+738679883+739868525+740068037+739023267+736914709+734228275
3348+732316394+731737400+731378578+730855447+731804749+734898933+737600656
3338+737286733+735023264+733820227+734431143+734656312+732698338+729945376
3328+729368097+731437424+733512793+733610721+732720265+732495395+732897402
3318+732986530+732321615+731658416+732720415+736075194+739145435+738581656
3308+735046012+732235993+731785731+732218988+732416038+733582156+736546787
3298+739305418+739447649+737833506+737805612+741409053+746991426+750206137
3288+748397629+743977719+741094086+740140458+738392736+735199282+733526069
3278+735934305+741187838+745395482+745955980+743626057+740744139+738765580
3268+737692319+736904416+736273437+736457585+737947918+740385838+742995301
3258+744859001+745024726+743787381+742911618+743175198+743140814+741404056
3248+738531312+735858006+733781369+732363680+732649038+735675947+740228392
3238+743250453+743174601+741343867+739942736+740328707+742602618+744964239
3228+744630327+740942010+736238607+733088411+732221076+733319248+736074000
3218+739724728+742639611+743440790+742522739+741384814+740650835+739754412
3208+738087091+735890524+734111253+733209461+732564162+731705478+731284304
3198+731674004+731916103+731202858+730037785+729322675+729380478+729890482
3188+730230957+730023987+729329612+728394182+727573089+727154972+726892512
3178+726292783+725640399+725672321+726132428+726104982+725697381+725891970
3168+726582019+726032784+723308537+720045794+718138463+717221157+716213903
3158+715711134+716870166+719290484+721308871+721744291+721038505+720869274
3148+722198879+723756338+723444279+721154930+718757285+717610410+717565659
3138+717851912+717589004+715930335+712968389+710135771+708798186+708865759
3128+709237037+708953096+707618867+705540739+703899075+703831353+705067877
3118+706371527+707297933+708116863+708313466+707029282+704644689+702524794
3108+701346817+700683767+700122375+699838360+700227389+701654326+704215459
3098+707166441+708786700+707618718+704198902+700783411+698990715+698473178
3088+698334900+698701256+699763851+700537583+700058382+698954990+698487275
3078+698726092+698736907+697950868+696377225+694045810+691150169+688494315
3068+687111606+687049179+687089753+686231070+684946215+684372814+684733875
3058+685189209+685027511+684525189+684453738+684975974+685168400+683990200
3048+681865531+680433821+680549575+681500518+682259035+682500314+682316912
3038+681926019+681796317+682309827+682952590+682281410+679364438+675195876
3028+672138238+671695062+672964030+673575468+672289196+670185560+668997739
3018+669006167+669248564+669352459+669931006+670848834+670538864+668110714
3008+664905997+662820187+662173322+661957924+661294426+660165377+659104795
2998+658316669+657342604+655932747+654566894+653579106+652735936+652174768
2988+652564916+653815537+654721879+654396992+653279951+652420894+652348697
2978+652776957+653029349+652480338+650726947+647871880+644787393+642660785
2968+642212984+643408114+645391148+646805928+646974861+646454937+645847899
2958+644802831+642720527+639682878+636361065+633630254+632263208+632424234
2948+633466617+634422408+634556585+633687161+632319966+631288696+631030487
2938+631302196+631584346+631552499+631206430+630658463+629788518+628324139
2928+626370715+624556763+623528476+623374013+623292046+622001485+619265789
2918+616574060+615346112+615285513+615362595+615256313+614904800+613890721
2908+612269083+611067986+611225507+612438165+613420321+613196309+611745468
2898+609485616+606904644+604661537+603219795+602416042+601982151+601988118
2888+602257962+602396054+602636549+603253432+603264657+601307876+597648423
2878+594024657+591778156+590968661+590844852+590619870+590023983+589377938
2868+589119878+589265540+589409785+589225004+588719512+587978187+587044323
2858+586109937+585386176+584775782+584009434+583058230+582196227+581656837
2848+581233164+580326561+578700597+576962608+575756253+574844018+573682674
2838+572469121+571707658+571137278+570031611+568341281+566824732+566042721
2828+565616139+564634840+562751338+560777552+559874082+560177862+560701887
2818+560480895+559443509+558198221+557300158+556836097+556535823+556062664
2808+555172543+553851515+552387398+551116602+550065157+549061781+548145445
2798+547465464+546806815+545678623+543988256+542254332+541023028+540354758
2788+539910126+539324644+538513470+537654302+536818777+535814619+534597225
2778+533463365+532506119+531403099+530100419+529054791+528477513+527965197
2768+527098682+525890164+524561864+523308931+522232276+521272047+520329756
2758+519462458+518783037+518268409+517821913+517323395+516555741+515416735
2748+514256360+513589357+513332379+512720307+511255780+509385181+507897980
2738+506997194+506331720+505709468+505293812+505099671+504743048+503883918
2728+502696208+501690669+501122005+500730739+500140594+499368690+498734951
2718+498345922+497908115+497039177+495624844+493882231+492178141+490799720
2708+489816781+489103760+488519358+488072713+487830055+487659892+487269558
2698+486530022+485533247+484300452+482731059+480944330+479460075+478906552
2688+479450491+480441971+480816494+480068866+478686045+477476445+476697641
2678+476027394+475202199+474362199+473704705+473108147+472298130+471197571
2668+470018476+469141743+468849897+469021664+469156474+468730861+467482776
2658+465597596+463765968+462667572+462248076+461941834+461593230+461524799
2648+461688361+461435112+460305914+458664101+457383124+456982795+457101570
2638+456938567+456225584+455381295+454672488+453882422+452982270+452388881
2628+452262909+452207904+451868026+451248122+450381347+449266990+448193096
2618+447607128+447566182+447638602+447432826+446994907+446580631+446223114
2608+445719562+444976521+444146552+443375691+442601698+441731417+440918342
2598+440423739+440205246+439932903+439427375+438747170+437927233+437070117
2588+436515325+436419932+436414264+436099297+435560019+435059338+434615862
2578+434170634+433831092+433665478+433440907+432860458+432064985+431584404
2568+431632436+431755164+431423937+430678397+429940354+429511609+429432475
2558+429490240+429291251+428676606+427996588+427582350+427189181+426446588
2548+425547555+424937981+424628272+424310359+423888401+423500789+423206332
2538+422896138+422466237+422032533+421896566+422134041+422318822+421919538
2528+420939768+419963280+419546282+419667630+419816984+419562392+418932420
2518+418307893+418091413+418400749+418941780+419250296+419077933+418465973
2508+417610310+416810548+416319675+416069260+415723079+415103661+414398732
2498+413859268+413450362+413000585+412596676+412457354+412429646+412100246
2488+411466135+411002522+411005319+411258046+411346726+411054246+410479876
2478+409896370+409519050+409435666+409614853+409797546+409581477+408882776
2468+408144881+407870488+408089615+408401412+408407603+408026927+407461396
2458+406948744+406612968+406492478+406538011+406577391+406450748+406189555
2448+405929706+405705283+405497716+405382745+405393187+405338815+405007477
2438+404450821+403897819+403532657+403460945+403666013+403915608+403955622
2428+403814621+403659338+403459714+403118680+402779137+402664576+402731627
2418+402726630+402474350+402000109+401534408+401410338+401741527+402229939
2408+402461373+402306313+401916352+401493984+401196693+401128038+401285037
2398+401546975+401765096+401849338+401762001+401492604+401106782+400729015
2388+400361951+399810814+398874825+397464482+395467427+392697944+389087977
2378+384869107+380558649+376674064+373300527+370096482+366903774+363965881
2368+361333260+358705897+356147971+354283376+353590194+354087967+355772292
2358+358872517+363540418+369525170+376348096+383472190+389972466+394538187
2348+396203010+395095216+392633578+390535052+389274362+388184991+386660759
2338+384568497+382043202+379250599+376414811+374072022+372840010+372661456
2328+372738464+372461609+371974689+371772268+372151639+373098219+374416674
2318+375816052+376977061+377773541+378473174+379501909+380933507+382432791
2308+383753931+385019692+386396322+387733088+388691527+389098754+389061537
2298+388853523+388793818+389122062+389861001+390805642+391666861+392241715
2288+392534494+392741986+393030290+393327431+393437219+393335375+393237744
2278+393352529+393631398+393833147+393815918+393646613+393429910+393223797
2268+393137467+393302595+393708965+394186227+394530766+394634102+394590060
2258+394645066+394928447+395305468+395555585+395571509+395388331+395177482
2248+395172933+395438265+395753829+395857239+395728768+395561291+395555249
2238+395809468+396278712+396765036+397066876+397196391+397349176+397661309
2228+398096319+398518613+398808893+399003370+399308343+399824687+400326076
2218+400507091+400384811+400275657+400396371+400633026+400777532+400885380
2208+401200832+401769534+402380599+402846747+403083588+403037234+402802333
2198+402653724+402775482+403111109+403523744+403947679+404407077+404961869
2188+405547762+405906808+405851281+405539558+405349220+405539819+406085362
2178+406736329+407217320+407410828+407360782+407177008+407020083+407071994
2168+407391809+407889581+408520448+409328265+410196980+410781381+410854772
2158+410584965+410372140+410511164+411011659+411640847+412146115+412472233
2148+412729771+413005321+413295004+413585732+413928556+414387246+414897437
2138+415287883+415528528+415767308+416013285+416062361+415865945+415683401
2128+415756679+416058147+416400897+416652617+416821400+416969747+417071181
2118+417041273+416911199+416846349+416984888+417331628+417777303+418181249
2108+418480181+418728769+419003946+419290982+419485272+419502837+419402708
2098+419370115+419512309+419712753+419780997+419698209+419611580+419635484
2088+419760673+419921998+420066802+420158354+420140752+419954330+419666436
2078+419525548+419722784+420152238+420565842+420859106+421048399+421136818
2068+421145769+421102062+420940961+420612196+420257662+420082875+420105921
2058+420186323+420246549+420322774+420405972+420382814+420227381+420121099
2048+420221713+420438677+420607833+420723177+420800781+420698751+420292642
2038+419713163+419246492+419042990+419006332+418962626+418874580+418821663
2028+418816890+418767142+418609696+418402241+418305655+418482717+418885842
2018+419150354+418910045+418255386+417660804+417435859+417455698+417423739
2008+417219230+416948939+416766320+416712322+416740029+416820393+416902883
1998+416880806+416867978+417319359+418384639+419310560+419151995+417989569
1988+416729662+415969430+415681462+415631677+415607176+415468674+415259616
1978+415125029+415090422+415056412+414954046+414863016+415039855+415663450
1968+416404924+416565652+415916885+415027884+414535071+414539994+414828932
1958+415213001+415479451+415374810+414863986+414273916+414050202+414361254
1948+415070397+416179234+417867028+419630450+420040437+418393701+415914536
1938+414247700+413737510+413737995+413739896+413709951+413728299+413734228
1928+413795163+414441133+416068029+417989644+419132006+419662372+420345447
1918+420612755+419286656+416936222+415395321+415486388+416478613+417113694
1908+416740402+415725429+414870400+414501061+414325939+414083914+414036181
1898+414660559+415848716+416804731+417271775+418126617+419709247+420607162
1888+419597782+417682209+416473728+416154957+416066165+415920167+415787855
1878+415720171+415731433+415922703+416870700+419718197+424882044+430219073
1868+431837765+428607280+423600880+419993225+418516876+418328590+418463064
1858+418438190+418259189+418139967+418211978+418645720+419794981+421973947
1848+425436947+430186965+434620449+435350326+431443180+426460572+423706230
1838+423357849+423837647+424300849+425818406+429806662+435267053+438753622
1828+438704098+437100472+435287564+432579613+429196194+426908709+426611940
1818+427432585+428215566+429043856+430826185+433572099+435759679+435976644
1808+434684666+433583212+434115256+436866204+441121359+444723943+445721165
1798+444721817+444489936+447248790+452507619+456346447+454842390+449661613
1788+445616524+444885752+446447425+448629970+450754191+452320563+452676178
1778+452559977+454336488+459854756+468127777+474489961+474674257+470163280
1768+464760431+460564197+459096276+461189918+464948233+466983363+466991605
1758+467075959+467591296+468270978+470886780+477132800+485112333+490114519
1748+490112916+487487715+485163610+484622803+486055222+488199692+489226002
1738+489976688+494129029+502851492+510017577+508500729+501666057+495467771
1728+491516060+490057425+491101598+493704722+497634020+504874987+517056646
1718+530878962+537768192+534358818+526950671+521616177+520486344+523848097
1708+531093129+540002685+547532031+553897384+562731648+574769248+584256567
1698+587086202+585664448+581284627+575493494+572756492+575336085+581765692
1688+590803644+604135945+621377480+632507693+629602282+621697556+618411021
1678+621923992+630430609+639762086+646603359+652463855+659621736+665197545
1668+665116995+662796693+664399499+670504108+676156664+677579201+677554886
1658+681307271+692202472+711286003+732504271+739113066+732024921+728705420
1648+732588625+735014314+728644187+718958064+713556035+714043216+719925341
1638+730492298+741165090+741824261+730682413+718974771+713602799+713500768
1628+714927034+715867387+716717269+716843838+714497208+711403621+711675405
1618+715611415+717625028+713295887+706803368+703350063+703342083+704635142
1608+705348760+705184899+705044458+705655747+706634957+707105208+707161146
1598+707971648+710174033+712824741+714539720+715327773+716285652+717845125
1588+719490518+720925137+722477599+724480099+727202557+731566976+739140289
1578+750242012+760509440+762659169+758470991+756840067+760965296+766480693
1568+768111617+767108017+767569766+771699023+781587416+799966056+823024903
1558+832405232+823172430+812060713+806227813+804372317+804488444+805828491
1548+809322294+816997488+829687921+845720974+862137389+873706827+872193745
1538+860754307+852619975+852151067+854633365+854088157+851620254+852791294
1528+859451925+868914221+878153811+886762943+893924031+896879563+896035871
1518+894511752+892376865+888859493+886429554+888492392+896291843+908923205
1508+921881691+924045665+910644300+894946277+886744521+886679409+892417812
1498+899102235+900536929+896237993+892592039+894150169+899665566+903936980
1488+902794207+897511959+892251341+889684912+889723174+890710962+892061301
1478+895197699+901503609+910111175+916900314+916137471+907634770+898584922
1468+894567167+895643411+898356248+899607540+900734725+905584760+915463606
1458+925749159+926878954+917785027+907847333+901980722+899782439+899542801
1448+899232160+897464897+894812473+892881275+892736806+895150114+900688707
1438+907811011+911619185+909203416+905005766+903682425+904373370+903817571
1428+901803510+901132406+902839554+905440664+908554537+913505409+918829498
1418+919261413+913615420+906904818+902844849+901584309+901855495+902762882
1408+904287076+906340293+907729044+907596881+907425935+909123910+912159022
1398+914437259+915012374+914080599+911825857+909287919+908266196+908917760
1388+908651794+904955496+899679812+897199229+899011988+903356643+908578031
1378+914536604+920841694+925501839+926454721+924357052+922145121+921583878
1368+922203371+923415059+925650484+928606165+930140876+928472138+924447448
1358+920410824+918042938+917476474+917627431+917277932+915880679+913689183
1348+911612696+910476412+910172781+910191726+910624312+911624480+912429985
1338+911961226+910080969+907660650+905751827+904825124+904447506+903842109
1328+902778619+901587516+900588988+899879249+899458447+899373720+899738658
1318+900524921+901376071+901826109+901554028+900478156+898958735+897738545
1308+897423354+898035463+898962763+899290633+898423448+896594429+894738337
1298+893739436+893607050+893322438+891796379+889008214+885793354+882718861
1288+879774293+876956368+874474518+872293240+869909318+866899564+863634584
1278+861142889+860132427+860306431+860729322+860786751+860660928+860849551
1268+861471430+862268731+863034930+863726695+864404065+865246713+866312142
1258+867324617+868112296+869054439+870693119+873056754+875553447+877495310
1248+878738025+879626095+880221646+880209415+879942330+880761036+883618640
1238+887908998+892023711+894778836+896105831+896720327+897601683+899328895
1228+901498612+903390057+905200429+907676313+910660858+913131520+914613277
1218+915568322+916572891+917991699+920226751+923463240+927098529+930166384
1208+932499961+934687280+936901822+938749785+940116384+941238422+942350541
1198+943982285+946714886+950005598+952393547+953412063+954242554+956081044
1188+958731006+961208829+963303291+965828474+969253735+972800716+975041064
1178+975296887+974564996+974799786+976777226+978911516+979109685+977609656
1168+976660726+977617338+979795930+982010920+983873874+985361895+986374295
1158+987080753+987730303+988138575+988315562+989241445+991948837+995920275
1148+999168100+1000295733+1000125309+1000490769+1001669044+1002264670
1140+1001492355+1000003588+998798463+998861412+1001070435+1004895091+1008173497
1130+1009602970+1009999830+1010395795+1010922133+1011772314+1013571648
1121+1016443571+1019645304+1022361273+1024349080+1025814652+1027268141
1113+1029328518+1031592658+1032419568+1031456617+1030674009+1031087353
1104+1031019929+1029482832+1028476622+1029694053+1031633231+1032013982
1095+1031276273+1031428350+1032986704+1035546792+1039651884+1045261256
1087+1049703243+1050364279+1048426369+1046799100+1046086452+1045328382
1078+1044997454+1046449675+1049111123+1050440131+1049432206+1048342686
1070+1049457863+1051840516+1052884391+1052151978+1051273978+1051193055
1061+1052099621+1054833713+1060068004+1066529720+1071581876+1073741823
1053+1073663808+1072404759+1069801785+1065508817+1061108746+1059182619
1044+1060215232+1062026947+1062337290+1060962487+1059431058+1059031140
1035+1059712164+1060860158+1062248535+1063668089+1064337254+1063673011
1027+1062684701+1063445158+1066361981+1068693022+1067358196+1062906737
1018+1058427757+1055406442+1053260144+1051924722+1051942472+1052792056
1010+1053593385+1054452292+1055412931+1055360946+1053369559+1050400453
1001+1048588961+1049152889+1051689633+1054746972+1056589192+1056169285
993+1054174020+1052502522+1051514585+1049164897+1044552039+1040469099
984+1040175313+1043151803+1045631490+1044615734+1040251389+1034602934
975+1029335603+1024716704+1020228027+1015821319+1012376815+1010752977
967+1010503196+1009850961+1007221062+1002532277+996977947+992022899+988646416
957+986843129+985304465+982350873+977820206+973212866+969784026+967375268
947+965390668+963958435+963355052+962781577+960852468+957604120+954909333
937+954470631+956021153+957748365+958319453+958022684+957753884+957483667
927+956267056+953677059+950783880+949134384+949112084+949971438+951085273
917+952263175+953026241+952665107+951177234+949223661+947129348+944691950
907+941933841+939463626+938090390+938216660+939358090+940259361+939923435
897+938592040+937352607+936940680+937121546+937258780+937369761+937836954
887+938520663+938983381+938941987+937994102+935682899+932598039+930499177
877+930452189+931514187+931844892+930773198+929419278+929230656+930181226
867+930962342+930864563+930240744+928909423+926117155+922640954+920729968
857+921317464+923074062+924491303+925242064+925286888+924329083+922671906
847+921530700+921837463+923015737+923361284+921796218+919341665+918326804
837+919988232+923523578+927346744+930230078+931551554+931663952+931546184
827+931614652+931666040+931767176+932192005+933094171+934804899+937265120
817+939155297+938949073+936733039+934335916+933730072+935201312+937065757
807+937568900+936673372+935602871+935496962+936782041+938850548+940352367
797+940241684+938463234+936048136+934729644+935554242+937679880+939655605
787+941494990+943911804+946470848+947947533+947860046+946372397+943249350
777+938692877+934508727+932876983+934455772+938050860+941310023+942005069
767+940020991+937897367+937529296+937470002+935479136+931807675+928232575
757+926123271+926362163+928665609+930941235+931604807+932058500+934961972
747+940717902+946975706+950666708+950073096+946284612+942343679+940444776
737+940715441+942512090+945462401+948775562+950909777+950604729+948029426
727+944886017+942831308+941798994+940481695+938546693+937516467+938623365
717+940935388+942262234+941267361+938804156+937035178+936798300+936547400
707+934824664+932677471+931969596+932752651+933745362+934014012+933386837
697+932204684+930699583+928127039+923823629+918836211+914354545+909970809
687+905739595+903462030+903268187+902385488+899778933+897883908+897791872
677+897069379+893949017+889617339+884628131+877450635+868654670+864288609
667+869672366+878544779+882281949+879855962+875009433+871404425+869611207
657+868166146+865790876+862172443+858020960+854861293+853892747+854613525
647+855898455+857110441+857246631+855960807+855285824+856725887+858480098
637+859050590+860320752+862988017+862998533+857111113+848040232+840828129
627+837735362+837829413+838909460+839243820+838981136+839971534+842915729
617+845333512+844015467+838634023+832561485+829680462+830915868+834577261
607+838111787+838602101+834171078+826796307+820826546+817429179
##END=
