##TITLE=<SNM>
##JCAMP-DX=4.24
##DATA TYPE=INFRARED SPECTRUM
##DATE=2/5/2025
##SAMPLING PROCEDURE=Instrument type and / or accessory
##ORIGIN=Admin
##XUNITS=1/CM
##YUNITS=ABSORBANCE
##RESOLUTION=4
##FIRSTX=4497.3318
##LASTX=599.83466
##DELTAX=-1.4281778
##MAXY=1.7791435
##MINY=0.24403229
##XFACTOR=1
##YFACTOR=1.6569565e-09
##NPOINTS=2730
##FIRSTY=0.25994626
##XYDATA=(X++(Y..Y))
4497+156881767+156292647+156696239+157538928+158262296+158604051+158596299
4487+158475378+158378451+158164271+157722675+157201201+156739676+156325112
4477+155946269+155630540+155556347+156184892+157671684+159160328+159450967
4467+158386796+156969017+156256873+156581847+157481102+158113496+158047703
4457+157645838+157448457+157509736+157594415+157617132+157551032+157288614
4447+156921588+156804606+157031214+157167333+156807591+156081148+155356322
4437+154762976+154251485+153845789+153581158+153379155+153242946+153439355
4427+154154594+155092339+155764465+156028790+155959741+155449167+154513040
4417+153778664+153994463+155063004+156069385+156311281+155862130+155129265
4407+154361345+153708392+153366349+153409786+153634073+153689920+153380468
4397+152868204+152535549+152563338+152764927+152921515+153069973+153312444
4387+153607364+153900862+154064609+153646754+152281351+150440510+149125720
4377+148722955+148760843+148778838+148811780+149046553+149542415+150274182
4367+151161621+152018303+152472346+152062333+150686552+148954374+147798834
4357+147703219+148462128+149524779+150340408+150594076+150382801+150041189
4347+149718796+149316229+148854641+148640641+148946568+149643515+150233138
4337+150239820+149614314+148777570+148219153+148076568+148185519+148433998
4327+148838984+149234491+149197449+148517985+147624053+147277433+147742807
4317+148524370+149014448+149115971+149108831+149178950+149293135+149361824
4307+149398201+149533134+149881004+150402631+150908123+151164786+150996849
4297+150393782+149584682+148951038+148761454+148982694+149435496+150064805
4287+150852510+151532370+151698976+151249987+150464809+149685081+149203987
4277+149277262+149817028+150273463+150245054+149965953+149854295+149916320
4267+149927445+149927589+150160537+150553526+150635282+150238435+149897974
4257+150054256+150338132+150270414+150081317+150189189+150506474+150726337
4247+150703854+150370049+149829177+149495848+149704137+150284830+150715761
4237+150665904+150406066+150525341+151098597+151509689+151389236+151180938
4227+151418697+151960351+152204603+151780291+150965068+150468856+150683755
4217+151260455+151664011+151845905+152041793+152249821+152279228+152051109
4207+151650071+151329792+151416125+151909612+152393908+152610354+152757049
4197+152982362+153046411+152790198+152542636+152776150+153495724+154085509
4187+153891438+152995348+152196510+152128360+152663611+153321527+153911546
4177+154449621+154743821+154604698+154379331+154668423+155410928+155814682
4167+155394651+154603259+154253086+154712219+155733295+156752086+157348004
4157+157489717+157286528+156725413+155829971+154847547+154113693+153834314
4147+153987592+154342999+154647559+154833752+154963270+155035719+155030575
4137+155082537+155385568+155881591+156232897+156241117+156147930+156288618
4127+156596991+156738147+156582458+156271028+155954939+155688024+155467459
4117+155290889+155274179+155600287+156173237+156535748+156341426+155683239
4107+154903484+154447121+154831360+156173884+157677583+158135260+157198359
4097+155800635+155137790+155467297+156070518+156191942+155717107+155038489
4087+154639933+154770890+155205490+155412565+155181335+154887315+154999315
4077+155557210+156161780+156252304+155537569+154370302+153487522+153316455
4067+153755120+154468129+155097501+155383769+155319055+155061457+154750530
4057+154563419+154659825+154889095+154943917+154902783+155119354+155568200
4047+155869666+155882994+155730381+155416450+154935644+154515468+154358863
4037+154414962+154628673+155073993+155687934+156206745+156458803+156479937
4027+156388370+156378135+156690340+157318471+157868542+157978042+157755517
4017+157539485+157368904+157029073+156506629+156041542+155797523+155824737
4007+156276927+157286024+158599411+159635685+159978897+159663096+158995215
3997+158343414+158035598+158121266+158272962+158207150+158063027+158136375
3987+158465918+158868934+159154465+159215150+159131424+159214143+159775096
3977+160794643+161884929+162622722+162829402+162513762+161810017+161066774
3967+160682049+160753131+161138449+161733917+162363685+162685134+162622453
3957+162618118+163068582+163766590+164319053+164900547+165908151+166928327
3947+167090688+166596392+166546516+167129286+167253463+166182764+164505120
3937+163451993+164045465+166432466+169383369+170893992+170101521+168346717
3927+167653961+168509978+169523949+169569202+169609905+171125421+173632461
3917+174891260+173463409+170309675+167543598+166512324+167268625+169384898
3907+172890890+177898082+183425650+187510672+188828555+187148556+182852286
3897+177655844+174395579+174866691+178123862+180750870+180469315+179542199
3887+181015807+183896132+184973828+184365194+184440952+184500126+182489667
3878+179986026+180043006+182983999+187184834+191311836+193841862+193355498
3868+191563264+191422594+192539518+191826025+188285139+184527915+183408131
3858+186347307+193917710+204531338+210553346+205077147+194320618+186240200
3848+183121018+184348647+188220982+193020325+198088508+203393658+207529563
3838+207798816+204065478+199461699+196008658+193449943+191601701+191122531
3828+191932089+193253372+195819893+201313215+208152910+211057391+209007866
3818+206119572+203282594+198513162+192966474+190133884+191707496+196832263
3808+202405983+205459533+207236263+210590218+214200854+214288969+211636600
3798+209458599+207665215+205193608+203403731+204149096+207302488+211646565
3788+216460549+221370075+225932252+230645999+237046778+245310728+253059392
3778+258585502+263850994+271953481+284087554+299317588+314785760+326908879
3768+334668586+339648133+343021549+345752679+349422904+354450150+359123104
3758+362083846+364942714+370909810+382120993+397514216+411656033+420209578
3748+426380278+435155664+446423577+455027195+460082536+467381797+480824274
3738+499631239+519468416+534985420+543288418+545971201+547637117+552044883
3728+559739840+567802866+572129730+572182322+570813717+569190860+566519408
3718+563577875+563059154+566780459+573203937+576806713+572818817+563914900
3708+556002635+552191362+552836311+555849752+557726394+557439119+557342174
3698+558790277+560980886+563876590+569037725+577168559+585794553+589864466
3688+587160316+581691796+577947181+577008554+577902791+579602701+582505024
3678+587603351+593116008+594742067+592642792+590781941+589239986+584798442
3668+577576054+570852711+566330589+563696009+562405824+563026815+566411886
3658+571313805+574524950+575408863+577345004+582907195+590238255+593074820
3648+587599574+578563172+571790079+567978159+565058606+562326181+561470398
3638+563937923+568541846+572603810+575402028+579040705+584677431+588740689
3628+586920632+581965007+579038870+580090738+585046795+592390050+598844500
3618+602394073+604618928+606732017+607680104+607682910+609040867+612177010
3608+614687234+615340923+615520425+616327142+617360484+617891940+618265549
3598+619589979+621784078+623304054+624075086+626669053+632777017+639912280
3588+642795969+639491259+634238071+631715688+632889683+635927765+638009845
3578+637671058+635973594+634757584+634643983+635388611+637273347+640868713
3568+645239787+647680512+646600982+642949139+637992219+632228439+626627397
3558+623148222+623343840+626794021+630977607+633099761+632598522+631045955
3548+629454825+627248640+624094583+621146360+619629693+619346590+619057588
3538+617790929+615654171+613501512+612346080+612863794+614500465+615754318
3528+616306638+617428472+619261839+619743222+617607111+614396937+612361260
3518+611992328+611934053+610626673+608196668+606468411+606764536+608361565
3508+609924564+611371876+612585944+611769875+607697371+602592353+599814531
3498+599731434+600102957+599775968+599752227+600643945+601354256+600590203
3488+598229372+595162548+592759378+591811219+591604198+590901586+589658345
3478+588588922+587775407+586929157+586323526+586471445+587373452+588748424
3468+590193685+590560891+588551079+584705130+581551108+581005156+582493225
3458+584028921+584200401+582830574+580689283+579109052+579184379+580651871
3448+581863097+581367793+579402443+577276188+575697901+574368110+572949936
3438+571727019+571135382+571203298+571514351+571319740+570152545+568784911
3428+568606956+569736884+570834221+570782960+569447630+567106081+564402758
3418+562205494+560627674+559052804+557297316+555703201+554500141+553728030
3408+553241863+552569504+551288888+549759019+549048241+549854490+551534615
3398+552701055+552878399+552568820+551717606+549854382+547922666+547641254
3388+548676215+548668984+546542190+543890415+542591597+542664981+543003552
3378+543128089+543295396+543362737+542840346+542076221+541944202+542394001
3368+542560805+542096006+541481885+541249468+541535844+542129388+542377741
3358+541428754+539377538+537815222+538079583+539331673+539664274+538709783
3348+537788674+537842993+538468336+538795073+538496035+537858713+537253010
3338+536814471+536644933+536887639+537289630+537130776+536150493+534963189
3328+534213021+533983518+534175718+534717354+535166865+534938404+534179891
3318+533664335+533692249+533822721+533620377+533021473+532109249+530949860
3308+529594709+528175311+527033225+526617456+527173517+528570756+530172929
3298+530891873+530140554+528774107+528187758+528684248+529595177+530615461
3288+532015074+533603505+534300794+533153383+530632512+528459889+527990593
3278+529049404+530404159+531142492+531401493+531749885+532160474+532081587
3268+531464661+530957162+530871476+530702586+530001053+529072822+528339921
3258+527558098+526325217+524911503+523935932+523670096+524087951+524945317
3248+525555588+525314753+524457064+523652614+523256234+523308214+523534840
3238+523341165+522387250+521009580+519739144+518841705+518447592+518444894
3228+518261219+517277699+515499261+513781005+513226923+513896045+514386852
3218+513510241+511917061+511012752+511019514+511131604+510883503+510461007
3208+510086247+509787389+509480221+508834193+507451883+505482000+503678921
3198+502639608+502348483+502467300+502567879+502279093+501598603+500775987
3188+499881930+498777183+497317676+495482977+493618746+492394066+491934160
3178+491457778+490385981+489088530+488114002+487590892+487465349+487421894
3168+486842055+485606620+484336436+483361333+482286119+480822619+479266599
3158+478050013+477314163+476848284+476194559+474987110+473309719+471588153
3148+470233290+469462762+469233042+469159371+468696658+467692958+466626269
3138+466073661+466046358+465910779+464924812+463066120+461341209+460773745
3128+461098323+461091597+460225814+459213084+458793142+458766163+458389820
3118+457298778+455955606+455282671+455657791+456267990+455873409+454288107
3108+452511072+451341682+450648315+450087902+449623570+449128662+448379286
3098+447567714+447073741+446864562+446648080+446266413+445694489+445084577
3088+444734458+444659779+444518552+444082675+443373552+442470861+441542666
3078+440787030+440204350+439696600+439238276+438791571+438411056+438334003
3068+438488828+438260152+437252242+435822592+434496651+433440934+432749509
3058+432598173+432839368+432937860+432546841+431816745+430996468+430068093
3048+428963237+427873023+427113107+426752628+426497943+426011381+425302905
3038+424591336+423849046+422940744+422138668+421835997+421744375+421068634
3028+419604487+418129296+417530176+417815581+418153254+417854503+417042139
3018+416134736+415168375+414108161+413272451+412840855+412415517+411597110
3008+410549703+409617623+408829756+408046458+407275570+406660370+406255286
2998+405867395+405200360+404221660+403226448+402472863+401961480+401545028
2988+401037566+400321320+399508812+398865159+398480974+398174129+397742533
2978+397181076+396580482+395917259+395140400+394363613+393675605+392880508
2968+391813460+390826522+390491619+390785261+390975232+390463237+389439787
2958+388521017+387990748+387620665+387081834+386328429+385616212+385228142
2948+385143931+384974933+384266313+382863211+381080852+379630734+379167158
2938+379628540+380181112+380063554+379296551+378369076+377586389+377015291
2928+376665532+376376063+375808778+374843496+373762706+372844907+372035349
2918+371238129+370668255+370573180+370731207+370588073+369905281+369016944
2908+368427249+368331382+368514949+368621751+368516244+368322749+368073389
2898+367533371+366531613+365252364+364035886+363057438+362306047+361761102
2888+361479114+361469833+361534943+361381989+360924097+360299185+359583011
2878+358702120+357690253+356813354+356293158+356020128+355691844+355208196
2868+354767966+354545441+354412882+354047691+353319394+352541132+352162199
2858+352171552+352098420+351706250+351242674+350831258+350168215+349102570
2848+348030485+347397731+347175063+347061318+346926565+346830627+346757531
2838+346560151+346152728+345570839+344827974+343909923+342929316+342072310
2828+341371389+340713023+340059800+339491365+339034588+338579681+337978044
2818+337201724+336420224+335877689+335649372+335568615+335407314+335070253
2808+334626210+334207168+333846186+333403186+332746834+331986414+331345962
2798+330839076+330318771+329817676+329503781+329289818+328874553+328211582
2788+327558684+327009422+326351523+325467358+324551322+323835580+323328297
2778+322895262+322424348+321874942+321306291+320846348+320519395+320157945
2768+319586056+318816787+318002840+317293321+316746793+316261814+315637801
2758+314777882+313762418+312766739+312038514+311781671+311868869+311900740
2748+311670445+311249173+310639477+309817868+309027951+308534122+308199184
2738+307699491+306979109+306222934+305603238+305206355+304988542+304757024
2728+304366148+303848218+303238594+302492240+301671314+300939295+300312494
2718+299698769+299167997+298882988+298806583+298738397+298555388+298228039
2708+297752664+297190758+296615056+296015577+295426997+295019664+294855432
2698+294714888+294342322+293696996+292883031+292041979+291362461+291002990
2688+290955578+291071355+291180909+291138372+290842841+290298866+289612981
2678+288910351+288294234+287862962+287666427+287612774+287490522+287143101
2668+286594234+285993676+285508139+285263634+285258868+285298959+285144134
2658+284741999+284200993+283587952+282907013+282216865+281616990+281154241
2648+280819536+280579313+280369774+280120108+279817418+279526348+279317564
2638+279157865+278904458+278471836+277967827+277586934+277412396+277384014
2628+277367089+277192874+276749623+276121204+275556401+275226841+275065037
2618+274897496+274689431+274542574+274473705+274368900+274175818+273949048
2608+273695659+273389660+273120964+272994486+272908925+272646777+272173272
2598+271702070+271463735+271470804+271531723+271496812+271421576+271427188
2588+271487405+271447278+271210490+270850533+270533886+270330372+270136967
2578+269843846+269519933+269352409+269437880+269683391+269877696+269833126
2568+269493961+268956012+268399573+267961430+267660791+267499347+267566885
2558+267897993+268285541+268425851+268217355+267795292+267360134+267075880
2548+267008504+267044476+266957747+266668043+266361541+266230224+266169179
2538+265908199+265390611+264842374+264519378+264514486+264712730+264840629
2528+264673394+264250575+263810704+263531775+263399271+263293692+263152464
2518+263040032+263059170+263207502+263343046+263302163+263051382+262716965
2508+262464924+262367079+262353878+262275961+262083671+261945124+262042519
2498+262287167+262437945+262425139+262331575+262154267+261812799+261329744
2488+260874046+260655029+260761525+261039897+261171987+260937178+260387322
2478+259783292+259379395+259218724+259118055+258888803+258540645+258213494
2468+257988091+257859400+257814830+257815388+257757562+257555650+257218786
2458+256819871+256469968+256294656+256317840+256396584+256362356+256192063
2448+255990096+255833778+255684619+255481609+255287844+255232608+255305128
2438+255337504+255211330+254979129+254775615+254672392+254623074+254560033
2428+254514096+254544547+254586059+254506686+254308496+254165488+254233889
2418+254471829+254707465+254870654+255012169+255080985+254927455+254609962
2408+254434147+254574584+254848747+254954560+254819429+254660953+254747862
2398+255149476+255739693+256405487+257194307+258337905+260284585+263680341
2388+269178159+277260466+288300637+302688361+320731452+342429156+367404878
2378+395041476+424642489+455399941+486133580+515252491+541297455+563449850
2368+581352973+594750269+603453747+607299229+606292506+601151947+592782724
2358+580779537+563537335+540085906+511798280+483577707+462173502+452152284
2348+454665061+468199700+488141089+507424292+521032818+528263983+530668700
2338+530744602+530566107+530388475+529401861+527129271+523594518+519057468
2328+513816438+507775958+500434286+491543752+481459618+470758415+459839578
2318+448949664+438330801+428166414+418333799+408346359+397787966+386758119
2308+375696005+364946886+354715914+345222626+336632245+328899482+321791090
2298+315059833+308616031+302565192+297042192+292012248+287298321+282797567
2288+278606966+274920716+271847956+269358309+267370476+265826236+264661667
2278+263752411+262928878+262054695+261103172+260174492+259416266+258873443
2268+258415839+257876649+257261324+256735893+256396944+256137853+255777356
2258+255283617+254825005+254557011+254409021+254193654+253873896+253549695
2248+253222274+252774311+252190245+251642134+251309066+251174547+251060281
2238+250867415+250705917+250720360+250875131+251021881+251117945+251248884
2228+251441966+251579237+251558211+251451499+251410868+251484377+251636648
2218+251880883+252247855+252657454+252962518+253137793+253337152+253731409
2208+254344990+255065391+255747445+256285753+256659074+256958544+257325840
2198+257810981+258336304+258846356+259408874+260086809+260807839+261459569
2188+262015863+262489188+262868966+263164569+263411897+263610878+263727464
2178+263766638+263805704+263926877+264099059+264167263+264011376+263676635
2168+263311822+263036111+262886179+262825763+262768621+262620343+262352547
2158+262039641+261772492+261566335+261433057+261458292+261717239+262222111
2148+262966037+263907218+265049701+266657126+269112600+272472904+276479165
2138+280989919+286059559+291657453+297600465+303723754+310020932+316662294
2128+323834788+331563415+339747057+348230708+356760727+365067897+373006603
2118+380459322+387272560+393442468+399120634+404311123+408794107+412481275
2108+415725658+419121558+422985709+427142460+431198596+434877598+438081405
2098+440759188+442800476+444131094+444862340+445121413+444717371+443101816
2088+439600806+433706014+425315244+414707856+402337355+388780989+374720255
2078+360799956+347594069+335608580+325138319+316236561+308868198+302942110
2068+298256817+294535620+291459964+288743781+286297264+284182683+282417663
2058+280983696+279858984+278917444+278063963+277448080+277251473+277448548
2048+277996245+278989388+280567280+282918362+286282372+290821815+296673835
2038+304056966+313082720+323568557+335069462+346873830+358135087+368325159
2028+377413973+385584377+393045082+399940445+406179240+411495956+415602057
2018+418061956+418359555+416375427+412536312+407390358+401211960+394003817
2008+385800535+376881870+367598338+358146346+348701334+339593167+331139517
1998+323492799+316824709+311379393+307045730+303119849+298913079+294488802
1988+290434842+287143946+284598955+282589233+280919288+279514639+278388128
1978+277507147+276782789+276142283+275512012+274892262+274517843+274629196
1968+274963955+274858951+274072218+273108590+272526503+272347972+272311298
1958+272320309+272410960+272545460+272659367+272774173+272963244+273274944
1948+273762999+274613836+276003394+277490366+277927196+276767825+275013956
1938+273993042+273923904+274205100+274433182+274659538+274989495+275354165
1928+275757559+276568106+278105727+279940426+281352809+282475021+283803156
1918+284789681+284447421+283218408+282628982+283446544+285142444+286659128
1908+287362082+287443416+287499245+287828590+288331646+288933427+289782123
1898+290993367+292309650+293221531+293717572+294509036+295852208+296728873
1888+296169251+294743936+293598540+293036148+292791194+292711713+292697306
1878+292584065+292350137+292239252+292837400+294916117+298490907+301755382
1868+302053880+299056879+295203195+292600145+291524823+291286973+291240461
1858+291074179+290803811+290632600+290695156+291071463+291940339+293530102
1848+296109519+299726468+303131109+303736272+300862943+297205687+295239599
1838+295089684+295594592+296145671+297506164+300644663+304738966+307265988
1828+307243290+306280525+305365568+303863866+301781605+300320480+300116624
1818+300620669+301144301+301814232+303244278+305402404+307181202+307519486
1808+306723381+306122930+306896660+309398718+312831165+315472184+316115946
1798+315517977+315768705+318398249+322895442+326175115+325241596+321457159
1788+318578398+318266914+319685124+321552809+323448265+325121808+326114825
1778+326873050+329047580+333971405+340816299+345954196+346211255+342861724
1768+338893037+335994419+335392890+337641990+341077567+343014750+343379258
1758+343932549+344890997+345910670+348340279+353579906+360178821+364376760
1748+364580472+362875238+361792721+362434396+364608710+367027240+368273215
1738+369252239+372919334+379957723+385427573+384115301+378870243+374196857
1728+371270397+370241407+371015784+372890628+375916228+381685548+391148690
1718+401468802+406286294+403334293+397216509+392397327+390663243+392529310
1708+397672962+404246049+409689244+414122226+420279796+428521856+434589567
1698+435832269+433891595+429337098+423613967+420563870+421863731+426172177
1688+432412736+441568134+452913027+459403054+456244716+449686846+446111121
1678+447212415+451959328+457352845+461127569+464787254+469979937+474036720
1668+473704515+471926689+473608325+479081377+484390646+486549348+487658880
1658+491789371+501517198+517382414+534441086+540339295+536171105+535026824
1648+539582437+543354859+540418506+534432992+531470128+533407600+540073531
1638+550587463+561490219+565963347+562451868+558353465+559121007+564708811
1628+572391932+580221642+588493308+596974261+603585730+608396314+614829324
1618+624676184+634307282+638546481+639031460+640431937+643852261+647638065
1608+650216132+651498332+652383252+653638759+655324784+657203189+659519378
1598+662872794+667268329+671806603+675586867+678638834+681629721+684922919
1588+688243456+691056783+693045839+694299980+695361884+697423676+702124329
1578+710101921+718621472+722683975+722940170+725157795+731906930+740615840
1568+747421740+752752413+759656157+769740291+784101395+805205015+832386526
1558+852117154+855411143+853270428+852884156+853956061+855051923+855458483
1548+855609711+857267965+861952502+869656992+878619722+882949069+874629236
1538+858860821+848011340+844594900+843840775+840557434+835257121+832029321
1528+832133353+833851609+836320105+840528440+845467086+847099440+844305610
1518+840278144+836599898+832897118+830178830+830853168+836590185+846979436
1508+857785391+859505734+848664238+836348955+830259768+830201421+833604695
1498+837025091+837086748+833797507+831157926+832385088+836729398+839839209
1488+838012173+832717616+827959551+825765741+825485084+825634513+826162588
1478+828466977+833416128+840077274+845251468+844457198+837596548+830884536
1468+829222829+832130115+835129707+834435656+832118964+833214682+839999358
1458+849356490+852666595+846351862+837458702+831690821+830010192+831066125
1448+832297962+831749240+829796948+827983293+827268594+828327836+831837948
1438+837027249+840476496+839472579+836274132+834044637+832689630+830693235
1428+828385824+827489320+828201286+829246427+830443011+832644664+834577028
1418+833034101+828217401+823614089+820874506+819284527+817812610+816287526
1408+815288141+814990578+814395379+812958139+812321284+814234583+817991321
1398+821614745+824327206+825725739+824571674+821233726+818387520+817540299
1388+817234606+815235190+812087824+810852245+813490890+819206036+825738258
1378+831596645+836649108+840749454+843196079+844223881+845299887+847045841
1368+848793595+850558831+853248484+856297214+857362860+855655971+853458563
1358+853012722+854151463+855260707+855417474+855127537+855156818+855540284
1348+855932742+856214622+856665140+857922230+860365689+863159807+864577909
1338+863854793+862015957+860562962+860312450+861446299+863794359+866893882
1328+870079451+872809034+875156951+877872792+881511829+885509150+888519965
1318+889925046+890663127+892240371+895264784+899173973+903080068+906621692
1308+909923955+912836853+914821377+915907958+916865686+918055364+919040575
1298+919532102+919755131+919731533+919094894+917770319+916299337+915195058
1288+914015883+911651276+908083177+904956171+903366120+902176370+899880326
1278+897313482+896705549+898450281+900556751+901298645+901147992+901690168
1268+903581667+905999154+907579923+907861659+907866695+908939463+911213636
1258+913571409+914927495+915300816+915569026+916283509+916972596+916905687
1248+916116022+915173402+914548922+914490503+914721877+914168334+912041072
1238+909228321+907579420+907757771+908559019+908588085+908055478+908116919
1228+908818884+908898383+907642371+905839580+904627312+904273991+904344137
1218+904488674+904916386+906128654+908203972+910582393+912644545+914293446
1208+915739104+916986050+917963491+919095181+921108986+924145486+927517823
1198+930424103+932639713+934639920+937201872+940585721+944188569+947264710
1188+949568812+951064327+951799962+952388398+953781176+956298738+959299121
1178+961873160+963751205+965387588+966932745+967547441+966511652+964764403
1168+964397053+966521509+970277456+973818647+975731730+975904757+975581005
1158+976278654+978375842+980786926+982026966+981768972+981528892+983442334
1148+988060611+993883602+999250247+1003661178+1006889770+1008187006+1007119706
1138+1004580920+1002579921+1002827627+1005004818+1006943009+1007654399
1130+1008708749+1011089040+1012923199+1012380592+1010915510+1011208109
1121+1013670993+1016914477+1019882773+1022279828+1023911318+1024684508
1113+1025043297+1026015918+1028527508+1032022368+1034284886+1033872211
1104+1032249785+1031953948+1032875344+1032944627+1032011216+1032271584
1095+1035337581+1039794989+1042667670+1043260495+1043142937+1043267185
1087+1044100018+1046730389+1051109593+1054795681+1056003633+1056094428
1078+1056205007+1055043963+1052286321+1050579648+1052521724+1057313675
1070+1061790436+1064075185+1064993415+1066073666+1067229674+1067712423
1061+1068289779+1070108398+1072086159+1071701039+1068486476+1064788301
1053+1062703487+1061985406+1061391143+1061058542+1062209946+1064959673
1044+1068284815+1071359733+1073466419+1073741823+1071745932+1067620765
1035+1062349878+1058639832+1059337193+1063787910+1068157473+1070011848
1027+1069969041+1068932246+1066674764+1063334945+1060043330+1057915421
1018+1058003121+1060667882+1064243895+1066346192+1066901749+1067632492
1010+1068144595+1065817183+1060561116+1056533219+1057506631+1062405348
1001+1066345041+1065867040+1062159297+1058620479+1056835890+1055976510
993+1055014681+1054254009+1054632223+1055803915+1056027375+1054266528
984+1051548168+1049325867+1047062989+1043042574+1037502686+1033330539
975+1033033479+1035866303+1038186161+1036881587+1032410150+1027723814
967+1024963582+1023762177+1021983775+1018325170+1014062444+1011265953
958+1009993394+1008625077+1006382632+1003767081+1000706984+996290728+990660621
948+985676362+983279380+983476652+984147321+983263480+980936931+978955933
938+978920032+980853044+983069517+983302690+980810236+977283362+975024153
928+974862925+975970155+977119184+977596969+976969755+975207396+973357194
918+973124381+974971202+977254080+978050796+976898673+974415717+971701242
908+969968813+969347642+968709276+967490676+966445895+965959549+965082470
898+963176079+961176231+960366709+960762981+961166375+960832407+960451532
888+960789888+961149324+960278217+958441108+957399061+958206424+959888996
878+960819097+960724346+960242604+959374447+957797706+955840882+954183851
868+953134393+952393866+951330091+950022064+949630540+950539850+951094184
858+949881987+948100852+947878255+949709680+952544806+954967113+955967289
848+955338851+953442964+950824823+948524390+947910486+949019154+950389342
838+951281312+952414154+954035644+955245899+955782391+956405576+956779401
828+955217409+951791544+949495932+950493374+952914961+953477641+952366527
818+952611714+955229136+957959510+958735002+958228871+958159445+958970693
808+960048210+960803342+961122560+961418757+962055755+962735993+963081184
798+962942834+961694017+958907454+956020959+955397558+957718567+961620418
788+965286434+967141097+965920051+961983523+958042175+956871850+958510967
778+960696791+961742940+962038561+963126077+966047969+970010181+972707029
768+972957757+972091182+971532891+971056401+970312780+970449547+972700410
758+975984256+977363005+974980411+969715639+964345181+961729414+962732827
748+965609681+968027240+969013746+968433584+966600144+965244058+966044731
738+967805075+968213217+967662840+967706726+968011988+968332502+970263714
728+974338952+977718771+976996734+972319391+966656837+962774987+961654592
718+962311447+962849018+961924816+959716041+958138221+959644240+964532956
708+969703768+971479796+969249869+964806346+959637189+955056972+952997122
698+954325654+956934082+957281071+954965386+953478504+954945817+956801991
688+954916895+949001959+943005726+939870662+938720697+936793226+932416180
678+927159754+924186854+925024722+928368858+930746415+928686709+920417022
668+909022271+903895274+908415490+915831409+920133560+919813837+916311208
658+912081361+909404514+908712190+907578197+903796350+899175915+897553274
648+900437538+906730760+914410140+919732324+918433074+909512287+895583211
638+881069800+870086286+865347070+867466562+874133537+881123975+884576099
628+882286817+875740782+870484140+871348268+877162122+881523556+879892425
618+874149149+868976250+866570706+865753558+864255093+861545439+860000929
608+862511585+869210071+876524404+879027865+874414625+866073640+858164756
##END=
