##TITLE=<SNM>
##JCAMP-DX=4.24
##DATA TYPE=INFRARED SPECTRUM
##DATE=2/5/2025
##SAMPLING PROCEDURE=Instrument type and / or accessory
##ORIGIN=Admin
##XUNITS=1/CM
##YUNITS=ABSORBANCE
##RESOLUTION=4
##FIRSTX=4497.3318
##LASTX=599.83466
##DELTAX=-1.4281778
##MAXY=1.8212013
##MINY=0.30734557
##XFACTOR=1
##YFACTOR=1.6961259e-09
##NPOINTS=2730
##FIRSTY=0.32857305
##XYDATA=(X++(Y..Y))
4497+193719727+193661849+193505293+193145091+192796029+192667499+192645957
4487+192444894+192025953+191752973+192062693+192894496+193484840+193092783
4477+192028553+191429371+191870047+192830011+193615638+194069509+194229492
4467+194076836+193887933+194134644+194668305+194576340+193322714+191588984
4457+190527566+190602506+191395617+192123049+192242531+191857853+191597365
4447+191931738+192653231+193096543+192767793+191810535+190962198+190947667
4437+191864196+193078902+193629677+192933644+191323032+189778171+189124747
4427+189513484+190409068+191002786+190858495+190154590+189312456+188700904
4417+188619691+189095808+189769122+190261386+190473079+190460938+190288164
4407+189987386+189611722+189419515+189743890+190464364+191010553+191064776
4397+190841627+190639562+190473922+190177344+189757613+189548889+189784479
4387+190158719+190195794+189790259+189056607+188077298+187089941+186405030
4377+185994084+185611585+185223884+184950289+184850874+184995815+185409450
4367+185830517+185884108+185615872+185524873+185886673+186325136+186327982
4357+185971646+185723968+185664894+185394111+184745009+184162660+184186468
4347+184814537+185564600+186061696+186306669+186379412+186207921+185738165
4337+185089257+184489354+184148867+184069113+183931516+183446614+182883082
4327+182902726+183711037+184717845+185240366+185182294+184784632+184139273
4317+183410049+183146434+183698439+184559760+184912073+184599295+184078741
4307+183749412+183726183+183940635+184273180+184769239+185441973+185745861
4297+185007307+183623569+182935584+183601623+184840349+185503489+185329327
4287+184954928+184987329+185215591+184891093+183834700+182842863+182653326
4277+182898035+182630291+181751908+181204454+181603031+182432830+182935584
4267+183130761+183487800+184050400+184346398+184102023+183813967+184214740
4257+185119338+185559926+185263858+185010118+185415969+186349998+187315409
4247+187581713+186511123+184498684+182940293+182819792+183832399+184947302
4237+185389630+185079786+184392609+183686613+183177007+183042116+183305713
4227+183775346+184315965+184943806+185540932+185822557+185745878+185688879
4217+186051892+186794733+187469154+187695273+187495739+187128878+186752915
4207+186445408+186421107+186813622+187252084+187226132+186940624+187130002
4197+187911113+188495378+188253656+187519090+187067924+187168500+187410889
4187+187343962+187032994+186872045+186977048+186987204+186518485+185706010
4177+185160436+185375679+186334975+187653823+188833686+189368120+188951639
4167+187826369+186771487+186488474+186954399+187573402+187986544+188384154
4157+188902757+189163280+188674723+187429128+185996104+185129564+185186300
4147+185889994+186671650+187106018+187088517+186861942+186809633+187060615
4137+187490784+188077175+188827484+189442076+189516418+189011415+188217548
4127+187407902+186736328+186318406+186232256+186469023+186875085+187173191
4117+187236675+187352747+187935115+188876120+189449579+189097846+188127216
4107+187386431+187406092+188081603+189003930+189689930+189655561+188853805
4097+187922411+187442394+187239082+186966453+186802183+186946159+187127296
4087+187102363+187036525+187159240+187540017+188121611+188609975+188605740
4077+188069514+187373130+186885856+186770942+187021239+187413033+187544884
4067+187165372+186462698+185915683+185861934+186303892+187043114+187763992
4057+188082762+187848859+187365416+187073424+187101485+187313248+187638818
4047+188074539+188412742+188317684+187746966+187040830+186512845+186184464
4037+185950983+185839338+186086155+186920048+188192615+189374217+190027465
4027+190134366+189946183+189696501+189421799+189015087+188582933+188552518
4017+189133831+189879906+190092548+189566829+188746078+188179911+187966654
4007+187836244+187746000+188127322+189346754+190993474+191937659+191403085
3997+189895632+188651389+188304365+188582213+189050950+189522339+189932618
3987+190326503+190790830+191176087+191125554+190517779+189747158+189501746
3977+190171388+191418178+192443875+192706910+192273649+191584468+191092573
3967+191087126+191635283+192533556+193381700+193935497+194350502+194815268
3957+195131982+194978852+194421383+194019679+194471196+195840139+197122316
3947+197393241+197229446+197664025+198327587+198083370+196934027+195852350
3937+195475157+196168344+198301758+201338874+203387719+203061728+201426376
3927+200657302+201395171+202302721+202085388+201292012+201406240+202757384
3917+203870144+203060129+200552053+198084951+196862462+197018842+198755383
3907+202847135+209415775+216604402+221517994+222859702+221015029+216415322
3897+210420616+206019547+205577500+208529591+211326339+211090503+209669463
3887+210361437+212883869+214725414+215882329+217580619+217913323+214897608
3878+211434171+211296784+214476576+218996370+223641269+226744996+226198948
3868+223567032+222459702+223043826+222308733+218886957+215045571+213726302
3858+216628175+224364765+235123484+241157426+235788293+225193686+216853451
3848+212805222+212678905+215365940+219639041+224871842+230877495+236312501
3838+238331757+236012743+231911819+228233245+224980693+221939447+219965331
3828+219666117+220875974+224172154+230413010+237240187+239458539+237094121
3818+234968667+233675929+230153173+224613023+220606191+220686666+224890361
3808+230287748+233381864+235137681+238711779+243014697+243915570+241690858
3798+239497774+237479502+234792537+232640200+232613246+234808052+238595864
3788+243552715+249048516+254142894+258969142+265015963+272738989+280191529
3778+285839809+291346223+299429503+311216325+325923663+340874885+352768818
3768+360753983+365869024+368333999+368883087+369697881+371685739+373551268
3758+374749668+377171559+383024470+393020579+405297346+415064894+420396092
3748+426142347+436109395+447671837+454537705+457013680+461494204+471532624
3738+487075420+504964025+519393533+527296396+531573309+536398748+543325763
3728+551799502+560196210+566571957+570275851+571959417+572343831+572563501
3718+573892347+576527478+579917627+583327667+584873477+582062286+575561259
3708+569164672+565993175+566578423+568489004+568210928+565479861+563650457
3698+564672622+567727450+571954497+577724086+585150253+592333906+595665896
3688+593289900+587296493+581083135+577510003+578463888+583950974+592192145
3678+600352174+604299845+601744837+597314672+595600884+594463490+589282663
3668+580700724+573431992+569684698+568441528+567760061+567111206+567407063
3658+568659371+569771744+571475411+576061465+583514374+590230117+591561353
3648+586491820+578166484+570419405+565965061+565240757+566353130+567245025
3638+567539266+567914544+569151881+572380273+578662087+586581080+590421850
3628+586071174+578767160+575012241+576090562+580328468+584911641+587339085
3618+588249042+590586242+594790448+598334904+600072658+601966160+605106487
3608+607420564+607257928+606299756+606659466+607785896+607907978+607502514
3598+608675964+611258241+612584909+611837797+611818751+615036811+620469006
3588+624643973+625490957+623913659+621258919+618235614+615807608+615060707
3578+616168231+618105660+619351010+619469437+620238477+623977266+630470316
3568+635750910+634988617+628438356+621341854+617584299+616768802+616516134
3558+616218906+617227330+619656953+621222442+620152590+618036853+617829377
3548+619536347+619885936+616821796+612197577+608814843+607169231+605916220
3538+604089277+602268729+601654594+602245887+602784819+602677918+602841678
3528+603995097+605000148+604077539+601409727+599057556+598225332+598083781
3518+597408078+596037203+594582409+593617982+593196563+592790818+592053406
3508+591640421+592020162+591997320+590116610+587215808+585568403+585643430
3498+585462345+583338420+580181119+578022509+577382720+577651589+578503141
3488+579542842+579861084+579115414+578129304+577659636+577364447+576415447
3478+574493340+571935028+569256111+566746506+564689420+563760380+564525484
3468+566405386+567836178+567868438+567091421+566559552+566378573+565951532
3458+565101280+564163279+563283578+562411749+561791675+561624050+561453086
3448+560607894+559062576+557327879+555590828+553463845+550743776+548092761
3438+546760401+547638204+550329773+552919676+553275661+551127804+548283651
3428+546582690+546131155+545737112+544693827+543387261+542305496+541311339
3418+540077164+538785428+537944067+537559020+537065561+536315955+535979438
3408+536421555+536763694+535741073+533436660+531433516+530914193+531305354
3398+531288170+530618933+530035863+529767591+529323858+528559457+527800398
3388+527057574+526133946+525336442+525201498+525594065+525595084+524440646
3378+522453421+520733414+520064212+520353533+521001966+521560472+522026556
3368+522718530+523746142+524534615+524298393+523080594+521883389+521584544
3358+521943270+521941900+521140284+520207906+519841695+519895391+519968943
3348+520070959+520244875+520147568+519534768+518883734+518926712+519642969
3338+520250216+520305986+520173748+520057429+519374487+517767178+516028194
3328+515233677+515445019+515832631+515681698+514908722+513880900+512909163
3318+511815626+510279514+508809364+508661417+510258148+512303040+513138849
3308+512509743+511254695+509933720+508788314+508471231+509505555+511072731
3298+511528835+510460318+509194059+508852483+508991960+508771376+508489997
3288+509000745+510288581+511573992+512356526+512619666+512366330+511605233
3278+510693448+510284856+510771357+511727807+512146238+511574694+510709367
3268+510391370+510456347+510141724+509222875+508066856+506922539+505770842
3258+504556769+503253295+501926979+500777110+499911887+499292129+499048773
3248+499416882+500175977+500729528+500945754+501240944+501646373+501584418
3238+500772752+499568659+498253659+496717020+495035036+493762346+493349784
3228+493585795+493841064+493689568+493149371+492449138+491752069+491133752
3218+490612285+490079538+489359872+488399205+487290311+486215258+485479567
3208+485261549+485135917+484379880+482951864+481589458+480859110+480736044
3198+481029090+481441477+481338477+480276461+478700324+477481541+476860870
3188+476311852+475311896+473876185+472408635+471305152+470627200+469994966
3178+468994730+467702010+466436946+465165275+463730161+462493983+462055873
3168+462341223+462442009+461513848+459694495+457999052+457288347+457381051
3158+457298257+456400529+455065814+454146509+453912606+453714969+452767024
3148+451116175+449548717+448611982+448102358+447506320+446667911+445913877
3138+445553043+445387701+444943019+444118174+443225436+442408288+441459990
3128+440149734+438442483+436634270+435287889+434666198+434427727+434208373
3118+434020681+433803892+433272867+432451220+431699857+431115803+430421404
3108+429423522+428238862+427146871+426443230+426309797+426598837+426851506
3098+426765338+426491585+426195060+425625343+424606201+423634429+423342472
3088+423633551+423911380+423865696+423506935+422707006+421336939+419737748
3078+418494507+417834126+417597201+417488367+417102969+416271693+415553609
3068+415645645+416255036+416337057+415405874+413958003+412756124+412154921
3058+411899968+411366940+410188043+408660049+407453075+406967734+406941342
3048+406713589+406013392+405252013+404836780+404633099+404374456+404131698
3038+404012005+403717378+402862768+401662857+400809407+400579511+400519770
3028+400051367+398958603+397414409+395958350+395160143+394936361+394571450
3018+393645608+392536117+391867301+391783207+391832932+391503515+390820045
3008+390227627+389907135+389580388+388986460+388120780+387051385+385907384
2998+384933504+384303625+384007206+383935060+383889305+383617801+383039370
2988+382294543+381501220+380690748+379948944+379335476+378774475+378255081
2978+377920217+377757757+377466363+376800885+375858105+374903834+374036679
2968+373118323+372027034+370898074+370034363+369592492+369429962+369290871
2958+369099138+368991324+369029101+369028820+368769158+368192835+367341775
2948+366287948+365145985+364049601+363171341+362699740+362560439+362311214
2938+361614110+360641459+359811379+359369859+359329798+359507544+359546130
2928+359138592+358267396+357150137+356022513+354990367+354012200+353033927
2918+352136585+351452413+350962819+350536130+350207415+350264555+350842389
2908+351486851+351457895+350588526+349510380+348862298+348648672+348544723
2898+348410587+348205641+347747570+346925115+345922946+344965512+344089361
2888+343356130+342962579+342916473+342881472+342562456+342075358+341770715
2878+341767025+341797528+341528133+340882510+339975926+338927159+337901551
2868+337131632+336691062+336412775+336182562+336127038+336337115+336561459
2858+336412213+335816738+335053250+334380429+333829970+333318905+332817434
2848+332458743+332452312+332724063+332811249+332376547+331582311+330733992
2838+329941794+329330434+329103384+329149490+328978350+328275201+327275105
2828+326437821+325947068+325663475+325414426+325150231+324887442+324656034
2818+324464126+324238587+323857581+323258662+322458768+321561286+320810555
2808+320459912+320496389+320596402+320370898+319658366+318676403+317862769
2798+317458886+317325137+317212332+317002607+316608669+315914130+314967273
2788+314053204+313448909+313208926+313216376+313277066+313112463+312474782
2778+311403419+310223504+309210721+308403167+307755190+307277088+306975116
2768+306782750+306579140+306240515+305741539+305221478+304824939+304465054
2758+303893862+303025898+302042600+301182403+300581938+300265769+300098108
2748+299808646+299229512+298450527+297674389+297027291+296523781+296090942
2738+295640391+295186537+294833750+294612568+294409362+294061828+293467144
2728+292671221+291931560+291571745+291630097+291718074+291363987+290489927
2718+289471663+288749397+288418556+288204227+287853390+287469679+287292442
2708+287246652+287031638+286617986+286284070+286152746+286027694+285706236
2698+285188354+284578488+283988214+283501502+283084933+282598626+282007315
2688+281472898+281133905+280915675+280659862+280331375+280015452+279772430
2678+279538808+279178536+278660847+278125148+277700549+277362451+277059882
2668+276868412+276881432+276998753+276955915+276600334+276065461+275608093
2658+275327856+275113580+274796198+274299980+273706245+273192509+272861299
2648+272638255+272369510+272003720+271658963+271480496+271439363+271387055
2638+271298146+271236895+271105886+270739974+270235990+269868022+269710658
2628+269616918+269470026+269215846+268778719+268179554+267628604+267319691
2618+267223122+267213880+267275536+267427312+267558584+267502270+267237073
2608+266921888+266733757+266699283+266684893+266555835+266302903+265996521
2598+265704476+265483716+265340127+265176016+264886010+264510451+264204033
2588+264065329+264059935+264094954+264137633+264251475+264481037+264714817
2578+264757303+264550354+264215490+263886546+263635407+263532301+263602356
2568+263732714+263767768+263677910+263546691+263458275+263442145+263437542
2558+263334208+263166160+263169007+263476092+263866603+263998929+263790522
2548+263407039+262984179+262529323+262054788+261683974+261572909+261727268
2538+261924290+261878289+261507282+260989803+260549883+260257381+260052506
2528+259866395+259669550+259490046+259422082+259507055+259597070+259483844
2518+259182820+258944367+258946914+259093069+259143918+258984674+258698990
2508+258405083+258138551+257929898+257839338+257835244+257789331+257655073
2498+257521851+257471844+257478310+257440867+257285558+257047702+256839611
2488+256742181+256774265+256902198+256997151+256881746+256515236+256065968
2478+255749482+255631371+255591854+255462726+255197583+254892870+254652694
2468+254486861+254338387+254174241+254035923+253962512+253888029+253730454
2458+253564849+253545293+253650314+253650683+253346321+252773758+252198824
2448+251905198+251942377+252114255+252237971+252315213+252401977+252431936
2438+252271532+251900664+251466103+251140762+250946094+250752728+250493663
2428+250326038+250460648+250821359+251038166+250883050+250573558+250471911
2418+250597999+250652504+250475899+250271410+250330624+250668388+251008682
2408+251108554+251031172+251034230+251229512+251468580+251577291+251601099
2398+251757199+252181218+252843269+253812510+255518145+258602122+263620067
2388+271074101+281588040+295766760+313882767+335818987+361238586+389645506
2378+420258301+451929352+483314561+513295124+541278798+566692599+588250378
2368+604817412+616942120+625859241+631004680+630415566+623830936+613066630
2358+599229961+581859906+560040567+533722783+506207196+484111082+472908489
2348+474552767+487950727+508357583+527603569+539640073+544779327+546413483
2338+547001578+547245497+547080190+546499088+545441254+543708174+541269590
2328+538150770+533981601+528066912+520064950+510531199+500529994+490624655
2318+480587570+470131105+459522969+449266881+439322325+428983162+417687866
2308+405652839+393506026+381705885+370561663+360359834+351120746+342499939
2298+334158720+326090938+318517387+311603867+305343279+299626015+294338077
2288+289387586+284730792+280443424+276697431+273603596+271141784+269234805
2278+267747365+266434350+265077988+263674695+262350857+261168042+260129641
2268+259259376+258562500+258010618+257602659+257317449+257010188+256511001
2258+255828041+255123311+254502463+253946575+253415515+252901639+252411536
2248+251980330+251660366+251445158+251251177+250989863+250618750+250149240
2238+249641742+249175553+248829022+248679670+248739217+248893155+249011038
2228+249081005+249122647+249060904+248848174+248625165+248588407+248745507
2218+248933076+249032228+249052856+249049781+249068811+249146368+249279801
2208+249432931+249601259+249805379+250021237+250211933+250419040+250729025
2198+251146841+251556786+251819557+251903827+251929832+252069608+252381964
2188+252748878+252995432+253068245+253050235+253023615+253019504+253090771
2178+253305469+253646396+253990538+254175927+254074772+253685034+253183457
2168+252803084+252625057+252550785+252478323+252411062+252364253+252289524
2158+252164596+252053074+252012590+252020515+252012397+251965817+251975692
2148+252197927+252674518+253364472+254397900+256043126+258356605+261125977
2138+264184723+267552768+271270051+275300779+279652895+284467810+289879886
2128+295833775+302174135+308845108+315834288+323026270+330252692+337354325
2118+344154408+350495541+356195163+360887591+364145432+365812798+366024631
2108+364927263+362492967+358611608+353394094+347303837+340862691+334341667
2098+327791196+321199327+314593577+308082815+301794500+295839011+290385275
2088+285609790+281532059+278031530+274972820+272251311+269850082+267821092
2078+266108429+264561898+263176685+262074907+261272606+260694104+260330581
2068+260204353+260223417+260164414+259861915+259407463+259010082+258693315
2058+258351334+258017137+257822523+257793285+257848984+257911484+257969555
2048+258085470+258307811+258613280+258952449+259231913+259311614+259193784
2038+259085777+259159802+259421063+259799837+260201717+260566434+260956876
2028+261449210+261992306+262504478+262969877+263417353+263965105+264736043
2018+265542192+265912339+265634491+265022183+264531448+264338239+264309247
2008+264231743+264033632+263794616+263601723+263492275+263487074+263527680
1998+263490395+263487847+263949116+265013679+266032980+266177957+265429493
1988+264448971+263735051+263370667+263279334+263362901+263527364+263718604
1978+263908756+264099540+264324341+264555907+264748272+265067991+265774513
1968+266702358+267248002+267128872+266742472+266547612+266575655+266715641
1958+267001361+267420021+267809214+268078856+268297507+268571559+269003608
1948+269729564+270933780+272689052+274497529+275248822+274361338+272664857
1938+271410529+271020773+271194479+271565065+271937531+272247076+272525609
1928+272958044+273952166+275714431+277638805+278902252+279730400+280807175
1918+281623252+281043169+279397837+278287537+278653783+280079111+281446015
1908+281979290+281847034+281721192+281903823+282220502+282585817+283235217
1898+284351719+285628555+286457002+286837727+287598192+289039456+290077628
1888+289680228+288381516+287288717+286724676+286478913+286379286+286305542
1878+286203332+286144470+286301360+287196927+289712278+293985114+298089377
1868+299008506+296202763+292305168+289710204+288763348+288673912+288731246
1858+288643814+288449269+288384908+288656869+289354992+290561563+292439339
1848+295330898+299378407+303242019+304072030+301110503+297280381+295214896
1838+294965601+295268171+295607217+296972646+300411923+304886402+307536995
1828+307337813+306147741+305042466+303250418+300778520+299047303+298813786
1818+299424583+300088690+300979671+302712365+305067452+306781345+306929959
1808+306093623+305657410+306638705+309285889+312863273+315723346+316585686
1798+316084075+316327606+318960172+323479281+326611315+325257554+321062169
1788+318080050+317942646+319611030+321697389+323760309+325442188+326182974
1778+326539591+328374406+333147379+340100222+345564326+346089869+342732296
1768+338567309+335457204+334708124+336883005+340313110+342306133+342759144
1758+343350929+344220931+345125406+347658556+353302444+360345707+364634569
1748+364531041+362394008+360943607+361366185+363582885+366328993+367917852
1738+368919318+372289437+378937673+384137300+382740103+377407571+372377607
1728+368784691+367067776+367423409+369110173+372000432+377743630+387514165
1718+398392049+403355138+399738185+392617786+386954254+384662035+386185706
1708+391032406+397171299+402068602+406132171+412287826+420711769+426689362
1698+427405549+424677960+419126319+412331718+408386296+409044218+412964022
1688+419166767+428718370+440564933+446734469+442248780+434408258+430105165
1678+430866473+435382666+440494228+443953536+447322178+452084573+455164246
1668+453181695+449547628+449543130+453548820+457594220+458674122+458850744
1658+462212991+471429026+487114392+504163042+509703226+504980471+503757507
1648+508971753+513914003+511930258+506426690+503875337+506400194+513869584
1638+525558994+538254719+544768081+542628658+539328050+541137563+548613455
1628+559081095+569962142+580850357+591474975+600200503+607320059+616220733
1618+628834262+641537684+648400565+650459373+652830309+657428733+663014215
1608+667614186+670435356+672296809+674433772+677161396+679922826+682338532
1598+684777714+687934698+692038117+696619392+701085683+705167174+708743538
1588+711825038+714763161+717955076+721394669+724917478+728936768+734554721
1578+742198520+749490831+752764134+753733200+757653250+766077966+775752811
1568+782727653+787630123+793499620+802094703+815105613+835418395+861888202
1558+880043708+881432224+877642058+875410213+874349919+873397791+871961201
1548+870489540+870999937+874991113+881823983+889414999+892948421+885444416
1538+870616542+859298263+854000520+850544621+844951056+838784964+836007509
1528+837331013+840523772+844096693+848607473+853071938+853991594+851010951
1518+847407386+844215963+840720635+837994277+838364318+843163682+851953660
1508+861126753+861961648+850695027+837606735+830440300+829456756+832309273
1498+835077310+833840113+829526126+827447849+830409376+835990711+838852787
1488+836263059+830633931+825355727+822197899+821583764+822991889+825784174
1478+829851256+835087993+840601646+844149827+842634519+836081447+829211186
1468+826043659+826843764+828937503+829626068+829992666+833435352+840930642
1458+848118302+847168845+838235489+829272684+823967702+822181172+822994209
1448+824339993+823606868+820518058+817245177+815600056+816184181+819202988
1438+823903463+827207761+826372234+823380556+821483961+820935330+820299126
1428+819275380+818639035+818336536+818021175+818850658+822280552+826674452
1418+827385156+822942269+816886240+812383050+809964673+808534267+807304451
1408+806960906+807967644+808723119+807809436+806910232+808297132+811279181
1398+813401244+813627134+812204249+809385328+806539558+805920995+807969963
1388+810328810+810417648+809117759+809532852+812724275+817280811+821888371
1378+826543163+831393482+835558469+837808659+838334096+838629216+839372321
1368+840086118+841037121+843439403+847132579+849886910+850179078+849197642
1358+848830553+849439487+850140492+850260185+849968790+849568035+848961350
1348+848141847+847485682+847382787+848251067+850670780+854588580+858527466
1338+860574256+860376690+859351257+859017692+859763609+861048106+862441331
1328+864216476+866829960+870175795+873703172+877077894+880374953+883738430
1318+887168746+890615508+894053555+897484082+900935834+904369453+907584211
1308+910356253+912658734+914632569+916362100+917774302+918831644+919795438
1298+921037766+922487991+923509347+923506536+922436332+920582049+918265020
1288+915905470+914054700+913077341+912770133+912503689+911731908+910275990
1278+908435130+907020398+906784387+907497481+908115763+908039576+907568889
1268+907184720+907132359+907571138+908438363+909260959+909802913+910773385
1258+913217205+917121722+921059061+923638739+924999774+926160854+927270768
1248+927514651+926618188+925266781+923906237+922297172+920408871+918724110
1238+917714561+917648425+918327713+918842046+918379863+917430476+917205148
1228+917715053+917635282+916100717+913602287+911325811+910344446+911045662
1218+912944084+915136219+917004700+918468209+919612139+920270834+920141583
1208+919448871+919211244+920482317+923408350+927211308+930911793+933893772
1198+936106500+937887760+939497528+940942763+942211025+943362406+944347145
1188+945038732+945633118+946705922+948749759+951874695+955600411+958716842
1178+960130168+960227440+960498031+961476093+962459286+963344785+965213336
1168+968582787+971997570+973440978+972722121+971336837+970444942+970160365
1158+970562456+971940500+973838360+975284508+976360405+978456393+982615335
1148+988062079+992472214+994188250+994131251+994474936+995927059+997602823
1138+998904821+999953658+1000579249+1000478252+1000255173+1001241037+1004184571
1128+1008479441+1012748799+1015735698+1016758601+1016346670+1016276809
1120+1018239399+1022086284+1025483778+1026208328+1024766818+1023700340
1111+1024980409+1028491902+1031554426+1030574325+1025035019+1018622584
1103+1015637582+1017596167+1023125914+1030087403+1037105750+1043152572
1094+1046549433+1045881602+1042744718+1041553136+1044593028+1049410947
1085+1052506644+1053374713+1053427988+1052960393+1051198813+1048242698
1077+1045942397+1046613110+1050469835+1054790499+1056434917+1054904850
1068+1052518733+1052087826+1054602843+1058322234+1060109819+1058951340
1060+1057233335+1057387185+1058993861+1059995819+1059599281+1059105330
1051+1060109116+1062090331+1062460373+1060420190+1059177300+1061803997
1043+1067045373+1071486854+1073681942+1073741823+1071496624+1067421318
1034+1063147884+1060012828+1058387879+1057907984+1057870172+1058404887
1025+1060552252+1064177815+1067507977+1069382081+1069813339+1068291776
1017+1064586091+1061109528+1060897062+1063453757+1065629094+1065567878
1008+1063319586+1059325387+1055119214+1053417094+1055185702+1058469899
1000+1061175173+1062850867+1063143456+1061443444+1058144136+1054371681
991+1051447826+1050683285+1051739080+1051874797+1048806932+1043841348
983+1040672065+1041367307+1044387449+1046540156+1046309065+1044255528
974+1041426274+1039011622+1037767327+1036667464+1034319229+1031454623
965+1029875710+1029623814+1028986767+1026320289+1021262986+1015199085
957+1010276374+1007363413+1005865395+1005258499+1005259694+1004801799
948+1002555475+998387114+993671036+990247326+989049559+989486158+989714931
938+987772512+983161155+977580733+974031498+974481522+977758269+980279260
928+980079374+979061532+979450831+980213053+979423912+977839235+977359411
918+977943114+978299661+978115941+977732053+976694391+974483701+972052180
908+970780334+970426809+969917747+969367711+969211119+968472723+966242565
898+963790803+962941218+963571027+964420822+964932836+965397057+965998330
888+966146839+965125482+963026613+960641971+958955173+958690626+959701300
878+960523614+959290354+955581575+951169542+948521620+948508828+950179040
868+952625952+955942902+960045547+963921389+966391776+966730401+965145724
858+963339725+962986832+963192059+961499076+957767596+954586364+953450938
848+953281555+953101489+954087915+957430517+960937653+960463030+955358496
838+949618250+947112440+948208930+950970149+953792795+956131612+957489836
828+957206243+955460688+953366176+951775806+950827122+950573048+951292257
818+953211623+956206183+959687665+962678429+963937976+963012415+961316128
808+960698409+961038018+960613717+959178252+958601296+959708047+960453753
798+958344551+954225600+951759008+952984608+956139906+958472818+959651328
788+960435057+960201998+958439856+956470096+955665212+956050716+957588163
778+960617302+964704134+968453044+970550016+970798467+970290108+970160295
768+970069630+968930267+967113234+966265688+967095030+968802563+970430815
758+971403747+971058305+969359628+967979616+968780705+971031105+971665622
748+969520296+967350580+967449118+968029657+966284594+962888436+960889158
738+961870312+964922855+968206842+970615450+972446610+974255631+975128620
728+973811652+971341124+970176320+971294737+973858882+976365887+976895542
718+973978786+968897164+965847713+968177534+974592218+980110299+981608527
708+980717406+979966429+978997223+975544135+968883459+961682515+956940713
698+954408126+952695955+952737492+955230932+957306538+955376207+949917235
688+944803775+942644813+942629843+942139898+939508844+934901142+929289514
678+923468091+918912329+917485367+919426311+922787608+924645758+922957272
668+918784835+916744933+918152848+919647562+919551485+918807958+919038206
658+920729222+921842158+919248775+913838509+910618551+911331434+911301001
648+906162942+898243212+892720070+891905909+895507083+902242541+909124258
638+912772733+912746236+910673372+907691182+905036793+903707244+901967101
628+896765224+888565134+880960624+877082673+878877357+884776092+889108283
618+887613779+881833261+877393958+877630883+880636758+882560552+881815690
608+879524244+876465867+872753786+870304765+871316352+873833899+872420292
##END=
