##TITLE=<SNM>
##JCAMP-DX=4.24
##DATA TYPE=INFRARED SPECTRUM
##DATE=3/5/2025
##SAMPLING PROCEDURE=Instrument type and / or accessory
##ORIGIN=Admin
##XUNITS=1/CM
##YUNITS=ABSORBANCE
##RESOLUTION=4
##FIRSTX=4497.3318
##LASTX=599.83466
##DELTAX=-1.4281778
##MAXY=2.3251207
##MINY=0.56967235
##XFACTOR=1
##YFACTOR=2.1654374e-09
##NPOINTS=2730
##FIRSTY=0.58681709
##XYDATA=(X++(Y..Y))
4497+270992405+269822573+269293727+270040988+271473688+272394634+272316379
4487+271676881+271088744+270926647+271370302+272358631+273514700+274369778
4477+274803001+275157639+275658520+275863585+275217535+273972558+273030830
4467+272964962+273488936+273957612+274187037+274371650+274306800+273473219
4457+271951282+270513545+269824803+269988552+270646658+271317646+271897029
4447+272652851+273469173+273630472+272672586+271031574+269773358+269799645
4437+271006911+272234822+272436501+271675835+270695103+269996754+269602067
4427+269317068+269092516+269141869+269614564+270264990+270624583+270435703
4417+269803003+268992543+268216739+267619436+267305839+267229813+267173138
4407+267012390+266904187+267024363+267306417+267549742+267594388+267413628
4397+267126813+266910628+266813821+266634493+266120895+265369919+264909418
4387+265224502+266157146+266856458+266541622+265400912+264438980+264396646
4377+265169753+266032098+266087892+265010739+263602179+263074956+263770084
4367+265088443+266436034+267598352+268387314+268509224+267822134+266542971
4357+265200857+264313629+264057615+264297554+264832759+265462707+265900224
4347+265878919+265449164+265033035+265008152+265289186+265521474+265568129
4337+265512170+265360973+265128823+265002977+265008124+264797609+264283131
4327+264110849+264845311+265945971+266349302+265880763+265289489+265139310
4317+265385966+265757064+265989682+265911564+265598572+265320455+265265597
4307+265446384+265748669+265938319+265832979+265581699+265511234+265671075
4297+265908482+266359156+267284176+268391222+268975423+268828712+268451916
4287+268399177+268815720+269397305+269520427+268696507+267093397+265480488
4277+264629484+264737246+265440053+266399866+267577708+268754173+269385552
4267+269350760+269228519+269466669+269804462+269769119+269358549+268964908
4257+268829951+268884781+269109169+269682937+270625408+271586597+272138262
4247+272137326+271822022+271616848+271698240+271762072+271420316+270738042
4237+270097002+269631409+269195764+268893397+269114041+269920399+270856017
4227+271517618+271937106+272299809+272653016+272829316+272494799+271614618
4217+270823481+270815527+271503801+272155934+272164026+271532400+270806195
4207+270558934+270929620+271778037+273083679+274757364+276191413+276505341
4197+275440849+273816985+272750704+272539198+272669448+272662292+272453236
4187+272243189+272368210+272941427+273415416+273106443+272240574+271780954
4177+272318306+273668072+275201102+276231930+276496477+276385605+276369915
4167+276350097+275953152+275233197+274692927+274756759+275484146+276618938
4157+277651693+278008120+277492541+276475641+275536059+275072338+275256208
4147+276022902+277020700+277882632+278547399+278961684+278668263+277333554
4137+275612360+274706415+274994248+275794661+276504900+277203964+278022681
4127+278695733+278916735+278640710+278077787+277669612+277746326+278036857
4117+278041233+277974346+278609937+280037462+281247040+281256839+280217038
4107+279135260+278833829+279328351+280066556+280657115+281190310+281739718
4097+281968152+281655656+281226038+281191053+281378006+281232314+280696861
4087+280316267+280461684+280826947+280910679+280750811+280805422+281292072
4077+282081447+283007953+283749792+283743626+282856453+281734736+280954995
4067+280355766+279645417+279081998+279058436+279454445+279829452+280022983
4057+280273492+280800467+281477208+282004541+282272116+282364298+282368372
4047+282437929+282794136+283293970+283302311+282541893+281685603+281457307
4037+281605367+281458133+281072859+281064546+281620891+282355518+282890447
4027+283103081+283032424+282857086+282725735+282514505+282101072+281870712
4017+282453563+283795374+284936717+284992181+284124991+283247700+282913156
4007+282944397+283111201+283569720+284412743+285292979+285722459+285492318
3997+284828707+284259288+284181776+284542305+285064683+285570738+285934790
3987+286125541+286414889+287091244+287911585+288220366+287659700+286569472
3977+285684253+285521991+286004402+286632835+286957581+286863994+286648525
3967+286882189+287888904+289306768+290455515+291062121+291256809+291065727
3957+290376627+289285766+288207842+287687996+288042139+288951855+289601345
3947+289666608+289832339+290742578+291926998+292264653+291309272+289733468
3937+288642304+288822678+290257827+291995207+292782407+292300712+291494491
3927+291312658+291627907+291695207+291411612+291520448+292445550+293534210
3917+293631787+292259754+290135339+288509603+288133798+288911200+290496391
3907+292980728+296483039+300145053+302435198+302788625+301702856+299475579
3897+296534401+294237237+293908859+295394490+296932007+297148026+296963193
3887+297827217+299419840+300463274+300947667+301265724+300378028+297873955
3878+295787058+295788820+297385433+299636548+302298369+304281000+303820389
3868+301848053+301087001+301946539+302241749+300555375+298223005+297423281
3858+299297737+303827298+309515735+312292228+309404505+304132170+300168119
3848+298647393+299187360+300765697+302608085+304661071+307008469+309005661
3838+309535581+308513451+307112571+306095505+305255759+304417443+304004617
3828+304303268+305110782+306568585+309097596+311753390+312553252+311867400
3818+311529828+310962996+308539435+305408084+304199607+306003075+309935636
3808+313549563+314841470+315013036+316302053+318203484+318598942+317663517
3798+316765747+315592998+313559913+311577337+310782209+311216588+312433241
3788+314223414+316254186+317841111+318963737+320670673+323501501+326412592
3778+328264945+329340145+330633538+333239951+338041876+344421065+350072453
3768+353578535+355620236+357413849+360344292+365913847+374193173+382950864
3758+389893966+395631262+402407615+411509264+421966982+430362961+434945591
3748+438679033+444664525+452506610+458770467+462141619+465140737+470240763
3738+478871204+491118985+504043010+512960707+516698553+518216086+520331913
3728+523684293+527622029+531430891+534679280+537055332+538867222+541239696
3718+544966698+550369008+558163886+568379408+578049705+583040675+583689835
3708+583567732+584981495+588977475+595711301+603740751+610582037+614864172
3698+617162052+619499183+623948563+630177022+635363203+637353183+636907656
3688+636222602+636359404+636712610+636131603+634362267+633026237+634759735
3678+640394085+646715085+649349546+649062951+648384173+647016764+644440271
3668+641605370+638895929+636368377+634711400+634757863+637993810+646662621
3658+660175582+671634703+674358952+671647530+670572991+673708471+678725480
3648+681060079+679113534+675778550+674039382+673719866+673030354+672328234
3638+673700764+677281274+680996605+684198751+688093878+691660681+691537808
3628+687663985+684425726+683990163+685183667+687675821+692201171+697604142
3618+701000398+701336594+699939457+698763734+699373974+702467284+706507085
3608+707947216+705911324+703452090+702783552+703678514+705584872+708437665
3598+710996982+710765162+706954814+701938025+698811298+699023134+702498828
3588+708240638+714855555+720708842+723156846+719628303+711250326+703286001
3578+700290351+702186029+704922334+705215040+704725307+706916223+710900422
3568+711660950+707200616+702311765+701620161+704191864+706612067+707941987
3558+709275044+710435958+711325856+713551399+717531964+720499318+719698163
3548+716069482+713004633+712695192+714710661+717391254+719552057+720623844
3538+720023734+717152939+712898550+710201661+710884457+713241792+714435516
3528+714925634+717195548+720303778+719860508+714813441+709775677+708131967
3518+708406891+708309011+708450602+710191256+712279723+712076530+709754758
3508+708946390+713223736+722280766+730329373+730751504+724331192+717882143
3498+715847076+717635130+720636340+723368682+725293371+725011511+721042120
3488+714822744+710643224+711291504+715287704+719348865+722703612+726727613
3478+731012775+733361357+733665183+733603030+732729152+729625107+725182389
3468+721473554+719348369+718678730+719534056+721495244+723173361+723970278
3458+724696510+725532843+725309722+723414924+720741707+718597310+718051205
3448+718907632+719329817+717594062+713984099+710113414+707356850+707007773
3438+710388834+717947324+727555248+734137685+733522766+727464744+721457259
3428+717713137+714082034+710152170+709476916+713850931+719339286+719784317
3418+714663427+709488036+708539014+711660400+716825716+722684784+728065735
3408+731354531+731402095+728137797+722636615+716956517+713228525+712599128
3398+715037223+719693593+724592408+726771874+725244651+721517265+717427918
3388+714612615+714356683+717289851+722453570+726989160+727770827+724270195
3378+718909613+714463317+712984044+715225882+719207274+721000557+718549250
3368+713901412+710919855+711527452+714441131+717240635+719043717+720566095
3358+722450708+724109722+724277462+723048671+722461553+724215585+727408482
3348+729125520+727582223+724422136+722830834+723519631+724305098+723857203
3338+723787564+725734770+728535595+730051421+729713739+728079112+725926402
3328+723899538+722594446+722806282+725165874+729494251+733712196+734670247
3318+731443053+726763726+724221530+725076966+727455055+728687150+728205895
3308+726900087+725565708+724659956+724229237+724034027+724136972+724925136
3298+726678727+729334328+731951613+732630942+730293370+725906198+720977821
3288+716769399+714773308+716052471+720193731+725000170+727502234+726309281
3278+722634963+718403475+715096567+714503999+717263591+720908347+723078563
3268+725620154+730836612+735979303+735818389+729771047+722133835+717043112
3258+716002485+717868491+720879775+724471902+728425603+730829731+729173414
3248+724225109+719551562+717179804+716076969+715033919+714940608+716564059
3238+718497227+719487593+720751066+723155414+724291995+721565544+716959490
3228+715179749+717860288+722144625+725099647+727370993+730200664+731902178
3218+730420427+726453294+721346001+715498879+710629241+709696074+713153436
3208+717946057+721032541+722061663+722072398+721378536+719786024+717661554
3198+716049829+716212890+718445094+721035514+721480381+719354975+717003090
3188+716213000+716203421+715892989+715605623+715360592+714300256+712903504
3178+712786576+713505266+712314460+708174081+703413279+700378322+699427043
3168+701073946+706267668+712883576+715520349+712355087+708062713+707032766
3158+709053629+711683356+712862216+711439205+708550739+706973641+707558997
3148+708738463+709340500+709281375+708072072+705370504+702187240+699695416
3138+697884461+696435136+696269488+698452532+701671028+702809095+700766211
3128+697711436+695897344+695630567+696063212+695955973+694352946+691712209
3118+689666462+689187354+689929771+691374527+693340670+694869378+693927457
3108+689820439+684977887+682777832+684106926+686736433+688128230+688038497
3098+687635689+687105824+685495916+682921350+681103459+681131149+682230571
3088+683039049+682947224+681946894+680457326+679344637+679333242+680762639
3078+683835966+688095474+691801832+692858974+690691565+686897016+683621047
3068+681810918+681223800+681252151+681203321+680090302+677523168+674866466
3058+673975413+674996772+676261181+675869934+673191322+669481277+667077864
3048+667349816+669150696+670022482+668630410+665679131+663475003+663803436
3038+665985764+667680066+667730438+667444448+668136989+668666193+667143210
3028+663999308+661633055+661509575+662678691+663628430+664429420+665825731
3018+667235530+666943595+664221658+660559892+658257718+658042194+658506714
3008+657921743+656449736+655645498+655882657+655781198+654435369+652653921
2998+651409441+650701321+650260473+650018855+649745912+648997605+647735619
2988+646632674+646270163+646220893+645529784+644245666+643404874+643273192
2978+643042969+642514976+642490093+643095873+643389184+642692570+641355108
2968+640284203+639879469+640012637+640573606+641268954+641514866+641165293
2958+640685579+639949989+637971460+634585223+631105731+628863177+628200364
2948+628823375+630018255+630833724+631106061+631773003+633139476+633640495
2938+631548670+627476610+623967225+622711348+623152141+624052223+625319000
2928+626979775+627652332+626029707+622905403+620076062+618297312+617303533
2918+616687018+616141188+615493404+614763209+614147024+613885697+613881458
2908+613572623+612692194+611803507+611394809+611062687+610245621+609100232
2898+608072927+607034502+605456688+603468690+602132549+602318511+603568772
2888+604412537+603919612+602741247+602271498+602883774+603389361+602407033
2878+599931449+597206814+595438029+594911522+595120770+595529909+595949782
2868+596161232+595757324+594600704+592971528+591249426+589792008+588867153
2858+588403789+588027186+587477227+586871007+586470787+586190027+585566245
2848+584469906+583336023+582374559+581433574+580784524+580983533+581790854
2838+582112517+581300130+579906407+578900461+578519894+578115766+577008417
2828+575236383+573419703+572142853+571637430+571827576+572333329+572601592
2818+572335256+571707785+570991848+570133660+568973462+567639303+566365095
2808+565261214+564536964+564419100+564581060+564207320+562840846+560809743
2798+558827140+557454225+556878227+556937903+557243160+557362840+557016625
2788+556135921+554797138+553344124+552476192+552637326+553301845+553470466
2778+552803139+551654777+550281312+548710490+547175891+546131685+545813271
2768+545948476+545947980+545418390+544480543+543484672+542487755+541274103
2758+539873498+538612172+537657314+536980848+536546331+536070361+535032652
2748+533364334+531727891+530814156+530676363+530852857+530848342+530456545
2738+529807220+529186245+528818505+528687980+528448949+527675153+526305707
2728+524695082+523267557+522294312+521815535+521527839+520908736+519646584
2718+517900259+516102737+514573973+513440420+512846861+512846311+512989553
2708+512538136+511328723+509976948+509068718+508583774+508142872+507444991
2698+506422035+505274169+504432220+504206622+504333349+504145405+503400952
2688+502598144+502250993+502263820+502235194+501981079+501526523+500818569
2678+499679676+498159170+496792751+496110065+495944031+495722561+495293660
2668+494868447+494414552+493751684+492983669+492316507+491701093+491003378
2658+490269879+489569797+488811526+487943813+487163357+486679514+486398755
2648+486106545+485821601+485628537+485310839+484613289+483741888+483113537
2638+482733135+482288874+481767377+481434870+481255128+480869387+480170791
2628+479470213+479051936+478808281+478328127+477324218+476010759+474945083
2618+474462617+474410209+474352460+473901704+473024302+472111558+471531597
2608+471174317+470761820+470448581+470658214+471399475+472093061+472096144
2598+471280180+470083318+469021000+468241535+467666418+467369859+467480126
2588+467808504+467963748+467808890+467495540+467110073+466568593+465821662
2578+464934792+463979769+463009276+462164355+461689183+461742115+462210378
2568+462733802+462901432+462496863+461714534+461127416+461187972+461689486
2558+461957859+461679246+461239445+461092899+461182770+461180926+460968677
2548+460697441+460620673+460899423+461367218+461607818+461381146+460754199
2538+459858630+458896451+458263558+458225105+458576412+458953869+459273604
2528+459593258+459838041+459934105+459950703+459898983+459623150+459066365
2518+458436032+457962787+457662292+457405369+457081120+456671458+456293479
2508+456150071+456299617+456519187+456537685+456363889+456244951+456314068
2498+456413737+456295268+455888607+455326867+454792103+454415335+454278753
2488+454424721+454796424+455163531+455218087+454825849+454130859+453396150
2478+452821886+452511564+452488388+452669230+452863587+452883295+452711619
2468+452529125+452506362+452572753+452457862+452050430+451673221+451765432
2458+452248586+452545531+452347925+451945228+451680103+451577598+451561330
2448+451543769+451331108+450865322+450441292+450349054+450482223+450534989
2438+450398903+450189655+450019712+449888636+449745889+449565212+449350954
2428+449117979+448855633+448474268+447900418+447338816+447221668+447668433
2418+448209804+448317373+448019603+447747321+447764992+447958441+448067993
2408+448017841+448008483+448244403+448594334+448692050+448386517+447899234
2398+447559763+447548092+447829952+448210822+448468185+448433751+447954643
2388+446979251+445785444+444841266+444235761+443449827+441909530+439689713
2378+437461417+435715395+434213717+432367832+430025664+427561943+425308076
2368+423312949+421560541+420042402+418799050+418199188+418808436+420692443
2358+423239704+426019197+429516195+434515313+440731771+446579113+450505867
2348+452017675+451616134+450356596+449065295+447641568+445604354+443013356
2338+440325991+437749719+435105101+432250711+429550024+427724343+427044162
2328+426943942+426688698+426121674+425609948+425530675+425910801+426447465
2318+426835106+427060044+427357044+427905984+428622444+429309947+429970338
2308+430761970+431668410+432483852+433118011+433614818+433933700+434036865
2298+434107799+434376640+434787044+435058005+435065987+434981319+434966510
2288+434949114+434881016+434983273+435396678+435822827+435877465+435585365
2278+435235874+434987457+434815726+434633259+434366593+434066153+433913772
2268+434013056+434231388+434293375+434028222+433584237+433350023+433512533
2258+433770557+433689852+433249638+432810827+432638903+432670364+432701853
2248+432663786+432682999+432891366+433194724+433314020+433111295+432820240
2238+432883411+433523598+434464859+435143003+435243829+434952032+434665051
2228+434632406+434890567+435340251+435794118+436043223+435973061+435680933
2218+435482502+435670061+436187402+436649802+436745067+436516551+436241737
2208+436194971+436551123+437324918+438299072+439125909+439581290+439660343
2198+439479831+439234965+439163811+439356517+439679859+440002127+440330670
2188+440668793+440959187+441200943+441425000+441614540+441818421+442195107
2178+442786519+443420430+443955194+444441624+444977270+445585334+446257864
2168+446961497+447636421+448315006+449148201+450235457+451558660+453101765
2158+454869670+456803415+458822325+460902671+463032673+465160776+467203990
2148+469063500+470707485+472250397+473817256+475351139+476710236+477927797
2138+479219126+480737650+482449017+484255348+486151356+488213893+490469824
2128+492803762+494983448+496790714+498148875+499085346+499597705+499665142
2118+499363628+498798861+497941939+496693329+495084246+493244720+491169631
2108+488701754+485830244+482847531+480096692+477704510+475613401+473689978
2098+471767545+469757306+467729506+465772502+463849463+461913708+460095157
2088+458633858+457583129+456653154+455500691+454169697+453053045+452416464
2078+452166560+452062266+451962294+451852990+451722932+451454367+450909996
2068+450153459+449459569+449058744+448973002+449081783+449220098+449231383
2058+449025135+448620539+448137192+447723126+447445697+447265681+447135953
2048+447045477+446969892+446923649+447020649+447301271+447591610+447732182
2038+447821998+448047073+448421254+448836090+449200995+449439201+449496398
2028+449413684+449307904+449287783+449394444+449533916+449494086+449123924
2018+448450707+447611978+446788197+446175453+445874847+445804547+445768434
2008+445575700+445128137+444481591+443786078+443142450+442595410+442164526
1998+441763673+441293703+440901961+440844048+441050021+441177684+441092795
1988+440933450+440783657+440604383+440374739+440097833+439758416+439352141
1978+438901631+438450104+438059848+437780823+437636947+437663812+437872345
1968+438116661+438111403+437711734+437098852+436573859+436262959+436126956
1958+436134663+436261225+436386411+436364666+436192769+436007440+435919827
1948+435945976+436124286+436518313+436933837+436878483+436167033+435277906
1938+434736177+434555087+434500862+434495935+434573860+434730617+434943334
1928+435193898+435464693+435716992+435878043+436007660+436373556+436984291
1918+437234140+436602128+435540526+434976337+435252279+435919331+436265712
1908+435982007+435374713+434913799+434711212+434574245+434394669+434278622
1898+434352087+434557950+434717955+434866923+435293292+435989796+436395549
1888+436107523+435498852+435156711+435153766+435138764+434842040+434356243
1878+433978649+433841958+433895990+434337443+435660619+437904852+439981427
1868+440364059+438869702+436808568+435324809+434646912+434502569+434559601
1858+434604936+434630920+434745563+434986081+435343361+435869951+436699788
1848+438088117+440128634+441984537+442066893+440177106+438102705+437245618
1838+437460674+437855939+438057426+438696126+440457232+442768903+444078674
1828+443904217+443236725+442583491+441559379+440253351+439422964+439394254
1818+439740607+440019247+440390813+441305319+442737661+443989601+444391611
1808+444078976+443817127+444266810+445587426+447441376+449149881+450110271
1798+450460010+451158000+453054724+455758879+457414480+456642557+454674652
1788+453635841+454195213+455751668+457644125+459603387+461263805+462234215
1778+462854859+464110955+466701486+470313045+473395235+474407621+473628816
1768+472295593+471306879+471446708+473105943+475473737+477209933+478247367
1758+479325099+480408225+481410152+483237401+486620059+490607286+493162749
1748+493573539+492970236+492608167+493052152+494344362+496071584+497626222
1738+499238828+502086997+506405300+509820438+509939458+508215814+506788839
1728+506183445+506575132+508116007+510514520+513702407+518432602+525088201
1718+531801769+534960260+533811733+531300475+529806999+530140388+532555966
1708+536917760+542127722+546513683+549973633+554181504+559637048+564172087
1698+566452901+567644533+567988436+567483619+567745772+569966580+573754908
1688+578711472+585602414+594246177+600581435+601333540+599752368+599702988
1678+602421621+607528914+613425637+618565410+623274574+628174600+631802125
1668+632719713+632975865+635359624+639878368+644260035+647064658+649590889
1658+653877868+661145414+671820500+683407174+688801998+688094373+688878078
1648+693011520+696700702+696413116+694485343+694556909+697124484+701122005
1638+705827646+710412121+712494366+710734279+707683082+705994946+705994010
1628+706734005+707783385+709409203+710790651+710240362+708146996+706425224
1618+705003479+701706976+696300261+691456497+688457214+686420661+684154655
1608+681300982+678401395+676164071+674757796+673777945+672860742+672187249
1598+672098177+672292727+671885350+670474120+668726969+667582901+667193526
1588+666858431+665926860+664587251+663511171+663048744+663423585+665288325
1578+668900104+672423197+673070431+671953833+672669770+676141996+680074723
1568+681991540+682486448+683628148+686760655+692904722+703065687+715726790
1558+723634082+724016245+723397749+725718915+731026868+738110929+745527827
1548+752159314+757859395+763233024+768836491+774782594+779513504+779530350
1538+775642600+773211827+774319946+777031534+778585126+779202632+781198722
1528+785199822+789777525+793679478+796996240+799576641+800680357+801135573
1518+802449748+804239453+805555005+807045893+809852278+813905566+818480902
1508+822700224+824444567+822352357+819346413+818263726+819446550+822139145
1498+824770468+825336392+823791553+822875286+825041264+830041813+834423424
1488+834354446+830574981+827020894+825998599+827063614+828673302+830143547
1478+831993588+834671429+837733635+840157637+841101264+840874179+840747728
1468+841354168+842049902+841679189+840344370+839979988+842216100+846826944
1458+851424080+852341779+849132256+845065315+842320091+841547947+842690254
1448+844716568+846040322+845834431+844370573+842493006+841372500+841956095
1438+844158572+846682215+848173324+848664543+848704951+848356699+847700932
1428+847141230+846873957+846816319+847262176+848934017+851985930+855065918
1418+856141172+854919592+852434649+849140348+845588409+843032285+842291850
1408+843175417+845016044+846647368+846710401+845407016+844423697+844527358
1398+845011035+845386482+845527963+844424578+841447755+837872364+834954556
1388+832136555+828573110+825567826+825448035+828724995+833709800+838072914
1378+840534736+841561600+842650342+844773380+847450671+849494381+850201069
1368+849749872+849275443+850213951+852823419+855715794+857355210+857637841
1358+857309627+856844557+856607068+857044888+858044942+858760329+858683147
1348+858209214+857802058+857773211+858951961+861983174+865681274+867694100
1338+867475713+866529333+865652097+864683146+864149042+864871640+866616533
1328+868471254+869860904+870596053+870833158+871043012+871431781+871728561
1318+871795723+872032772+872900209+874349865+875648020+875782289+874660627
1308+873601943+873948598+875608989+877225999+877418127+875921733+873931423
1298+873023083+873481381+874125202+873649672+871524652+868109294+864597376
1288+862391046+862033601+862794459+863339959+862740124+860899717+858334180
1278+855734841+853520584+851737485+850258267+848787417+846940129+844657278
1268+842436249+840889263+840100274+839693998+839414615+839065372+838032562
1258+835817919+833095597+831182908+830332702+829390616+827419463+825095269
1248+823893672+824307435+825442695+826202452+826231960+825739584+825196838
1238+825323455+826639557+828872972+831324884+833527416+834998321+835200523
1228+834414726+833647702+833368539+833414837+833906662+835050895+836364850
1218+837106661+837226617+837286787+838000522+839887062+842724826+845488326
1208+847259259+847950093+848114475+848589839+849936604+851866194+853875001
1198+856231951+859180587+861827930+863405965+864853748+867480337+870732194
1188+872582015+871982510+870273070+869929222+872086006+875678078+878935825
1178+881091178+882613666+884368854+886698168+888904608+889635739+888482753
1168+886797920+886055394+886086222+885847687+885373423+885666734+887227868
1158+889971054+893929600+898463813+901683575+902417734+901398081+899516056
1148+897271685+896343802+898479172+902850709+906868490+908891445+908992299
1138+908120567+907740386+909334220+912781122+915560422+915320015+913135540
1128+912049110+912914455+913883902+914087865+915225327+918460669+922466503
1118+925575613+927632535+928633140+928085934+926932398+927537077+931281419
1108+936707127+940626090+941804950+941240459+939972526+938720999+937798786
1098+936874812+936038919+936528211+939008695+942005336+943345825+942481086
1088+940504648+938329697+936270132+935012329+935170656+936194713+936876023
1078+936801484+936646460+937207099+938833523+941688243+945686149+949534978
1068+950714609+948682240+946835172+948811279+953936298+957873099+958170484
1058+956902551+956815130+957451079+956858511+955474200+955380174+957216892
1048+959627901+961354188+962963436+964963986+966264618+966339818+966451241
1038+967738661+969547194+969958424+967594979+963001751+958709432+957442380
1028+959563492+962224983+961931892+958104313+953163163+950199553+951059338
1018+954901451+958170814+958180613+956452895+955977146+957001203+958335857
1008+959910753+960873924+959605771+956614305+953812544+952005773+950650970
998+949084442+947222510+946089122+947560853+952220582+957820470+960851133
988+959360684+954183037+948072826+943868258+942572580+942756891+941513181
978+937380950+932539222+930255270+930521387+929687035+925075311+918661990
968+914460395+913663643+913897885+912722107+910456763+908408539+906355635
958+903880602+902170500+902126350+902038103+899231553+893633646+887716279
948+884075433+884074717+887029960+889999406+890013444+887217353+884544081
938+884384709+886530923+888844658+889191534+887113472+884030842+881778764
928+880987958+880865084+880474938+879739348+878912373+878046533+877573425
918+878423687+880926301+884100371+886395994+886899214+885603040+883222199
908+880979755+879976508+880380086+881380581+882498389+884223575+886091617
898+885800068+882732466+879991206+880285894+881865469+881244715+878557020
888+876529605+876210970+876779591+877707970+878829302+879260901+878335991
878+876831229+875519036+873649672+870566051+867490522+866208166+867039930
868+868666079+869542214+869138526+867700926+865829636+864971612+866822204
858+871324927+876537147+880883581+883759110+884130153+881607225+878490133
848+877699162+879147386+880396271+880131476+879073122+878191482+878047469
838+879268223+881758065+884397205+886822968+890055998+894517929+897967859
828+897302569+892551235+886945787+883972543+884888810+888324867+891825720
818+894065906+895357620+896086109+896263098+896946775+899647517+903943580
808+907674160+909366810+908743744+905980849+902024560+897934608+893729545
798+889924151+888475817+889701911+890451594+888149090+884696902+883801169
788+887086002+893669815+901042728+906221752+907726018+906128055+903031166
778+900399293+900266620+903455554+908039588+910868929+911282967+910999124
768+910553102+909165984+907660837+907480601+907496510+905600227+902713412
758+901576446+902805292+905408429+909069260+912468653+912718199+909294253
748+905161636+903302677+904444488+907520237+910954698+913604078+914475038
738+912831273+909940275+909339890+913569066+920958108+927178916+929729534
728+928757776+925474870+921916820+919611508+918725133+919650099+923081587
718+927215800+928277291+925539830+922747153+923539941+927491164+931137186
708+932100467+931557334+931867491+933369831+935217009+936438258+935539166
698+931330415+924757116+918670413+915613491+916277625+918865018+920758604
688+920678064+918457916+914739668+910849881+908316989+908690950+913784590
678+923608204+934568949+941818823+942144945+935536414+925850207+919251145
668+920677844+926587669+928157831+924855988+921347759+920995763+922029949
658+920400828+915292599+909718970+909715337+918816078+932008312+938031872
648+933348691+927422901+928345224+933385135+936145057+937385464+943003629
638+955004947+968041001+973263130+966577748+953370815+941264901+932199779
628+927771594+933751884+953041831+980349613+1001164911+1003350542+995109752
618+991038847+987918782+974024374+952822068+942826585+957217332+992331663
608+1026913651+1041581414+1034386041+1017133637+1013201902+1036780094
600+1073741823
##END=
