##TITLE=<SNM>
##JCAMP-DX=4.24
##DATA TYPE=INFRARED SPECTRUM
##DATE=3/5/2025
##SAMPLING PROCEDURE=Instrument type and / or accessory
##ORIGIN=Admin
##XUNITS=1/CM
##YUNITS=ABSORBANCE
##RESOLUTION=4
##FIRSTX=4497.3318
##LASTX=599.83466
##DELTAX=-1.4281778
##MAXY=1.9059545
##MINY=0.37821203
##XFACTOR=1
##YFACTOR=1.7750584e-09
##NPOINTS=2730
##FIRSTY=0.39622551
##XYDATA=(X++(Y..Y))
4497+223218292+223069940+223694425+224038190+223574548+222889235+222682993
4487+222850098+222939251+222892425+222823638+222596359+222069119+221431487
4477+221059113+221211411+221896204+222827147+223491306+223476279+222903338
4467+222417786+222512277+222959667+223236072+223342786+223641387+224069502
4457+224274569+224378916+224794338+225287781+225122304+224214597+223358585
4447+223209293+223599178+223826558+223317232+222104058+220793202+220005892
4437+219930306+220383437+221009282+221440655+221495455+221135321+220339130
4427+219329444+218582043+218219742+217895588+217531625+217452261+217615707
4417+217516918+217024247+216676100+216954671+217623363+217969613+217644048
4407+217050674+216772253+216899686+217165430+217409247+217634797+217859272
4397+218060293+218149394+218036250+217790267+217605180+217559378+217584327
4387+217646365+217728398+217614767+216953580+215699422+214386988+213705167
4377+213795460+214199348+214476476+214686260+215233933+216288649+217423064
4367+217986318+217820807+217348536+216959826+216568513+215818543+214616769
4357+213435477+213070188+213962415+215596167+216682631+216374158+215266841
4347+214618632+214721636+214837701+214570950+214322398+214431144+214756474
4337+215027104+215064158+214936222+215003598+215406009+215715154+215542138
4327+215092012+214715558+214424395+214167398+214181434+214746669+215640004
4317+216122719+215771063+215120117+215035532+215625212+216238146+216350602
4307+216026162+215636025+215456629+215556577+215945069+216603116+217267375
4297+217500733+217241486+216959574+217031500+217367172+217813890+218483472
4287+219468309+220437499+220686454+219788401+218244456+217142495+217054552
4277+217592135+218093351+218325734+218428217+218562399+218727255+218746596
4267+218527376+218367154+218715418+219529826+220196318+220299120+220146571
4257+220244085+220605294+220961466+221277091+221611068+221801360+221676161
4247+221354122+221150465+221361945+222055939+222864789+223277290+223314613
4237+223449701+223756697+223747765+223163004+222340957+221727050+221480630
4227+221578731+221941653+222408233+222811953+223127259+223423695+223664405
4217+223701712+223581029+223599195+223860691+224057783+223879966+223356453
4207+222803340+222729550+223471880+224544796+224930769+224432810+223938309
4197+223978033+224023214+223688414+223599682+224338470+225303781+225469897
4187+224871922+224512207+224964248+225772813+226236421+226241071+226138857
4177+226169078+226346157+226755115+227523620+228476844+229137224+229206867
4167+228938135+228922739+229423368+229873796+229406226+228101212+227098192
4157+227130931+227712855+228142733+228497982+229143235+229993791+230714916
4147+231070450+230818490+229839428+228544035+227640274+227422799+227674827
4137+228150120+228722793+229266856+229875945+230939895+232501418+233794729
4127+233921423+232819814+231194743+229751753+228839832+228593799+229024248
4117+229920085+230874718+231525512+231754034+231671010+231457817+231281225
4107+231302917+231568225+231896073+232019023+231824483+231417388+231021408
4097+230805193+230705531+230567001+230553032+231065749+232124142+233225012
4087+233986667+234555310+235209143+235881495+236195911+235832503+234893971
4077+233922615+233430062+233507260+234007251+234759856+235334241+235112368
4067+234125935+233310453+233367521+233913985+234236712+234264600+234262434
4057+234159867+233770871+233340238+233387097+234103001+235156088+236015995
4047+236354925+236238406+236023013+235974038+235961933+235677502+235149372
4037+234771626+234803425+235146233+235596795+236069587+236548054+237000984
4027+237423374+237870344+238358481+238791902+239085752+239256719+239302538
4017+239188940+239011156+238885000+238674611+238188773+237612105+237379906
4007+237666990+238291223+239073311+240042282+241246038+242451826+243156816
3997+242990869+242070150+240893661+239954742+239493568+239460006+239632082
3987+239850765+240057175+240074837+239712520+239239258+239306500+240141525
3977+241232120+242013654+242431779+242670509+242732160+242452531+241798715
3967+241137914+241026298+241507686+241964796+242032089+242148255+242705716
3957+243289672+243346907+243050254+242987209+243421906+244176694+244907154
3947+245372878+245676868+246101071+246543861+246472891+245734288+244961283
3937+244876631+245656284+246959736+248085152+248239229+247343174+246405901
3927+246488892+247533080+248522535+248830622+248991046+249771489+250984445
3917+251528055+250605842+248699916+247014621+246254292+246287552+246925922
3907+248580644+251682938+255579678+258565369+259367923+257886536+254685788
3897+250967521+248486572+248493271+250569963+252446944+252367697+251857146
3887+253213703+255794969+257111937+256893438+256757796+256607362+255360961
3878+253856069+253697039+254962899+256929939+259320157+261305548+261299789
3868+259584256+258168147+257766324+257373903+256226006+254889411+254581324
3858+256703364+262420017+270755595+275738933+272112488+264477905+258505011
3848+255822084+256223756+258731484+262003856+265067400+267559699+269008330
3838+268652796+266753048+264782298+263549883+262660342+261788246+261444917
3828+262123112+263807568+266765808+271172696+275091514+275427253+273093447
3818+271533872+270863266+268964694+266067685+264408296+265272115+268239757
3808+271336092+272804215+273769006+276194650+278999486+279321760+277554952
3798+276042957+274975230+273689138+272787677+273024946+273955436+274819356
3788+275769020+277412778+279709597+282210643+284940882+287897881+290249282
3778+291471120+292572376+294959170+299145931+304641701+310110273+314287262
3768+317444324+320711390+324548695+329298743+335726868+343755769+351772716
3758+358583976+365329992+374050150+385606523+398592755+409360425+416302038
3748+422869650+432308297+443315855+451443646+456147221+461439603+469907247
3738+481530576+494853673+507624362+517565754+523973630+528323047+532596576
3728+537253880+540870470+542254965+542700826+544177025+546386925+547926621
3718+549404029+553342104+561407875+572778623+584601378+594155469+600783624
3708+604810213+607480077+611659384+619060526+627474544+633332665+636595400
3698+639052038+640636831+641011170+642218535+647237115+655981886+663698671
3688+666255575+665565057+665066208+665626104+666347783+666351275+666678670
3678+669721732+675011562+677583107+676012081+674191295+673538318+672497303
3668+670496197+668885817+668220953+668237071+669543427+673646039+681108698
3658+689931843+696718825+700839906+704963673+710113748+713894136+714100982
3648+711494582+707305202+702563246+699502321+700102310+703840523+707943203
3638+709616577+708080944+705234051+704326277+707229649+713151033+719476708
3628+724118598+727975614+732233630+736425696+739674596+741275373+741960720
3618+743932276+747535770+750633028+751838110+752646692+755793244+761190325
3608+764452993+762303535+757937933+756040586+757001684+758268216+759063433
3598+760175972+760119895+757145402+753610677+753503695+757434987+762612126
3588+765390451+763761602+759883700+757859358+758250956+757340831+752614725
3578+746975539+744675513+746100941+748953811+752249923+756790875+762922195
3568+769525232+774774297+776903070+774167726+766612860+758466063+755496070
3558+758926095+763951121+765361438+763493306+762405548+763880068+765888091
3548+765708847+763179812+760886503+761229210+763918886+766889953+768669908
3538+769294678+769512136+770023006+771351995+773354309+774693976+773727506
3528+770028513+765050027+761226120+759344287+758158144+757404229+758641211
3518+761915430+764752920+765943026+767100024+769457402+771871529+772278372
3508+769929993+766128047+763105334+762064789+761955053+761394284+761057084
3498+762174391+764244938+765517043+764640431+761489447+758157472+757918255
3488+761995952+767905516+771233125+770129452+767356903+766551948+768527936
3478+771477849+773589228+774304863+773580094+771954133+770911707+771320431
3468+771499340+768865270+764175765+761289047+762163310+764490266+765106910
3458+764219082+764393357+767603977+773581035+779014247+780089580+777374653
3448+774892226+774158257+773055456+769884258+765784265+762850470+761354123
3438+759664900+757359636+757328944+762198030+769178696+771700276+767332592
3428+760630429+756966829+757782059+761559493+765916096+768741230+769169764
3418+767648368+765049355+762770820+762605343+764816653+766759936+765802465
3408+763361340+762785125+764767628+767075578+767578524+766223545+764308335
3398+763076859+763343879+765321480+768024251+769906622+770723800+771498601
3388+772025522+770458257+766681562+763366914+762366597+762998083+764318475
3378+766563432+769068893+769366336+766552955+763367586+763383570+766967857
3368+771211165+773722133+774715467+774967175+774322593+773241484+773217912
3358+775163007+778678793+782263685+783730414+782217211+779643987+777981962
3348+776602068+774001913+770653082+768822558+770240598+774650458+779804226
3338+782940032+782798799+780004558+775914438+772176896+770686057+771926531
3328+773813871+773689763+771446352+769550886+769878818+771978982+773970886
3318+773994459+772290595+771203240+772647808+776421749+780409857+782420566
3308+782413380+782142532+782071814+780413282+776146133+771258041+768322768
3298+767494845+767105933+766187078+765620937+766594056+768469307+769536245
3288+769789229+770731590+772267627+772616042+771826466+772403017+775307733
3278+777835424+777068211+773620121+770007023+767444880+766209912+767244212
3268+770827021+774691558+776016854+774931850+774119037+775403769+778043949
3258+779941027+779619945+777062973+773683652+771380336+770645023+770253358
3248+769453708+769588964+772222161+776389244+779479786+780024303+778102645
3238+774435485+770396606+767740710+767483495+769003146+770712786+771656959
3228+771762800+770880479+768847205+766355443+764666689+764557491+766030735
3218+768819469+772355872+775329559+776646258+776415033+775004380+772374743
3208+769088638+766791769+766345773+766517563+765977814+765526110+766623538
3198+768686160+769447194+767762671+764919875+763113192+763246769+764467432
3188+765582052+766179557+766224284+765475876+763908611+762099442+760601686
3178+759435689+758520864+757981787+757564400+756518415+754964917+754384538
3168+755706878+757530956+757534649+755625013+753921417+753985620+755410242
3158+756846616+757446874+757019413+755783237+754355325+753537609+753843715
3148+755234960+757141372+758613072+758865586+757831152+755842806+753035537
3138+749622368+746447744+744779272+745541918+748253487+750689642+750525642
3128+747388426+742907311+738955670+736375193+735379711+735968216+737220981
3118+737271215+735144255+732284535+731252922+733221993+737200632+741165503
3108+743354248+742872658+740239462+737273901+735551031+735114236+734857088
3098+733799350+731835316+729768127+729017637+730522915+733245028+734463542
3088+732611863+729103465+726437697+725496142+725256388+724573996+723797449
3078+724018936+724918651+724866335+723438355+722112725+721742617+721385337
3068+720397443+719536075+719340444+719346623+719062075+718357386+717347264
3058+716637202+716907849+717835166+718172232+717182592+715333532+713503277
3048+712214851+711563151+711303249+710945700+709786420+707332267+704576507
3038+703954960+706543295+709995885+710810646+708276642+704429096+701019688
3028+698514360+697020499+696619297+697060525+697901477+698781582+699213542
3018+698655997+697195781+695609913+694588508+694221557+694077235+693610688
3008+692791563+692330725+692874570+694056953+694732965+694092614+692309570
2998+690161389+688354168+687432022+687699647+688458129+688116295+686033189
2988+683611272+682479392+682598262+683018335+683122899+682692551+681983229
2978+681750124+682126544+682008480+680507769+678281416+676574462+675809936
2968+675670516+675689051+675450708+674806596+673994321+673220459+672336191
2958+671323516+670499824+669871024+668964996+667594369+666067063+664639554
2948+663625401+663577048+664290668+664267633+662458599+660006729+658870685
2938+659296131+659838364+659354088+657970903+656586039+656273217+657437266
2928+658844494+658559543+656459984+654321742+653054337+651683038+649397116
2918+646873253+645073890+644137238+643640672+643022953+641864076+640293721
2908+638935250+638267969+638258701+638502820+638482270+637839031+636571626
2898+634964201+633430716+632359479+631787764+631210743+630048843+628333495
2888+626556092+624919654+623339562+622152612+622052748+623097928+624339544
2878+624754311+624122355+622943800+622005335+621833411+622185721+622332931
2868+621968129+621383520+620662445+619412165+617624958+615926667+614544758
2858+613159088+612077845+612108603+612844386+612689184+611105129+609217118
2848+607919828+606941941+605901798+605059705+604690873+604343734+603252148
2838+601501341+600118558+599579079+599099101+598066144+597067035+596682153
2828+596370943+595368678+593813971+592308559+591091455+590181330+589654342
2818+589317142+588713728+587847457+587332356+587469089+587673585+587201331
2808+586112432+585070946+584288287+583276150+581796459+580357935+579403151
2798+578651653+577658253+576430874+575150306+573777128+572190991+570474367
2788+568998906+568187303+568101945+568260035+567909202+566655833+564915904
2778+563495984+562675146+562100744+561510660+560876387+559921468+558394464
2768+556809637+556025300+556026979+555836754+554749567+553097616+551605433
2758+550527985+549754862+549283313+549037347+548510258+547267601+545717528
2748+544718721+544404691+543974242+542728797+540808953+538822085+537260562
2738+536363265+536035467+535830400+535332088+534506952+533584302+532839621
2728+532565314+532867424+533302407+533067018+531734738+529606704+527335825
2718+525402281+523916243+522730637+521726760+520989063+520549682+520079845
2708+519200513+518053958+517129563+516603145+516267591+515993116+515845167
2698+515747083+515324626+514194458+512404699+510504028+509034175+508036007
2688+507198379+506361960+505635882+505074643+504531369+503873389+503069172
2678+502036653+500783049+499725412+499322330+499288448+498788290+497548654
2668+496171984+495238992+494701493+494234712+493656985+492919759+492053623
2658+491186614+490408690+489668172+488929737+488277701+487773412+487365427
2648+486963050+486469036+485814481+485081318+484458730+483988457+483511199
2638+482890155+482121264+481226687+480242655+479322826+478608769+478036583
2628+477513826+477117997+476822938+476319489+475477093+474617605+473982056
2618+473389421+472724490+472237125+472057544+471878870+471373037+470630203
2608+470021483+469733678+469559335+469192821+468624933+468089852+467702586
2598+467303533+466613418+465537414+464389718+463637045+463353437+463223050
2588+463042999+462833265+462557246+462195500+461947720+461921697+461844969
2578+461456695+460919028+460545765+460397312+460361382+460365244+460302653
2568+459962095+459259891+458480490+458051518+458048295+458152255+458130597
2558+458050981+457951923+457694540+457271881+456887201+456605205+456278179
2548+455916869+455791720+456030668+456385531+456548993+456507859+456418136
2538+456284425+455974826+455501128+455079107+454858963+454742646+454567968
2528+454361827+454272742+454339161+454477741+454612930+454660747+454483550
2518+454016500+453335586+452544465+451799583+451409127+451573227+452024327
2508+452233625+451961601+451370309+450732208+450291484+450238496+450540707
2498+450865953+450845638+450414517+449858282+449542841+449579912+449755799
2488+449791392+449603686+449292946+448968036+448620057+448161569+447633977
2478+447296844+447330926+447519170+447450367+447016325+446484703+446117584
2468+445969064+446030648+446300690+446640308+446809311+446722475+446488094
2458+446214123+445955431+445764333+445624711+445458328+445297249+445256484
2448+445267263+445065084+444529365+443861614+443360716+443142554+443116731
2438+443150008+443191847+443234560+443175897+442848335+442269265+441688382
2428+441255516+440873253+440503985+440303888+440305869+440308421+440173769
2418+439931866+439632711+439387114+439388256+439627103+439811183+439773776
2408+439712965+439880725+440256743+440627757+440820601+440804013+440675204
2398+440565166+440493172+440349689+440068566+439753427+439575056+439545238
2388+439435938+438967478+438045164+436732025+435045655+432905533+430242182
2378+427080252+423612517+420186454+416985203+413798591+410469672+407377720
2368+404964534+403063225+401267488+399674502+398816055+399159870+400992376
2358+404460715+409337927+415002398+421099500+427773490+434634212+440207617
2348+442916063+442343743+439797013+437330066+435657128+433813911+430876456
2338+427105738+423451876+420400990+417653290+414854684+412127332+409793291
2328+408090501+407194480+407103951+407593532+408517659+409952858+411852052
2318+413782574+415213912+416010439+416515903+417141647+418024976+419119751
2308+420331180+421456881+422280104+422810517+423226728+423606037+423884473
2298+424038668+424216167+424650410+425353621+425967814+426139235+425966639
2288+425858884+426050485+426400311+426555916+426280434+425735380+425363627
2278+425362922+425429509+425190763+424729354+424440206+424460588+424522440
2268+424368749+424051193+423759022+423581087+423509329+423507986+423516314
2258+423498013+423522593+423686660+423930007+424058110+424010327+423980812
2248+424179095+424562903+424876564+424912997+424732947+424594602+424625494
2238+424691007+424678818+424705211+424900439+425194994+425443612+425614462
2228+425796225+426091653+426505279+426911820+427146436+427133777+426956043
2218+426790532+426724986+426688452+426656754+426809102+427327292+428103537
2208+428764506+429007584+428908661+428854028+429143814+429739404+430407962
2198+430969402+431371746+431666636+431960452+432330190+432784279+433309320
2188+433892419+434453590+434832831+434966241+435031250+435264288+435687148
2178+436172800+436679608+437231109+437779957+438264905+438731921+439327042
2168+440217388+441485733+443031407+444607906+446028465+447364908+448913403
2158+450887108+453174038+455512209+457833859+460264205+462869161+465570254
2148+468201502+470561299+472547327+474253710+475785482+477104867+478294033
2138+479761636+481841115+484340028+486848311+489366465+492223499+495422098
2128+498469827+500958331+503003022+504898589+506547988+507534236+507651863
2118+507048315+505924964+504416798+502641242+500558137+497942066+494757201
2108+491382379+488233141+485324833+482409976+479406404+476450816+473609632
2098+470830031+468161073+465730661+463512098+461365965+459263048+457280075
2088+455502102+454047259+452974847+452085340+451053995+449828094+448685872
2078+447898579+447498452+447315446+447081468+446591954+445919401+445380156
2068+445186069+445206552+445114042+444683358+443971014+443293760+442971536
2058+442991549+442994705+442665228+442051505+441462933+441158338+441182011
2048+441410181+441661956+441803726+441857587+441991130+442306236+442695953
2038+443016935+443296782+443634015+444007716+444341021+444680437+445138118
2028+445642609+445907514+445737705+445244396+444682821+444213353+443833844
2018+443385195+442671038+441712257+440743974+439901074+439150215+438525142
2008+438133678+437927067+437679859+437212103+436563358+435944296+435479865
1998+435082693+434714835+434559969+434673130+434721853+434386634+433778720
1988+433202673+432778268+432458764+432192617+431957027+431734096+431527351
1978+431389979+431359959+431324030+431081220+430642175+430297689+430251249
1968+430334659+430237179+429910086+429565633+429350291+429217755+429092942
1958+428992574+428959566+428964805+428888648+428615583+428200043+427876510
1948+427871372+428291311+429086495+429880403+430028822+429286558+428205752
1938+427478767+427220007+427101306+426901612+426707827+426650474+426664141
1928+426684524+426924009+427564461+428299202+428723540+429018330+429500121
1918+429766033+429190220+428063914+427286830+427245763+427607912+427880002
1908+427848505+427575575+427208456+426880558+426685867+426636103+426700776
1898+426893284+427148518+427255064+427243143+427540586+428270089+428790832
1888+428485263+427586421+426699164+426112774+425863988+425925572+426177951
1878+426445811+426596882+426654638+426990159+428192220+430322772+432275389
1868+432493854+430833072+428709101+427302746+426764374+426753260+426958595
1858+427164434+427233741+427138813+426972430+426974109+427403819+428349739
1848+429864923+431990640+434066660+434576993+433016477+430873333+429671138
1838+429633765+430086712+430484723+431150527+432745394+434955227+436403454
1828+436466617+435923779+435284804+434290699+433079841+432361553+432440833
1818+432955901+433535508+434295232+435483861+436815905+437531339+437310792
1808+436771749+436781218+437727944+439494466+441573442+443144938+443653592
1798+443588180+444208552+446359084+449546199+451860361+451725340+450094107
1788+449105777+449660535+451322627+453450258+455715865+457671169+458874472
1778+459784596+461657161+465303100+470063087+473716278+474543799+473450904
1768+472119296+471287310+471547379+473444389+476335539+478620354+479791454
1758+480583313+481350391+482330125+484468837+488435656+493217034+496514859
1748+497241138+496532723+496095961+496920694+499001550+501395798+503036634
1738+504403299+507370404+512524508+517037523+517613066+515649234+513949499
1728+513439905+514215344+516158291+518862003+522269665+527090229+533775400
1718+540937829+545399938+545863563+544524601+543769880+544626580+547331703
1708+551648515+556625087+561089412+565336246+570921907+577941659+583797161
1698+586849960+588092315+587852696+586725517+586910402+589730701+594671444
1688+601034257+609236996+618867245+625791029+626967300+626018694+626998730
1678+631079247+637586920+644437233+649789587+654338531+659462078+664226935
1668+666876786+668626990+672050098+677432338+682574958+685846020+688661684
1658+693477111+701554467+712743922+723951375+728931204+729094600+731646199
1648+737959248+743824353+744699556+742426863+741460058+743495414+748367925
1638+755422465+762586136+765472719+762736368+759096609+758152973+759482163
1628+760841037+761002149+760333457+758844632+756300622+754142232+754073060
1618+755066393+753354201+747315828+740444562+735833564+733371151+731481528
1608+729106084+726509287+724386626+722816204+721327312+719522778+717479229
1598+715630102+714255983+713267552+712510615+711832723+710860074+709364802
1588+707752407+706584329+705918525+705572930+705670175+706671097+709079515
1578+712781933+715936073+716082276+714572834+715142065+718779474+723031244
1568+725364983+726747564+729359135+734097934+741777245+753779244+768547613
1558+777644561+778399618+778795245+782838221+789480075+796687198+803425290
1548+809900592+817048482+825545306+835234385+845364558+853241447+853662527
1538+847744636+843159561+842995561+845058653+846195167+846666952+849070267
1528+854167488+860326208+865738199+869920729+872516249+873066743+872815707
1518+873408779+874619368+875729019+877339063+880643235+886212644+893795314
1508+901448970+904283707+900183177+895032296+893164768+894238758+896693045
1498+899199917+900732864+901137894+901535939+902993200+905314716+907111258
1488+906991583+905098669+903033629+902225786+902742230+903855306+905580393
1478+908834598+914046861+920017606+923741246+922468401+917954850+915108629
1468+916063682+919380882+922339257+923588327+924564737+927351255+932222355
1458+936690978+936588025+931834384+926604660+922988204+921352169+921961560
1448+923874756+924817587+923944735+922821182+923076181+925038469+928085022
1438+930678528+930839170+928834774+927269926+927165697+927558504+927757762
1428+928186297+929233020+930407210+931186041+932041700+933396410+933833004
1418+931639894+928233509+926147045+925567204+925347396+924970975+924530889
1408+923966024+923229301+922737436+923227353+924992802+927268785+928694884
1398+928476553+926752138+923829021+920095912+916538421+914094275+912564350
1388+910608441+907435430+904624802+904459929+906915694+910095690+912937143
1378+916030640+919899878+923751991+926310172+927539230+928758012+930934131
1368+933740394+936282456+938161872+939472593+940333961+940923339+941586659
1358+942578917+943718050+944465586+944548660+944256859+943912540+943624768
1348+943720132+944518170+945586653+946265687+946801474+947939465+949594506
1338+950899116+951437521+951573718+952014542+953408943+955621260+957484289
1328+958261709+958963376+960763142+962796819+963211183+961859965+960341726
1318+959643820+959175192+958257613+957429622+957742041+959355578+961188990
1308+961899790+961283079+960561265+960923448+961945995+962119464+960822778
1298+958837052+956999409+955506219+954651164+954895148+955666995+955213746
1288+952506273+948660674+945534875+943414161+941171757+938406192+936102809
1278+934966631+934182226+932332830+929013481+925203879+922414071+921482993
1268+921848063+922110315+921325104+919324805+916323449+913032440+910414556
1258+908667576+907227911+905935994+905248229+905198264+905022444+903985526
1248+902280452+901006130+901033060+902030893+903018787+903526837+903639729
1238+903402124+902912879+902645120+903253705+905073417+907602854+909668633
1228+910677614+911413799+912916929+914957187+916332112+916548294+916569851
1218+917607442+919713179+922102793+924268570+926000305+926938502+927046828
1208+927025068+927723578+929648057+932887219+936961960+941022935+944299504
1198+946218677+946882063+947530809+949412911+952178609+954444586+955755106
1188+956818015+958117991+959464038+960557437+961566687+962987279+964702224
1178+965925842+966446316+967281493+969630073+973431818+976927658+977695878
1168+975122385+971609151+970163240+971539105+974491302+977941944+981766724
1158+985670146+988491989+989197684+988037799+986194649+984963577+985761010
1148+989641330+995805624+1001414925+1004080155+1004293382+1004180959+1004843338
1138+1005787848+1006108124+1005854603+1005872802+1006458890+1007160758
1130+1008052951+1009878909+1012361335+1013825446+1013403761+1012397130
1121+1012392295+1013455808+1015178275+1017541900+1019490823+1019152952
1113+1017185895+1017279581+1021651630+1028012026+1032106713+1032444719
1104+1031523044+1032378569+1035103704+1037186004+1037099034+1036591186
1095+1037998480+1040575801+1041660335+1040794669+1040206365+1041785786
1087+1045695118+1050799793+1055003613+1056316618+1054588912+1051386553
1078+1048154442+1045632795+1044662631+1046518340+1051494878+1056669533
1070+1057766827+1054678635+1051379501+1049693836+1047911599+1045662412
1061+1045559861+1049252541+1055480501+1062327725+1068444874+1072297591
1053+1073076221+1072026273+1071138311+1071489345+1072906311+1073741823
1044+1071996052+1067672826+1062543167+1057693087+1053411163+1050707854
1035+1050651442+1052884376+1056211180+1059826628+1063147925+1065534114
1027+1066637519+1066628520+1066051700+1065069381+1063436099+1061587241
1018+1060356907+1059443962+1058100937+1056856232+1056820840+1058048689
1010+1059370626+1059473915+1058118130+1056576519+1056247781+1056794850
1001+1056818758+1056193047+1055933683+1055920654+1054914158+1052972823
993+1051700852+1051651826+1051222821+1048957651+1045804988+1043769498
984+1043144794+1042399274+1040453036+1037774173+1035068177+1032237537
975+1029132691+1026303192+1024426396+1023472887+1022550472+1020321567
967+1016131381+1011009580+1006539211+1002948074+999596825+996024962+991528132
957+986008420+981580831+980638739+982379742+983688583+983198733+981834957
947+979972062+977105895+973923615+972136475+971988190+971764689+970276939
937+968430901+967740249+968437281+969393409+969577287+969314565+969551767
927+970418508+971394178+972528073+974390699+976505100+977145451+975099954
917+970966651+966642686+963684311+962253175+961730485+961839281+962629528
907+963866175+965039962+965496367+964677309+962856522+961052122+959852077
897+958976539+958345657+958280514+958391324+957794693+956546294+955692716
887+955641005+955294940+953454207+950812214+949552263+950799386+953086450
877+953761388+951994328+949615325+948728101+949442191+950567624+951803331
867+953590135+955049276+954439885+951519185+947815559+945065172+944457057
857+946636332+951064257+955470155+956887792+954072732+949093171+945826206
847+946367297+949148375+951237122+951857393+952188549+952754220+952997332
837+952782023+952492976+952246909+952389754+953563809+955452291+956872010
827+957385231+957311492+956656970+955773776+956066786+958774259+963280356
817+967160810+968747215+969063730+970086815+972030097+973897760+975354416
807+976027808+974867050+972135938+969652571+967742263+965007994+961982864
797+961269647+963462354+966094677+967027367+966636575+966448331+967538103
787+970127915+973192668+975110834+975675229+975876031+975563008+973272049
777+968899596+964707127+962955446+964144679+967405735+971057381+973250088
767+973450152+972108202+968772533+963528035+959562895+960606664+966126980
757+971999070+975615727+977819448+980275683+982960927+984497299+984329270
747+983682203+983848688+984562711+985411252+987109408+989700227+991925909
737+992874851+992427713+990696784+988310864+986447701+985863023+986026150
727+986251196+986898196+988289776+989563561+989721449+989216153+988729392
717+987741297+986216879+985978468+988862768+993842395+997368860+996715211
707+992825355+990116741+991847133+995759285+996679282+993936752+992484999
697+994716859+996151219+991957473+983971855+977970487+976514636+977423821
687+978234552+979646816+982649918+985136643+983733781+977367475+967904450
677+959183385+956098820+960518955+966588221+964840771+952265109+937106619
667+931609270+935117669+939699319+943709118+949632450+957989250+965911873
657+969632357+966114086+956008426+945709284+941641258+944771020+952500296
647+962057678+970245240+972733241+967204865+957207262+949349581+947458614
637+951374661+958561570+965332300+968502424+967161011+962654444+958292871
627+959602451+969396095+982499686+989580418+987324649+979734659+970150279
617+960835941+957280465+962816160+971865493+976191942+976776284+980549688
607+988167616+996921789+1007392520+1017737396+1024538415+1025302270
##END=
