##TITLE=<SNM>
##JCAMP-DX=4.24
##DATA TYPE=INFRARED SPECTRUM
##DATE=3/5/2025
##SAMPLING PROCEDURE=Instrument type and / or accessory
##ORIGIN=Admin
##XUNITS=1/CM
##YUNITS=ABSORBANCE
##RESOLUTION=4
##FIRSTX=4497.3318
##LASTX=599.83466
##DELTAX=-1.4281778
##MAXY=1.9375335
##MINY=0.41572374
##XFACTOR=1
##YFACTOR=1.8044687e-09
##NPOINTS=2730
##FIRSTY=0.43698764
##XYDATA=(X++(Y..Y))
4497+242169699+241868119+242046012+242681640+243620533+244260406+243843200
4487+242237034+240270476+239181405+239552648+240667319+241182580+240659259
4477+239974347+240001681+240555952+241054351+241531345+242209419+242649121
4467+242239643+241248511+240535357+240477040+240915172+241728362+242729206
4457+243427479+243546823+243328186+242981089+242521965+242215530+242383595
4447+242755929+242555426+241301742+239397531+237965574+237932047+239123434
4437+240443232+240784069+239576629+237104587+234697766+233922364+235160243
4427+237270059+238711975+238827272+238098246+237351416+236901343+236619170
4417+236451270+236381969+236221320+235934406+235833065+236132316+236673177
4407+237189809+237574033+237776831+237587642+236761734+235470823+234414172
4397+234213455+234711061+235024862+234403206+233013266+231776857+231476747
4387+232130312+233091600+233576043+233302144+232741894+232482397+232449018
4377+232164021+231549813+230943087+230556484+230420922+230544246+230776690
4367+230859253+230770794+230707043+230781116+230985483+231190379+231109815
4357+230685242+230385678+230608377+231098799+231456234+231737764+232081508
4347+232249606+232051878+231810053+231917406+232195979+232152295+231765659
4337+231520399+231649701+231843333+231813786+231712065+231830962+232221001
4327+232721695+233145772+233324077+233153568+232711521+232209208+231793042
4317+231606760+232008343+233191686+234575004+235308423+235429963+235613834
4307+235853991+235455265+234299916+233164452+232817421+233405847+234509320
4297+235417477+235574212+234972937+234113402+233650496+233967171+234847812
4287+235694811+236194993+236473269+236631111+236608600+236364215+235796598
4277+234844014+233931563+233749542+234405898+235403257+236372753+237163862
4267+237517417+237391318+237223385+237303438+237414342+237419461+237536129
4257+237795725+237948101+237937332+237771926+237285980+236695985+236728273
4247+237598906+238625580+239271697+239730424+240163866+240261855+239906962
4237+239522655+239424088+239412445+239300798+239310261+239664410+240264018
4227+240907261+241371422+241294260+240569594+239829833+239855482+240477898
4217+240726181+240232192+239767321+240035191+240651695+240856590+240589843
4207+240282813+240220185+240549660+241266381+241975588+242284121+242351043
4197+242505648+242634223+242463582+242089977+241798753+241669682+241651217
4187+241743458+241872199+241828448+241560264+241302518+241228428+241317448
4177+241705967+242638732+243862754+244556899+244185424+243224153+242737315
4167+243250413+244290184+245019656+245017939+244436185+243812612+243776261
4157+244480348+245294463+245484445+245143310+244992603+245363334+245844210
4147+245985189+245945435+246176277+246689755+246971482+246662570+246088066
4137+245941785+246535216+247455991+247992310+247892422+247666667+248031733
4127+249009521+249698231+249191905+247735488+246601924+246728072+247745993
4117+248516787+248501047+248265614+248546681+249243715+249611375+249127444
4107+247978701+246927979+246744587+247572543+248874305+250014080+250714451
4097+250990745+250967771+250798979+250564702+250263123+249986681+249977696
4087+250417282+251237161+252181124+252926187+253148589+252767321+252155293
4077+251793448+251727995+251632683+251278467+250739753+250289449+250131524
4067+250139915+250024452+249771363+249600408+249563941+249598756+249852687
4057+250507491+251276964+251523116+251110815+250817923+251441280+252727633
4047+253717246+253927179+253664131+253423033+253471507+253796605+254119143
4037+254081024+253538115+252691910+252062111+252191414+253070106+253994217
4027+254272823+253952366+253702927+254135427+255280372+256627387+257564381
4017+257714427+256976830+255610441+254309851+253714455+253711994+253711862
4007+253677113+254216933+255503682+256853836+257630262+257864242+257743479
3997+257259680+256614786+256255104+256295056+256471990+256686299+257081969
3987+257706120+258422494+258936286+258817008+257888141+256699496+256298177
3977+257310384+259225363+260730088+260930772+260050213+258850981+257924327
3967+257648463+258132014+259006098+259793673+260500088+261329646+261949271
3957+261691558+260574030+259583476+259684668+260834584+262128848+262729909
3947+262560440+262174465+262042338+262113521+262065361+261772023+261421227
3937+261398815+262182772+263908744+265825226+266666064+265989872+264746312
3927+264110006+264220167+264361427+264218928+264422320+265541616+267037224
3917+267546738+266246380+263812935+261785450+261170599+261898006+263521117
3907+266077456+269771389+273925256+276959877+277779542+276358056+273159020
3897+269387594+267062940+267517489+269898247+271475841+270709720+269551943
3887+270217234+271850866+272344756+272085193+272611272+273082684+272052459
3878+270943155+272021392+275237919+278940639+281716787+282247738+280060545
3868+277616464+277698978+279629052+280263822+278315349+275857494+275291793
3858+277682462+283294083+290877068+295197613+291435172+283497888+276947309
3848+273794715+274132513+277013834+280888286+284700803+288304197+291148787
3838+291692389+289582193+286616806+284276544+282584827+281377816+281089251
3828+281773337+282821664+284446724+287598905+291260401+292351041+290887605
3818+289718944+288818434+286319587+282997359+281262403+282170279+285195816
3808+288585594+290716765+292452085+295401187+298293838+298381504+296189323
3798+294007250+291940589+289470084+287555897+287317475+288543082+290363525
3788+292441581+294821085+297105886+298883685+300637172+302981629+305438988
3778+307161789+308491215+310727461+314957630+321164813+327818187+333079574
3768+336843435+340139965+343534400+347730844+353954279+362383470+371149518
3758+378227680+384282817+391999152+403274848+417141319+429305337+437021044
3748+443428596+452213539+462349840+468890345+471400324+475144334+483619736
3738+496765555+511879368+525248845+534472018+539448473+541890076+544150369
3728+547794226+552693915+557385406+560364666+560917814+559841642+559744529
3718+563080795+570212469+580436503+593103097+605902215+614596684+617819189
3708+618224620+618582287+620789597+625975506+633388477+640734856+646627907
3698+651312990+655204188+658341472+661530087+666284668+672525344+677420772
3688+678923120+678423813+677911888+678258258+679407761+681409150+685939512
3678+694324738+702276985+702731831+698734997+697528548+698266740+695615683
3668+689779512+685535205+684867964+686805867+689634899+692406720+695178145
3658+697468100+698032743+697964830+700888399+708777489+718795669+723473022
3648+719301913+711844679+707229161+707035199+709941327+714292988+719313672
3638+724776981+730455194+736015748+741227422+745791212+748233839+746302674
3628+741770925+739830181+741729305+744418150+744421123+741550273+739354591
3618+741126411+746306836+751272159+753491360+753944555+755098286+758118241
3608+762364728+766479287+769440380+770726039+770038584+767951774+766823610
3598+768674045+772251178+774751677+776063630+778678616+783399901+786824957
3588+784121181+776047906+769008127+767088524+769034156+770762704+769400544
3578+765308512+761320134+760604866+764061236+769992075+776174550+781572588
3568+785498668+785788092+781739002+776443362+772655156+770400347+768790184
3558+768057938+769010572+771495083+773971469+774135306+771804326+770602831
3548+773386609+777197145+777037338+774053387+772955084+774987193+777856259
3538+779480493+780731535+783985223+788649165+790723819+788251067+783605953
3528+779135576+774812191+770965915+769215368+770036998+772644982+776464700
3518+780684102+783476667+783419588+781068194+777628605+773771363+770392287
3508+768875538+769509680+770808751+771751475+773088201+775387603+777376771
3498+777559040+776063960+773859821+771437938+769186961+768368766+770539740
3488+775750621+781657612+784450573+781897224+776157836+771995051+771996306
3478+774789135+778135707+781357750+783364161+781674062+776601517+773205794
3468+776063828+784271013+792444307+795825629+793063850+785105657+774982106
3458+767600911+765751137+767204069+768503866+770058337+774043081+779634355
3448+784177269+787400237+790252325+791470731+789556413+786157849+784085705
3438+783484991+782512472+780842059+780104594+780799581+781026971+779663819
3428+777749501+776617505+777055769+778561089+778845558+775954162+771497263
3418+769542382+772116739+777264463+781226548+781925697+780242931+778064557
3408+775985344+774063231+773743352+775952247+777926088+776081070+771600124
3398+768526525+768449694+770776313+774772091+778395799+778946437+777274307
3388+777168605+779853223+782473693+782155597+779342619+776181883+774063164
3378+773847930+776015734+779810083+783203693+784520666+784186518+783614343
3368+782645986+780095279+776016196+772407154+772175205+776706690+783745346
3358+788169941+786986614+783576158+783382262+787076856+791072369+792770660
3348+792570422+791203373+788254370+783646516+778715347+775563926+775106900
3338+775918422+776026568+775671808+776838090+780033312+783285149+784137367
3328+781728035+777612419+774869006+775932031+780769125+786439807+789044488
3318+787048779+782446475+778237709+775926086+776084572+779010122+783393757
3308+785973202+784642751+781147603+778865906+779447792+782603904+787061530
3298+790465115+790620694+788151113+785511353+783680670+782085702+780549134
3288+779450104+778384370+776400553+773712434+771957196+772342808+774322661
3278+776819328+779357285+781090326+780783792+778600926+775901180+773533204
3268+772031187+771990426+772814170+772921457+772637781+775107692+782624780
3258+792435719+797500336+793834347+786086765+781849129+782764041+784141396
3248+782046857+778081007+776197276+777821312+781479835+784994737+786691112
3238+785724407+782515709+778818208+776885458+777947096+780965664+783434650
3228+784002862+783513464+783237385+783009599+781898148+779723408+777448054
3218+776828049+778901712+782272331+783812599+781893987+778262483+776041564
3208+776509822+778250988+779132736+778857251+778753268+779385560+779917635
3198+779604296+778643338+777547743+776576678+775560425+773893117+771708269
3188+770637382+771969682+774880897+777225552+777961036+777879513+777746330
3178+777529113+776907721+775287649+772380332+768845942+765611941+763165615
3168+761867271+761949652+762711231+762523016+760469634+757774975+756705211
3158+758149885+760920319+762904995+762687646+760869582+759331428+758776100
3148+757925270+755865215+753941714+753991922+755500149+755973559+754288547
3138+752220961+751874922+752788512+752798620+751219044+749669858+749976987
3128+752092402+754129863+754247125+752312195+749537269+747299174+746680160
3118+747710154+748838847+748546913+747317870+746699847+746773111+746257090
3108+744514471+741903184+739398127+738627233+740485067+743139956+743439223
3098+740966075+738192800+736521860+735025854+733067604+731803349+732745743
3088+735886330+739174436+740069198+738079634+735142324+733227675+732492258
3078+732027832+731475807+731101756+730865447+730530308+730445483+731189620
3068+732593137+733770320+734147608+734018454+733932109+733844179+733231441
3058+731956220+730539887+729427446+728522774+727591413+726542921+725348297
3048+724095669+722833661+721513318+720613072+721013747+722523229+723325502
3038+721773079+718331177+715024111+713480210+713881809+715349077+716955077
3028+718050210+717842441+715722401+712174137+708643644+706371593+705666829
3018+705897522+706084019+705973495+706208680+706998072+707244554+705748615
3008+702750197+699399000+696426875+694336630+694033002+695901341+698695623
2998+700461960+700385128+699083878+697373761+695506612+693620503+692360608
2988+692468424+693626118+694399588+693820807+692340657+690820407+689555359
2978+688561898+687944139+687608405+687054860+685957085+684788028+684315741
2968+684424547+684058820+682773293+681593732+681541145+681969170+681264934
2958+678885992+676080875+674604028+674876606+675775398+676088472+675459945
2948+673850906+671169063+668051599+665886306+665314527+665631037+666174012
2938+667257583+669116672+670973450+671772420+671131143+669172826+666075907
2928+662308578+658889798+656796448+656130859+656268469+656669210+656994242
2918+656711821+655564960+654314777+653824917+653751719+653380113+653142284
2908+653769424+654517592+654004742+652489909+651315830+650423380+648543547
2898+645729776+643644617+643151256+643300163+642828206+641559723+640166645
2888+639221080+638619969+637844782+636831039+636004454+635285288+634064768
2878+632468346+631547555+631797803+632425471+632543526+632186255+631624783
2868+630549998+628658670+626574304+625355963+625130753+624925164+624004042
2858+622832210+622369899+622753066+622962884+621816288+619255870+616427300
2848+614455242+613500693+613028802+612536101+611897797+611293383+610815349
2838+610190257+609125051+607728604+606352041+605234645+604447500+603914501
2828+603407200+602776229+602071333+601330762+600532188+599729650+599034531
2818+598572947+598522606+598951556+599515803+599501137+598322566+596103762
2808+593768686+592272615+591813210+592064053+592578158+592561114+591345019
2798+589578484+588702682+589015360+589382144+588845775+587538579+586020245
2788+584488500+582842200+581153885+579765563+578944461+578624979+578448061
2778+577894516+576601920+574839085+573334029+572376573+571429026+569859162
2768+567894437+566564912+566585193+567473613+568003574+567424991+565925220
2758+564034750+562157097+560604146+559495206+558570979+557503527+556325287
2748+555303485+554502004+553705874+552749012+551751422+550992552+550537904
2738+550073446+549252311+548063071+546701340+545365109+544311365+543749034
2728+543563296+543360317+542717388+541388556+539614556+538076931+537145240
2718+536496795+535755167+534981928+534343228+533856836+533439150+532776634
2708+531561398+530145924+529259552+528881306+528235405+527017956+525738936
2698+524780323+523962260+523078200+522192621+521383510+520618165+519846413
2688+519023429+518177983+517470411+516966612+516441573+515613601+514459440
2678+513212230+512178966+511559060+511313073+511195249+510918080+510301643
2668+509414181+508554002+507903939+507319674+506631327+505884877+505055121
2658+503872322+502265991+500705277+499788417+499680535+500108725+500642814
2648+500840443+500423418+499457538+498185059+496815895+495644988+495017254
2638+494931239+494925591+494484816+493441477+492093949+491050842+490763598
2628+491090348+491398368+491105476+490148152+488973215+488038583+487408768
2618+486926175+486478001+485898295+485026192+484027182+483239145+482717872
2608+482312309+481991935+481773430+481545445+481176547+480655902+480112630
2598+479757176+479678660+479675753+479443573+478911168+478258793+477627161
2588+476889266+475774843+474326800+473159063+472972897+473732923+474566411
2578+474654672+474007317+473115561+472207487+471293896+470623815+470519832
2568+470856722+471131248+471022871+470639274+470283027+470120479+470041434
2558+469865044+469679572+469748938+470055637+470262482+470154501+469767634
2548+469183502+468596463+468341293+468455781+468548401+468388991+468195194
2538+468116512+467951684+467569045+467169031+466979859+466983261+467066600
2528+467241338+467516822+467672269+467445275+466927537+466446992+466092033
2518+465755704+465551668+465684653+465980221+466016688+465704076+465350967
2508+465167113+464998915+464607358+464033597+463549518+463283217+463077396
2498+462800558+462610262+462739878+463132955+463467533+463488079+463156639
2488+462545256+461785164+461090276+460621193+460319713+460039439+459814130
2478+459804088+459991047+460164001+460250115+460400343+460615214+460571117
2468+460088854+459511692+459254309+459219097+459081817+458897005+458917088
2458+459048488+459011592+458860736+458834179+458838869+458557604+457958938
2448+457303127+456743339+456257410+455861723+455610418+455466235+455378998
2438+455418471+455678926+456087098+456363375+456194782+455540688+454768936
2428+454329978+454275839+454279605+454130599+453974590+454001874+454110185
2418+454022684+453668089+453306392+453233491+453450707+453695769+453737489
2408+453579399+453423027+453439212+453527440+453388806+452938782+452504118
2398+452462564+452809860+453211888+453399046+453394520+453362546+453320067
2388+453097764+452568860+451766455+450739103+449432898+447766383+445710491
2378+443268393+440515003+437704899+435187851+433093444+431170207+429066683
2368+426807382+424920612+423968672+423946706+424378231+425101130+426550593
2358+429051621+432433074+436667803+442099500+448517788+454722857+459465745
2348+462214377+463031845+462305677+460520512+457969574+454771017+451151041
2338+447433160+443759508+440031155+436277632+432983382+430708292+429451106
2328+428772106+428333941+427946446+427490279+427170235+427464118+428553833
2318+430031340+431265834+431972381+432402817+432981731+433821429+434715597
2308+435500331+436182501+436770895+437236972+437636259+438052722+438413494
2298+438562104+438543936+438616408+438917029+439287909+439463770+439341982
2288+439096094+439034457+439278726+439643693+439892785+439965026+439900779
2278+439723927+439456800+439143990+438811592+438420233+437923734+437433378
2268+437198820+437313605+437595432+437824242+437897209+437756065+437411610
2258+437025239+436779978+436694790+436649668+436555693+436468556+436536700
2248+436840790+437313242+437793985+438107621+438139331+437915178+437593218
2238+437349015+437258905+437281366+437385713+437646961+438076802+438469219
2228+438649341+438741961+438947319+439219071+439396550+439504069+439701334
2218+440008132+440242987+440266572+440183629+440221352+440508496+441051273
2208+441770009+442469323+442936424+443157869+443319030+443563465+443869635
2198+444164047+444428201+444649778+444778667+444846118+445031756+445443463
2188+445927410+446286795+446568192+446922985+447322008+447612357+447752510
2178+447859368+448109946+448623225+449351475+450149818+451039824+452220013
2168+453670170+455016508+456035404+457040690+458496925+460429378+462443452
2158+464235454+465922382+467843968+470136136+472621275+475116356+477621446
2148+480059581+482119272+483675956+485136915+486999968+489241696+491441739
2138+493359525+495175079+497262318+499791290+502476469+504841769+506823604
2128+508855284+511275846+513911577+516264358+517925852+518810275+519039020
2118+518604223+517328639+515277437+512963931+510894826+509025629+506888776
2108+504234515+501279302+498254491+495102938+491823288+488693436+485900310
2098+483302104+480734121+478246538+475931281+473751586+471650044+469702165
2088+468053521+466735391+465644487+464708071+463931232+463254215+462507567
2078+461565239+460482063+459477405+458799793+458548554+458579339+458612701
2068+458491178+458314656+458255629+458273367+458121916+457616730+456802895
2058+455901923+455137537+454564106+454095453+453721765+453558391+453650516
2048+453908163+454251429+454654878+455044751+455292488+455358221+455386034
2038+455587758+456013735+456507526+456918011+457268345+457662644+458101734
2028+458452431+458568505+458380885+457897103+457242382+456682726+456393467
2018+456190124+455725963+454954310+454131557+453410211+452723515+452020270
2008+451344706+450694279+450015115+449361484+448883812+448595710+448299284
1998+447875421+447555906+447698470+448273321+448745839+448576221+447729322
1988+446607136+445681192+445227667+445170687+445161141+444944420+444584144
1978+444287123+444171941+444214255+444276718+444259376+444278601+444498955
1968+444742167+444556100+443804728+442912773+442366198+442214186+442183467
1958+442087080+441933483+441735161+441446101+441100688+440837095+440724755
1948+440725514+440917032+441499149+442323488+442714649+442206358+441145248
1938+440144685+439450987+439079975+439053648+439305350+439635369+439861604
1928+440006216+440362034+441140359+442028020+442569211+442874589+443167448
1918+442993239+441918817+440572511+439929418+440180326+440831678+441305518
1908+441260297+440731328+440071586+439610959+439424627+439448707+439669062
1898+440076805+440450393+440458717+440244044+440480882+441376833+442088203
1888+441749761+440645148+439650069+439180094+439111058+439160308+439128630
1878+439002978+438898201+438975925+439588696+441246523+443934278+446389623
1868+446806218+444966684+442538392+440962087+440349250+440109804+439842974
1858+439560949+439403652+439389383+439481574+439797852+440526300+441729116
1848+443523695+446019800+448390980+448789936+446770610+444264694+442933154
1838+442760431+442949967+443187069+444086786+446346847+449365282+451285976
1828+451280096+450388670+449379453+448009166+446401613+445323063+445127350
1818+445491623+446053228+446867030+448188198+449861352+451093104+451213240
1808+450586034+450277485+451060634+452966100+455352573+457237097+457996198
1798+458027215+458520080+460485202+463720391+466300562+466260164+464407186
1788+463129355+463478896+464921126+466722740+468699356+470602477+471924504
1778+472876907+474676671+478353527+483401000+487425383+488304026+486750248
1768+484685140+483351222+483711498+486151483+489426773+491534657+492307664
1758+493013651+494010052+495218912+497496942+501596835+506395349+509412265
1748+509761112+508978030+508835829+510068968+512460032+515080370+516936586
1738+518499381+521655592+527011250+531600607+532019845+529806326+527810485
1728+526960216+527558057+529598622+532399941+535742549+540748204+548301362
1718+556589474+561185239+560363014+557235970+554989353+554943637+557476771
1708+562390962+568411713+573690375+578309790+584429769+592537397+599228560
1698+601830466+601583851+599653083+597448284+597514479+600787721+606112099
1688+612615245+621120574+631324393+638354196+638780768+636872923+637058165
1678+640521141+646723038+653783033+659867998+665450089+671432854+676154470
1668+677811339+678765096+682363106+688527611+694170150+697151854+699107198
1658+702984127+710644440+722615916+735783799+742004723+741796425+743896580
1648+750085133+755191237+754625140+751711349+751065183+753225719+757644831
1638+764597274+772701532+776557057+773574163+768950982+766982294+767539737
1628+768769572+769542712+769657794+768527186+765883990+763425640+762850030
1618+762975682+760380779+754225390+747880994+743588791+740899285+738612303
1608+736078046+733508445+731396333+729771108+728202301+726451885+724892724
1598+724117404+724103399+723981446+722953698+721243779+719644649+718439059
1588+717305081+716022725+714760320+713772210+713378604+714277265+717215565
1578+721842248+725648225+725876209+724259903+724669165+727877005+731526345
1568+733580982+735147940+738103417+743198554+751426153+764448433+780663424
1558+790621685+790700168+789249681+791031872+796062268+803082558+810784293
1548+818652374+827149181+836371760+845433277+853608686+859172543+858068888
1538+852110170+848817439+850519166+853760433+854263770+852906168+853830460
1528+858302554+864150022+869406288+874817143+881229980+886923256+889957547
1518+890506599+889155471+887036819+886716808+890112994+896981008+905737775
1508+913497050+915037780+909097229+902939528+901503377+904542820+909666035
1498+913218923+912146847+907729783+904615688+905522012+909630295+913998008
1488+915947274+915095189+912860926+910781911+909431576+908798557+909554256
1478+912912059+919019618+926301585+932258255+934540216+933031659+930673791
1468+930265652+932009923+933451954+932186577+929916837+930631313+935736690
1458+941787567+942319179+937104070+932151827+930044340+930229317+931617705
1448+932946305+933175347+932066738+929944716+927665992+926925356+929186903
1438+933832546+937756578+938304772+936691042+935205475+934062512+932724597
1428+931758816+931971078+932969758+934108756+936200653+940427916+945081553
1418+945796887+941518557+935811606+931873700+930560228+930935402+931468005
1408+931517355+931271202+930509360+929015667+927812322+928105644+929526138
1398+930488814+929971802+928182013+925881488+923750019+922004427+920434167
1388+918656335+916384944+913975943+912475116+912703827+914619004+917766263
1378+921833455+926289231+929988516+931979072+932693283+933423085+934725656
1368+936523373+939195174+942921214+946448338+948023024+947602068+946806269
1358+946734789+947214144+947753750+948207539+948632987+948962974+949047601
1348+949080104+949655913+951299305+954220892+958209930+962089634+963747561
1338+962079064+958718883+956501135+956872015+959365841+962441091+964388508
1328+964405222+963224933+962156556+961789046+962207095+963519047+965195802
1318+966043395+965878104+965751395+965858219+965275540+964121876+963811378
1308+964987240+966891847+968473008+968939547+967977797+966382961+965480601
1298+965269132+964348737+962176045+959921963+958556697+957577308+956208541
1288+954572283+953032015+951401307+949448804+947442658+945743111+944295464
1278+942506006+939611769+935686812+931981978+929603895+928423541+927775525
1268+927460601+927546219+927815295+927704177+926399293+923441173+919497124
1258+915696894+912283069+908924540+906102246+904993174+905856160+907389227
1248+908153646+908044509+907837533+907893819+908024690+908268332+908967150
1238+910144730+911474520+912793145+914043856+914896404+915133638+915196993
1228+915571440+916124522+916769631+917951703+919855187+921926208+923659314
1218+925105838+926419046+927654167+928883804+930079089+931141916+932047777
1208+932855534+933944523+936067007+939439542+943217905+946552123+949371576
1198+951695157+953183367+953783090+954144390+955209134+957508139+960481454
1188+962640206+962954140+961866935+960783363+961061952+963260608+966661682
1178+969900175+972235713+973618155+974038913+973819186+973907117+975099825
1168+977426048+980390973+983352858+985626693+986596305+986211354+985520001
1158+986189619+989019179+993012578+996141009+997194588+996958213+997277498
1148+998756590+1000231191+1000901206+1001663577+1003385981+1005299441
1140+1006571689+1007969392+1010272295+1012422394+1012737714+1011149749
1131+1008625137+1005987887+1004634381+1006173063+1010496382+1015615105
1123+1019976212+1023412499+1025395127+1024667174+1021505711+1018820896
1114+1020025562+1025822755+1032954692+1036885661+1036909576+1036874563
1105+1039605358+1043185729+1044247301+1042767680+1041120918+1040663892
1097+1040765035+1040342097+1039835589+1040805003+1044091193+1048366485
1088+1051312184+1052505950+1053143197+1054017678+1055010610+1055326922
1080+1054437709+1053002614+1052277965+1052918978+1054636824+1056244476
1071+1056017482+1053822923+1052513018+1054759437+1059408581+1062551414
1063+1061949445+1059489575+1058298386+1058764992+1059610669+1061593165
1054+1066164684+1071200233+1072605599+1070213709+1067957116+1068307582
1045+1069901757+1070632815+1070738714+1071862915+1073741823+1073596814
1037+1070167200+1066543161+1066419557+1069210074+1071201356+1070492430
1028+1068346163+1066138061+1064122335+1062870698+1063006194+1063621707
1020+1063033346+1061419352+1061143075+1063691404+1067729263+1070506832
1011+1071031573+1070398488+1069035468+1066184437+1061868451+1057607892
1003+1055405207+1056112349+1058152584+1058738699+1057070797+1054780049
994+1053076407+1051932784+1051596323+1052719400+1055123050+1057195458
985+1057035849+1053801386+1048581785+1044198811+1042312437+1041191474
977+1038316924+1034219013+1031059070+1029420038+1028552692+1027351329
968+1024427761+1019730456+1015345698+1012893294+1011898313+1010918990
960+1008402107+1003571752+997886536+993761737+991570151+989972408+988741978
950+988668251+988930390+987230778+982899927+977932226+974619676+973467267
940+973379468+973208959+972987713+973650460+975705296+978656743+981619289
930+983554417+983512995+981746791+979363423+976737139+973771621+971347557
920+970584922+971143950+972273303+974306536+977212994+979119451+978162655
910+975140586+972727555+972240866+972416595+971414678+968951637+966123926
900+964225793+963946940+964648797+964731244+963904593+963682753+964614709
890+965006332+963084549+959260206+955764463+954762678+956673230+959720602
880+961348998+960450140+958285441+956938277+956921761+956812558+955157274
870+952606898+951458914+952926380+956001894+958912581+960654011+961051250
860+960256442+958676140+957088108+956586027+957922687+960183640+961117380
850+960270381+959969198+961489911+962831988+962260606+961511580+963093071
840+966249843+967706937+966230090+964359440+964846195+967328592+969741028
830+971659310+973802208+975315191+973842705+968331368+961068427+956313713
820+957136401+963773193+973964526+983698105+988842262+988499195+985772429
810+983877335+983378556+983185850+982450498+981421495+981140263+982202761
800+984245176+986488952+987544183+986026641+982504670+978868146+976506050
790+975952637+977115550+979167809+980889553+981763637+982361775+983264069
780+983929921+983204876+980916375+978394736+976837952+976113171+975857175
770+976260624+977163380+977904611+977941937+976903817+975176723+974573102
760+976988775+982565250+989687741+995537454+996466570+990676511+981502489
750+975117992+974732711+978508232+982695461+985395471+986252247+984931905
740+982002126+979769514+981219539+988130429+998913887+1007664774+1008719806
730+1003255770+997470006+995467493+997015556+1000372104+1004132431+1006546321
720+1005826627+1002005719+997547631+995481168+996936545+1000348784+1003070793
710+1003712070+1003112017+1003799340+1006926384+1009445446+1007411091
701+1002026199+998100713+997325856+997089944+995523581+993899875+993473436
691+992902385+989904164+984607401+980727962+982322666+988705180+992963559
681+988480301+977778430+969857102+969540724+974103853+979626091+985501767
671+989666204+986402740+976512326+972787144+979038325+985382391+986414961
661+985020892+983800305+980047575+971977736+963481854+959159327+959753699
651+963696692+968797313+972137411+972905860+974598998+979540935+984839284
641+987192395+986926622+984563205+978631837+970536167+967628718+975269740
631+989136772+999893409+1001526562+992231115+977035416+967451139+969100874
621+976535646+981784645+987024726+1001715965+1024317699+1039239499+1039235734
611+1035050487+1039503555+1052694495+1064068626+1064902015+1056766839
603+1048991312+1046312773+1044188439
##END=
