##TITLE=<SNM>
##JCAMP-DX=4.24
##DATA TYPE=INFRARED SPECTRUM
##DATE=2/5/2025
##SAMPLING PROCEDURE=Instrument type and / or accessory
##ORIGIN=Admin
##XUNITS=1/CM
##YUNITS=ABSORBANCE
##RESOLUTION=4
##FIRSTX=4497.3318
##LASTX=599.83466
##DELTAX=-1.4281778
##MAXY=1.8219824
##MINY=0.36683056
##XFACTOR=1
##YFACTOR=1.6968533e-09
##NPOINTS=2730
##FIRSTY=0.38309658
##XYDATA=(X++(Y..Y))
4497+225768822+225626980+226301130+227487618+228075777+227599180+226808111
4487+226434154+226386593+226331690+226060811+225250406+223827832+222551491
4477+222413373+223521213+225081535+226313564+227002941+227378778+227690754
4467+227820969+227410743+226453070+225481574+224943610+224727371+224573095
4457+224624064+225252566+226387032+227217775+226986519+226107565+225787509
4447+226382114+226953079+226672927+225963458+225899563+226831769+227898300
4437+228047992+227378585+226930317+227220322+227652993+227500632+226903621
4427+226532192+226561769+226528469+226175008+225693440+224990733+223650654
4417+221995806+221316212+222509128+224983339+227215861+228054121+227334518
4407+225685449+224127831+223437471+223398621+223165556+222660278+222779146
4397+223884193+225105843+225587656+225478483+225182278+224481608+223042297
4387+221376911+220667477+221455717+222876183+223604252+223311437+222568755
4377+221723821+220801766+220145935+220086448+220165202+219658326+218768148
4367+218417989+218910885+219529692+219501889+218832552+218037462+217515394
4357+217376890+217597660+218088361+218696981+219231555+219391820+218968246
4347+218298172+218029436+218244463+218413282+218352320+218495671+218997700
4337+219291183+218844127+217905580+217250610+217381017+218164340+219218594
4327+220328593+221206090+221228132+220072204+218478020+217692116+218143773
4317+219158510+219852857+219805629+219094316+218240090+217985703+218656603
4307+219762388+220527111+220640570+220223372+219447232+218613134+218218505
4297+218418937+218712472+218607567+218297223+218226408+218396579+218547887
4287+218576743+218433497+218022428+217421132+216873860+216499762+216264853
4277+216182832+216343378+216809262+217541985+218334985+218811705+218597679
4267+217686056+216648768+216218644+216582081+217293675+217918278+218439521
4257+218945309+219277185+219236736+218929274+218763441+219197781+220314543
4247+221455665+221639341+220717093+219717707+219591901+220033284+220088257
4237+219562465+219080370+218944062+218748618+218156208+217464197+217284208
4227+217985212+219336724+220437011+220412739+219499202+218857334+219110474
4217+219710892+219959764+219880940+219759350+219600261+219429423+219463338
4207+219642835+219563976+219167959+218960009+219297347+219997947+220722626
4197+221257357+221318390+220593202+219329594+218423275+218481216+219103765
4187+219484098+219449937+219454135+219722344+219957218+219934684+219899751
4177+220148851+220624816+221173405+221847835+222635953+223103522+222681881
4167+221327716+219710980+218650527+218413932+218716793+219313172+220151187
4157+220914979+221119661+220828093+220590040+220592728+220505965+220167292
4147+219848852+219788030+219816852+219580485+219077947+218802414+219129091
4137+219745527+220025363+219849765+219669654+219875478+220477530+221257164
4127+221907989+222105243+221717217+221040820+220664825+220896133+221365723
4117+221401183+220750200+219756118+218934490+218607532+218773909+219068568
4107+219039255+218675519+218485959+218867099+219564204+219934807+219672710
4097+219133166+218909603+219158545+219486644+219481358+219161566+218922318
4087+219213254+220153979+221233594+221636847+221166257+220505315+220318319
4077+220553245+220825459+220902720+220622374+219929520+219119695+218575566
4067+218360258+218418112+218862586+219709891+220606831+221122542+221138384
4057+220834205+220495427+220392699+220587564+220769362+220580064+220157123
4047+219953582+220025697+220035638+219998298+220383566+221281999+222015284
4037+221811216+220646102+219324974+218805031+219414811+220646190+221684251
4027+222121173+222138613+222088786+222061422+221945628+221766377+221721292
4017+221914734+222228572+222455578+222449272+222157388+221642222+221163271
4007+221126037+221704290+222542340+223120664+223363828+223522934+223614228
3997+223448413+223039434+222573866+222205283+222149941+222636971+223569020
3987+224534316+225145729+225114449+224315793+223199102+222763567+223633337
3977+225358245+226896068+227538024+227202794+226266073+225377845+225036573
3967+225185949+225584442+226357525+227601832+228764556+229087773+228428395
3957+227228910+226093057+225624855+226309507+228246158+230761010+232356266
3947+231946532+230397907+229653522+230280742+230954610+230526084+229470319
3937+229024458+230025372+232481352+235376765+236941759+236172663+234230655
3927+233300310+234148740+235429929+235620069+235135867+235506066+237008693
3917+238054675+237005795+234167708+231263812+229590751+229469108+231036139
3907+234804044+240885508+247725548+252561792+253944058+252335208+248382608
3897+243153806+239074030+238426560+241114111+244143831+244727213+244167173
3887+245142884+247109182+247611316+246985448+247192642+247279019+245322855
3878+243097411+243627400+246934040+251131016+255163565+257955513+257726382
3868+255348963+253907596+254035439+253362204+250464929+247055210+245659683
3858+247815401+254376132+264535703+271786461+268587835+258998526+250577334
3848+246553110+247166508+250917008+255632294+260057838+263998144+266615039
3838+266389684+263737961+260990080+259249101+257843055+256151499+254518324
3828+253408483+253146948+254985350+260463445+268056949+272308196+271140202
3818+268283252+265441864+261190933+256232905+253436883+254332487+258430775
3808+263505213+266989962+269240978+272366752+275607933+276065141+274288316
3798+273019298+272321403+270925543+269341686+269031378+270392146+272965607
3788+276459683+280747180+285289186+289626493+294266678+299720412+304999972
3778+308982236+312814686+318808228+328290858+341196010+355932310+369864458
3768+381791687+392273702+400922216+406983342+411627251+416393857+420780463
3758+423747640+426437633+431208595+439291606+449183320+456456452+459245151
3748+461787718+468000661+476832149+483025385+485788336+490302734+500241271
3738+515646065+532454412+544092935+547918676+547929987+549058041+552960990
3728+558774544+564484930+567978655+568843541+568203184+566828224+565209767
3718+564214561+564689332+567335522+572259882+576915628+576641219+570703880
3708+563473390+558875181+557777862+558590867+558702991+556905353+554653318
3698+553857104+555112388+558395423+564023473+572316892+581836404+588136039
3688+587898127+583585638+579330369+577283860+578150608+581739666+587183547
3678+593078910+596906021+596961240+595978890+596478601+596200258+591477420
3668+582978194+574532606+567943352+563171056+559963227+558211359+557893710
3658+558712370+560145920+562712373+567991757+576580169+585792535+589048206
3648+582527309+570682523+559381215+551199006+546746959+545470810+545665166
3638+545917726+546527207+548466967+552185114+558002707+564899635+567503673
3628+561045582+551281378+546001292+546526996+550746189+556141210+560361773
3618+562292259+562903708+563304256+563895225+565833018+570599800+577134115
3608+581486087+580991505+577376524+574531412+574714983+576871158+578535033
3598+579483591+581609557+585480295+589402212+592321090+595428457+599257183
3588+600915860+597677190+592397666+589997678+591853625+596085394+600372030
3578+603552952+605496857+606429116+606836374+607846684+610828228+615609095
3568+619379441+618980965+614629556+609389163+605691248+603612457+601856831
3558+600273325+600237566+602121193+604154038+604828609+605211419+607234358
3548+610640722+612719935+611294779+607302644+603061040+599592501+596829656
3538+594841351+593908038+593942181+594459947+594959025+595033564+594447301
3528+593299646+591838732+590007794+587854184+586422214+586875417+588510032
3518+589107078+587504464+584642596+582201053+581321168+581953235+582556569
3508+581671626+580049270+579637094+580969340+582929965+584352064+584751278
3498+584045796+582452911+580643014+579308169+578535033+578092333+577857090
3488+577844901+578006378+577855088+576529271+573618929+569938120+567076429
3478+566152529+567059673+568350364+568115156+565857923+563158621+561960419
3468+562782205+564834264+566951835+567814403+566282638+562655609+558892183
3458+556750305+556234049+556267384+556194953+555893884+555213974+554131513
3448+552948555+552007023+551402565+550762594+549345061+547098997+545109007
3438+544324138+544778325+545977371+546943422+546646567+545187233+543495608
3428+541857410+540163501+538924025+538679333+539330439+540470051+541338801
3418+540802278+538540969+535828460+534406501+534915485+536370288+536889529
3408+535563114+533621984+532770341+532777296+532186221+531158663+531508805
3398+533624830+535561006+535815674+534956408+533897271+532756711+531806924
3388+531474205+531243810+530306528+529006528+528256435+527989017+527280057
3378+525723598+523942822+522744584+522295175+522335500+522769243+523582739
3368+524443270+524945123+525297829+526288680+528235711+530185446+530748139
3358+529747137+528254363+527109974+526248354+525339454+524345688+523455862
3348+522905815+522875641+523353925+524065519+524658877+524894857+524526625
3338+523481926+522508990+522770121+524191377+525137793+524436772+522792216
3328+521490495+520904970+520912136+521599774+522753366+523509957+523358105
3318+522731095+521977490+520754066+519111548+517930206+517652776+517787978
3308+518035902+518850522+520377755+521471843+520594486+517813024+515055061
3298+514058836+514866677+516323060+517188298+516917507+516211322+516431531
3288+517897327+519384060+519624817+518674679+517687903+517853525+519476829
3278+521872426+523988767+524820775+523723597+521195186+518788243+517603177
3268+517479602+517669848+517541284+516919614+516360434+516479513+516824351
3258+516382670+515271089+514824841+515804837+517325326+517914083+517219560
3248+516112933+515421255+515252296+515283208+515062753+514204506+512675938
3238+510778962+508894246+507432453+506684749+506511891+506440620+506133929
3228+505756108+505875257+506768702+507832018+508078045+507177821+505597687
3218+503975191+502720856+501746480+500575957+499197906+498339905+498412687
3208+498745371+498363791+497130918+495803274+495230711+495429246+495358150
3198+494094928+492167990+490945269+490924755+491386880+491404479+490592914
3188+489221994+488003769+487432822+487201338+486618939+485461835+483972609
3178+482329458+480614719+479093738+478119608+477765989+477672306+477284017
3168+476303810+474971670+473883940+473374429+473086462+472407992+471223032
3158+469929882+468960705+468558962+468637330+468671016+468171306+467255169
3148+466374862+465738579+465257556+464706174+463826254+462601390+461361211
3138+460464184+460030722+459881715+459644505+459028174+458032195+456895745
3128+455899591+455224037+454828090+454436850+453743030+452660042+451485796
3118+450687966+450262970+449608000+448399786+447123497+446290084+445710777
3108+444954642+444028319+443293612+443027668+443231297+443641224+443788931
3098+443255605+442120208+440989554+440348670+440115359+439982475+439792405
3088+439431656+438832396+438225585+438062211+438573373+439446444+439904389
3078+439314684+437910886+436638461+436135097+436158913+436063474+435541387
3068+434783848+434068179+433396734+432604419+431726958+431066262+430805833
3058+430780788+430702983+430444381+429991880+429278987+428315640+427384681
3048+426797083+426488250+426076883+425252322+424023946+422787034+422157776
3038+422403768+422953323+422820088+421671449+420181906+419158388+418630014
3028+418067568+417247503+416452096+415871981+415366053+414900942+414631029
3018+414427120+413926566+413134918+412428944+411977603+411655773+411412452
3008+411278690+411168954+410903713+410258544+409069650+407520884+406143852
2998+405342755+405060583+404900512+404451453+403646177+402861765+402463430
2988+402330054+402086241+401637042+401187598+400892745+400754838+400756138
2978+400827726+400692664+400069940+399144566+398403641+397891285+397169785
2968+396132357+395241406+394833587+394736321+394614678+394279851+393673602
2958+392812052+391766264+390666767+389728080+389133914+388804883+388442025
2948+387912492+387451034+387354858+387530350+387490692+386887464+385950252
2938+385229806+384939203+384748080+384276716+383583809+382994315+382613578
2928+382276890+381887793+381471016+380895151+379916560+378602861+377406590
2918+376676309+376286264+375845882+375177212+374516341+374195354+374159314
2908+374047506+373820975+373895760+374410469+374801252+374493895+373685492
2898+372989178+372554451+372030468+371250553+370429610+369735825+369151283
2888+368699450+368397818+368093341+367678496+367292455+367054578+366825272
2878+366429712+365925540+365494642+365160413+364730569+364087753+363437525
2868+363013406+362620270+361884438+360941922+360383199+360451379+360736186
2858+360743457+360394966+359876322+359305867+358698704+358093543+357610026
2848+357380509+357386445+357432215+357367582+357207721+356936263+356402690
2838+355566502+354654687+353943971+353513003+353230058+352898744+352430788
2828+351872662+351265640+350609510+349938979+349265778+348543154+347866792
2818+347503478+347538921+347726778+347781891+347571905+347000957+346006735
2808+344756229+343657540+343077635+343077284+343388154+343559431+343183998
2798+342226518+341197801+340727983+340843304+340937970+340573672+339974905
2788+339569649+339383233+339138506+338723942+338263011+337807068+337240512
2778+336496320+335670670+334918996+334363856+334036476+333781317+333341567
2768+332701386+332194966+332091904+332218922+332190680+331849988+331256735
2758+330451564+329529069+328756179+328296513+327954099+327439003+326744410
2748+326065695+325483788+324935989+324435014+324093724+323876080+323533806
2738+322942415+322297772+321798729+321364389+320862219+320397214+320162814
2728+320126353+320032986+319696895+319187279+318687428+318253088+317822436
2718+317389922+317009712+316657779+316227268+315658604+315012767+314426996
2708+314010465+313758643+313562144+313326551+313099176+312992953+312910336
2698+312505467+311629199+310637014+309967396+309590383+309184846+308685171
2688+308322805+308226629+308230036+308055387+307595755+307020206+306587728
2678+306380446+306296283+306235444+306156163+306022612+305827694+305581984
2668+305232615+304750924+304291890+304054470+303989275+303832048+303404769
2658+302758123+302070696+301512992+301179886+301056522+301002462+300828059
2648+300476793+300088925+299802152+299579485+299324782+299030913+298700583
2638+298255283+297650403+297041976+296744384+296926726+297336091+297478143
2628+297145037+296590881+296124962+295762491+295386952+295057465+294955422
2618+295047278+295008920+294637070+294175595+293982083+294030750+294035018
2608+293879355+293607545+293160015+292463649+291693305+291172975+291023722
2598+291058708+291036754+290908771+290745748+290528508+290191135+289824132
2588+289607437+289540415+289452669+289286748+289159081+289127432+289086808
2578+288912844+288567198+288085824+287604045+287348956+287432821+287648796
2568+287617885+287169916+286484175+285854408+285431677+285203354+285093092
2558+285025175+284968674+284947088+284948669+284864471+284600301+284215209
2548+283889076+283774019+283862239+283960155+283858656+283572006+283301883
2538+283132028+282917616+282551122+282183611+282046916+282155685+282321043
2528+282381180+282289974+282066376+281796217+281598402+281508460+281491758
2518+281546590+281630051+281565629+281258061+280928099+280893499+281166854
2508+281469470+281599280+281580312+281459564+281188510+280783957+280430742
2498+280316089+280446760+280676926+280854720+280895835+280748163+280405679
2488+280026347+279862973+279929415+279916840+279596029+279108542+278735200
2478+278584524+278598469+278677206+278718550+278660398+278541319+278465041
2468+278490754+278587791+278677188+278658536+278443192+278066706+277718039
2458+277561919+277599786+277735796+277875740+277968632+278032721+278083426
2448+278050776+277894972+277715300+277605494+277534626+277462880+277419762
2438+277424241+277417374+277279063+276951823+276597519+276494194+276712910
2428+277044874+277234961+277165779+276915784+276722658+276744015+276854066
2418+276843177+276736550+276735022+276931169+277216783+277408820+277412631
2408+277296134+277210232+277239141+277364139+277552646+277822910+278200081
2398+278609482+278849976+278769272+278477265+278272108+278324605+278524282
2388+278627431+278435693+277809228+276598275+274631344+271801319+268176099
2378+263982723+259448199+254691885+249806253+244993016+240532047+236594358
2368+233176630+230304663+228147400+226822443+226363497+227024649+229292087
2358+233394450+239027066+245862171+254114527+263695370+272845404+278921511
2348+280513237+278380966+274902047+272335331+271197125+270657124+269800474
2338+268217443+266175816+264250423+262655220+261225024+259965508+259232662
2328+259284843+259856036+260357573+260538896+260801204+261718710+263365532
2318+265239183+266754175+267725917+268409251+269144556+270063502+271114718
2308+272186500+273140134+273863284+274342551+274630747+274781124+274857243
2298+274934100+275049386+275210107+275436129+275734775+276053883+276308551
2288+276455485+276530709+276591038+276611359+276495600+276208124+275813301
2278+275386232+274986738+274680522+274467655+274260302+274017789+273796913
2268+273621912+273453129+273312745+273296394+273441783+273677166+273877440
2258+273930622+273821203+273661131+273557525+273484954+273370177+273225070
2248+273105077+273024040+272988914+273031663+273138114+273219080+273211405
2238+273163774+273180283+273298361+273454920+273560686+273573191+273518780
2228+273479649+273512932+273562355+273537643+273480001+273520396+273672073
2218+273795666+273775380+273645517+273544581+273569977+273673144+273708903
2208+273582605+273334032+273111049+273060589+273171431+273253838+273169043
2198+273012887+272964220+273032857+273083088+273072181+273137394+273388461
2188+273694080+273804623+273674391+273503676+273440395+273410310+273294778
2178+273124766+273026762+273073463+273232868+273403003+273487026+273459908
2168+273345940+273165161+272984382+272953506+273157644+273484550+273755727
2158+273921208+274030452+274087374+274032612+273855644+273671107+273635260
2148+273775117+273974706+274154396+274350332+274575282+274735688+274750301
2138+274657373+274571313+274591458+274731736+274893371+274967014+274981521
2128+275051160+275198024+275374956+275606212+275921385+276232888+276449303
2118+276606424+276769569+276936280+277084251+277177371+277151149+277023201
2108+276943832+277028294+277223141+277412579+277581309+277816517+278184397
2098+278640516+279053306+279311838+279438680+279586598+279871896+280228624
2088+280491230+280578098+280528323+280431550+280371167+280377859+280432129
2078+280521140+280630612+280715864+280781481+280902931+281083025+281236317
2068+281357328+281510884+281665757+281744388+281791264+281907709+282085449
2058+282230417+282293715+282303234+282307502+282348653+282485172+282759932
2048+283108265+283407192+283674593+284050254+284502931+284781818+284769787
2038+284663283+284696109+284870477+285038611+285126497+285214068+285420208
2028+285727162+285973821+286054243+286050256+286147557+286495257+287090969
2018+287683607+287898160+287627246+287187110+286965778+287073616+287395797
2008+287794045+288164648+288437388+288616077+288771055+288941876+289071370
1998+289129065+289335399+290051946+291244440+292276968+292582833+292334225
1988+292065682+291986700+292012711+292091043+292198759+292268977+292279831
1978+292276248+292309496+292431613+292662869+292990266+293511632+294370618
1968+295328888+295722622+295228637+294360642+293843087+293852448+294118391
1958+294413244+294658585+294793313+294813370+294847408+295051950+295466128
1948+296076346+297030244+298507632+300089171+300650424+299608183+297862708
1938+296723659+296533554+296771677+296923143+296907792+296913799+297063860
1928+297390432+298137925+299563010+301225586+302306325+302854792+303480747
1918+303836404+303015180+301394264+300368849+300580978+301500171+302248718
1908+302380478+302084993+301818593+301777565+301838685+301906620+302099079
1898+302596260+303334270+303968164+304458531+305353415+306795221+307773742
1888+307382607+306222693+305424020+305236093+305284602+305335044+305394092
1878+305556236+305906870+306481154+307592102+310032802+314137553+318331525
1868+319707960+317441242+313894512+311490976+310733963+310910088+311258017
1858+311403441+311358760+311355950+311577247+312155571+313293110+315158120
1848+317928624+321705714+325452455+326641033+324302481+320888002+318931241
1838+318706221+319137540+319643257+320991661+324164890+328369928+331083455
1828+331253749+330396239+329443009+327801755+325626156+324226748+324194186
1818+324838056+325374579+325958629+327297619+329413011+331194807+331585449
1808+330888433+330335119+330962374+333134040+336275023+338888967+339709980
1798+339178901+339175319+341313930+345353345+348441498+347547948+343810832
1788+340902071+340516557+341787998+343411302+345074405+346610350+347433330
1778+347811925+349371825+353540507+359721941+364656382+365208044+362144305
1768+358064634+354683245+353414051+355003704+357987145+359760229+360059332
1758+360388608+360897592+361381917+363374051+368331499+374680768+378413388
1748+377816693+375121888+373039971+372701386+373905665+375506032+376217661
1738+376734760+379707557+385936693+391019719+389902448+384881209+380092685
1728+376711260+375050757+375250627+376666298+379104328+383984358+392514144
1718+402318006+407037226+403876361+397279064+391920048+389662885+390925509
1708+395278219+400913856+405476868+409223434+414863251+422698198+428269589
1698+428698871+425856710+420640414+414325077+410425535+410663623+413906298
1688+419139736+427353488+438012120+444149681+440490827+433050457+428507783
1678+428727816+432565780+436927623+439632509+442127374+445834844+448081575
1668+445809588+441918090+441177762+444121053+447181421+447350204+446261772
1658+447744254+454519433+467402174+481831012+485855182+480215365+477494074
1648+480522652+483256097+479739821+473034404+468912617+469286680+474110155
1638+482798187+492360624+496050916+491450600+485278544+483105790+485276226
1628+489416033+493525807+497371149+500436188+501348425+501154035+503154107
1618+508332186+512909635+512618752+509580970+508153988+509382435+511729312
1608+513458663+514246693+514895762+515992378+517334670+518565646+519868842
1598+521672556+523940714+526120740+527716470+528714872+529464473+530298870
1588+531324917+532512406+533883607+535466902+537256672+539681810+543851616
1578+550247497+556295802+557571037+555221737+554726698+557856932+561396988
1568+561876642+560505652+560242799+562707139+569696344+583437649+600789053
1558+607465140+599688537+590312763+585236587+583924995+584765047+586445187
1548+589071179+594388148+603732379+616472577+630751248+642671170+644887236
1538+637870211+632060416+632639934+637252194+640867140+642523287+645759780
1528+652584873+661678090+671246568+681285603+691216518+698251387+701746060
1518+704316763+706635257+707485672+707743290+710326850+717474546+729526263
1508+743325175+749485744+742446519+732314680+727628655+728673108+733189683
1498+738466116+741587745+741769911+741998866+745338912+751199570+755520560
1488+755135221+751329749+747219940+744909314+745142554+747500320+751372744
1478+756911010+764368733+772808314+779361177+780039611+774522561+768175330
1468+765777871+767790764+771201133+772741855+773206509+776210745+783568849
1458+792398897+795017864+788778120+780419049+774877270+772670407+772590670
1448+772835994+772021479+770215060+768350190+767144224+767357583+769950346
1438+774477318+777506494+776008486+772438713+770602014+770665242+770543423
1428+769544283+769083984+770139889+772318439+775295487+779084239+782026722
1418+781076056+776554072+772207931+770233536+770073078+770045890+769200956
1408+768090113+767653560+767761469+767847739+768553222+770993886+774806173
1398+778334708+780458601+780870566+779452787+777252810+776504614+778276468
1388+780912577+781577383+780178502+779754665+782338576+787045817+792005339
1378+796661366+801683553+807260107+812335476+815899769+818217280+819845959
1368+820839971+821706052+823500247+826080715+827572471+826726552+824747943
1358+823521393+823488796+823905326+824151634+824196455+824119247+823863737
1348+823380044+822668449+822012355+822270044+824272540+827639633+830653071
1338+831755905+830985931+829608547+828833374+829166585+830489733+832350809
1328+834295205+836155157+838004923+839896208+841883459+844148561+846737811
1318+849352071+851738430+854177268+857223515+860788300+863801949+865365152
1308+866078011+867368561+869737708+872610781+875444652+877943627+879713515
1298+880785929+882017748+883957226+885529984+884829490+881513962+877481853
1288+874646577+873024712+871594569+870090379+868967453+868100880+866620506
1278+864104530+861224150+859004924+857902582+857806264+858434047+859381762
1268+860142041+860468648+860577470+860841201+861473690+862531913+863964164
1258+865546054+866894704+867659690+867837360+867982714+868949819+871074977
1248+873624674+875562959+876826040+878103453+879655837+881326316+883274787
1238+885581549+887577441+888539207+888724605+889109171+890518941+893205140
1228+896594574+899365850+900584812+900966568+902127571+904505289+906849145
1218+907959004+908133653+908497073+909650700+911493440+913815166+916381373
1208+918603761+919936604+920845469+922663269+926145999+930703812+935047002
1198+938267828+940394040+941991105+943506535+945211860+947401300+949938843
1188+951956233+952938723+953731038+955543921+958448537+961354769+963109974
1178+963445363+962861629+961923398+961186373+961497313+963507818+966893247
1168+970488100+973226498+975014511+976654641+978883843+981775674+985120286
1158+988684720+991744315+993109193+992530307+991522525+991892057+993898908
1148+996429427+998764150+1001219638+1003762240+1005296428+1005189292+1004561861
1138+1005214021+1007807065+1011083039+1012757383+1011837980+1009552013
1130+1007844229+1007964362+1009917540+1012318722+1013636741+1014211272
1121+1015791265+1018997548+1022633922+1025157766+1025741008+1024417649
1113+1022230950+1020682640+1020672313+1021897528+1023036332+1023533864
1104+1024306649+1025681433+1025901255+1023754951+1021536216+1022431312
1095+1026464756+1031364561+1035897857+1040278913+1044539907+1048073289
1087+1049741591+1048443313+1045102214+1042448050+1041477713+1041006314
1078+1041251849+1043840256+1048312361+1052241971+1053805174+1052444089
1070+1048708167+1044443520+1042552165+1044578266+1048916678+1052351495
1061+1052834907+1051794037+1052562466+1056361967+1061276245+1064075481
1053+1063698292+1062332782+1061502249+1060092690+1057912664+1057820211
1044+1061709004+1067338038+1071141051+1071569174+1069542230+1067025130
1035+1064927371+1062890311+1061231423+1061362094+1063666959+1066447439
1027+1067297221+1064970436+1060425549+1056729953+1056631107+1060332183
1018+1066153570+1071555615+1073741823+1072068463+1068936859+1066794208
1010+1065384298+1062677022+1057990083+1053093650+1050338251+1050859459
1001+1053807281+1056623660+1057078900+1055472632+1053596943+1052194831
993+1051067549+1050801008+1052375944+1055211852+1057327385+1057365392
984+1055553142+1053318530+1052220965+1052253984+1051459140+1048089377
975+1042878701+1038336133+1036096181+1035797184+1036131167+1035936355
967+1034360999+1031090223+1026638562+1021661759+1016395723+1011511935
958+1008347101+1007248974+1006535413+1004258157+1000744024+997912682+996290607
948+994501961+991750356+988947747+987051896+985943161+984934396+983289489
938+980764099+978035045+975954638+974647087+973973289+974150327+974989641
928+975635900+975661823+975310698+974782675+974239970+974139648+974730547
918+975240375+974353218+971960958+969405148+967395838+965267940+962980076
908+962049222+963297901+965095188+964799281+961613371+957665144+955875937
898+957110706+959727004+961584357+961919464+961306927+960438949+959153457
888+956741596+953323921+950324112+949037355+949360028+950272546+951110525
878+951699668+951513287+950280976+949242002+949666894+950626060+950445088
868+949553083+949372322+949535590+948433951+945349205+940950585+937020413
858+935673731+937561573+941375547+945602538+949392625+951696156+951704867
848+950225968+949012626+948853151+948879426+947692710+945275299+942942613
838+941406317+940007296+938442267+938083273+940153001+943639314+946321790
828+947068511+946173837+944535252+943653575+944905557+947651541+949233994
818+948099757+945947622+945386510+947081648+950387831+954875462+959420981
808+961646460+960944842+959914299+960430168+961011091+960083820+959206779
798+960834475+964587538+967430121+967321369+964978708+961677934+957579365
788+953232733+950888034+952332509+956226571+959344686+960535758+961538692
778+963438970+964505483+962581600+958276066+954527147+953764198+955969304
768+958934197+960103842+958559959+955678666+953323570+951947873+951305970
758+951937265+954490123+958279438+962167177+965739058+968193351+968441626
748+967171379+965987051+964558313+961662267+958222111+956380144+957234633
738+960880350+966528141+971882977+974239759+972916752+969371356+965359831
728+962062219+960237885+960251022+961304960+961736595+961396570+962308877
718+965701332+970043117+972710699+972171295+968903681+965538415+965031187
708+967370828+969192562+968040481+965528509+964357038+964222784+963280689
698+961859328+961455021+961468017+959500859+954223021+946762769+939215192
688+933013736+928420304+925313920+923853428+923572485+923397274+923201127
678+923600165+925078783+928568187+933592341+935190319+927313185+910952561
668+897403749+897573481+905936767+911926410+913409454+912648191+910462264
658+906711378+903350468+901786562+900114467+896358523+891791858+888388795
648+885330886+880794500+876535543+876396161+880786913+886548233+891680155
638+896515890+900160623+900696585+898779728+896651970+895221125+893434236
628+888962272+881300182+874707416+875032477+880573483+880281722+868579585
618+854263679+847656652+849265308+853431741+857577801+864124060+873061455
608+878977472+879420419+879491444+885004982+893520647+895239390+887733403
##END=
