##TITLE=<SNM>
##JCAMP-DX=4.24
##DATA TYPE=INFRARED SPECTRUM
##DATE=3/5/2025
##SAMPLING PROCEDURE=Instrument type and / or accessory
##ORIGIN=Admin
##XUNITS=1/CM
##YUNITS=ABSORBANCE
##RESOLUTION=4
##FIRSTX=4497.3318
##LASTX=599.83466
##DELTAX=-1.4281778
##MAXY=1.7099577
##MINY=0.18090513
##XFACTOR=1
##YFACTOR=1.5925222e-09
##NPOINTS=2730
##FIRSTY=0.19908188
##XYDATA=(X++(Y..Y))
4497+125010427+124597261+124686236+124818019+124769962+124656659+124639816
4487+124678947+124683523+124904300+125815359+127346503+128575277+128623232
4477+127660448+126637779+126224595+126334773+126465882+126223069+125607980
4467+124897544+124351669+124196306+124732871+126027593+127428573+127876790
4457+127052863+125846143+125243564+125126266+124754701+124099433+123909356
4447+124585911+125631223+126195261+125838386+124838960+123913557+123612029
4437+123957572+124524754+124708683+124120776+122928345+121694518+120907186
4427+120763182+121126148+121561799+121736558+121686396+121378262+120518769
4417+119289181+118540578+118719408+119356860+119952533+120473304+120765260
4407+120431722+119570011+118894710+118903843+119346885+119590250+119287469
4397+118689597+118353869+118563633+119145028+119831258+120461074+120725146
4387+120211346+118957720+117542359+116485210+115912536+115711062+115618297
4377+115440281+115454972+116044993+116819543+116995725+116688770+116731887
4367+117245940+117482764+117026950+116214672+115412154+114647972+113961882
4357+113596615+113778710+114531674+115630096+116606298+117019436+116865046
4347+116518128+116259979+116086014+115908849+115723385+115608388+115627467
4337+115704203+115728232+115765800+115915193+116069172+116095970+116043992
4327+115964879+115805268+115566020+115343540+115263360+115429502+115759990
4317+116025166+116257714+116739897+117372221+117607904+117305441+117087723
4307+117547964+118559516+119555957+120143106+120347780+120438496+120465977
4297+120073060+119134913+118324890+118371984+119084722+119798873+120273318
4287+120492065+120318493+119895362+119669214+119741047+119820843+119810251
4277+119887820+120142199+120492046+120867559+121296894+121797603+122201964
4267+122219012+121812060+121393299+121432195+121962005+122625451+123076811
4257+123212572+123160706+123144621+123230649+123259281+123208024+123359401
4247+123806532+124177339+124233518+124295564+124687546+125185626+125356363
4237+125079893+124492987+123724201+122948631+122522346+122748036+123456367
4227+124083470+124325048+124457608+124824261+125363698+125897419+126478159
4217+127058767+127225209+126730067+125945084+125378211+125106148+124943290
4207+124792793+124695537+124769990+125106794+125680366+126466987+127455034
4197+128387652+128873221+128898850+128808986+128739913+128508974+128073707
4187+127752193+127863147+128287523+128555974+128373916+127880738+127417298
4177+127275699+127598439+128268968+129022091+129807972+130760295+131676697
4167+131981453+131458970+130611884+129995551+129608987+129231144+128921906
4157+128863369+129012837+129202951+129404771+129748116+130358386+131135341
4147+131745358+131989125+132049478+132186108+132348573+132290747+131989968
4137+131776030+131949836+132390015+132769168+133077695+133574737+134249775
4127+134707536+134595066+133933660+133137280+132788294+133181164+134006523
4117+134623586+134675442+134376899+134216483+134398635+134628676+134497735
4107+133979107+133432530+133268811+133743246+134804652+135963914+136625497
4097+136685139+136500919+136281189+135908015+135336605+134780249+134534873
4087+134837027+135712764+136778933+137400216+137249812+136651921+136251154
4077+136360480+136717720+136891881+136793080+136666443+136710664+136884573
4067+137050247+137180187+137394564+137806738+138357517+138827807+139007086
4057+138892716+138758453+138908436+139282761+139471126+139258199+138946584
4047+138952507+139302869+139717747+140004416+140142403+140097480+139810502
4037+139319936+138739421+138239862+138133801+138661702+139521794+140021361
4027+139969486+140023673+140823561+142070366+142826998+142638830+142051297
4017+141902746+142268388+142426539+141887176+141036619+140607013+140914969
4007+141780320+142836439+143767803+144441943+144882693+145096472+145058202
3997+144877416+144756281+144732102+144651361+144432109+144147630+143837343
3987+143504170+143340143+143607003+144183364+144611940+144761839+145032826
3977+145671550+146295743+146383334+145937016+145400096+145121342+145136622
3967+145382776+145865380+146533373+147170610+147539788+147545459+147260577
3957+146924625+146822091+147025736+147430948+148040161+148790186+149183590
3947+148808030+148144744+148050734+148623034+149214356+149353251+149101773
3937+148764605+148762621+149463878+150728882+151806373+152052012+151690600
3927+151507718+151865313+152312566+152380479+152432953+153076505+153986189
3917+153980181+152482133+150416538+149175216+149177443+149846119+150833203
3907+152700870+155944600+159787941+162681749+163901540+163453248+161141612
3897+157513602+154614677+154370497+156602768+158784632+158824587+158072081
3887+158804188+160624173+161665471+162067652+162899335+162996984+160979438
3878+158596820+158309411+160232116+163126110+166088616+167980125+167622390
3868+166168525+165876026+166717722+166588409+164468834+161715662+160222048
3858+161328882+165828886+172810635+177288313+174708151+168525842+163454876
3848+161123048+161643707+164289536+167720825+170925452+173645463+175379700
3838+175139844+173199492+171259476+170172441+169490151+168941964+168953380
3828+169594612+170494246+172168056+175547601+179356930+180443442+178880605
3818+177539173+176684902+174617726+171732583+170124815+171024130+174193406
3808+177726556+179520546+180465094+182785544+185619055+186104194+184576054
3798+183258089+182234232+180843227+179770171+179818921+180621897+181565434
3788+182855047+184977954+187694185+190428867+193255286+196381314+199195512
3778+201151472+203034877+206152185+211081598+217326150+223484524+228494763
3768+232967669+237967521+243530756+249669294+257080003+265644706+273625909
3758+279891496+286015399+294664146+307196367+322210128+335388241+344484625
3748+352938747+363803896+374615410+380178981+382237399+387379496+398368156
3738+413760611+430323398+445183816+456642083+464109272+468444275+471461182
3728+474621887+478344945+482154462+485198766+486809061+487374034+488660428
3718+492297515+498750371+508330061+520941479+533487137+541041644+543351315
3708+544580482+547821994+553806516+561685598+569735986+576777582+582769141
3698+587777658+592031892+596238967+600899030+606089970+610697223+611494436
3688+607586559+604203832+605832055+610951658+614805713+615314095+615595702
3678+619027273+623444093+623909283+621934928+622257069+624251187+623936456
3668+621069859+618857425+619128515+621728401+625654730+629901628+633805949
3658+636757957+638733622+641538089+646947158+654010837+659618723+661245187
3648+660724266+661917316+664876210+667441588+669157279+671312074+673762624
3638+674219393+671922597+669548250+670068048+673579302+677716275+679770987
3628+679431966+679077899+680453596+683996963+689329156+694598619+697503917
3618+698987930+702382559+708145546+713211552+715506626+716347779+717042889
3608+716626317+714245234+710677464+706864841+703326190+701127155+702070187
3598+707129006+714609407+720573531+722542309+722171025+722604963+725016663
3588+728005874+728862222+726143615+720797125+715214989+711406258+709395336
3578+707793874+705980571+704893068+705436670+707354771+710258347+713964899
3568+717369784+719218868+720306071+722062185+723994509+724969129+725204775
3558+725398651+726072876+728102437+731368240+733699394+733649615+732407311
3548+731235970+729588921+726602704+723087034+721050960+721959708+725061426
3538+727323639+726851599+725893222+728007970+733405811+738896547+741018930
3528+738543304+733807711+730813260+731050852+731950467+729999205+725174009
3518+720691279+719031055+719848703+721422094+723014723+725151777+727738639
3508+729047565+727977428+725996224+725013893+724725849+723723007+722024383
3498+721200896+722976173+727656073+733083856+736133625+735702981+733140148
3488+730220553+728261955+728379703+730470870+732062526+730343092+726146160
3478+723804226+726008500+730609578+733444885+732617131+728779956+723533772
3468+719393282+719028285+722802058+728570285+733892223+736972458+736845802
3458+734793934+733846261+735040808+735864669+734018205+731123312+730467577
3448+732761453+735592344+736092979+733488451+729382619+726018456+724631605
3438+725055588+726149678+726618125+726135605+725746805+726415191+727605546
3428+728263602+728466610+729011110+729643865+729170852+727647764+727070627
3418+729245932+733283871+735741232+734007575+729260903+725532867+726294000
3408+731240761+735751787+735607091+732501030+731109838+732043438+732245773
3398+730977718+730598349+732272945+734878670+737089981+738253163+738333932
3388+737804329+736901644+735593692+734470632+734440241+735551772+737436488
3378+740049923+742911805+745007838+745928937+745989495+745521048+744769497
3368+743846827+742601753+740738820+738115953+735420326+733987289+733853148
3358+733306777+731751276+730902263+731579932+732136858+731465103+730913417
3348+732156395+735078760+738077178+739416570+738621528+737293663+737809344
3338+740472109+742590599+741457359+737898198+735023965+734332748+734931219
3328+735697891+736626999+738276368+740821610+743531984+745460340+746666864
3318+747339591+746625468+744131727+740849606+737903213+735771025+734687339
3308+734839371+736366576+739434685+743325906+745723757+744930287+742428611
3298+741069682+741714638+742997140+743376284+742189672+739573168+736490013
3288+733949038+732421384+732108263+732836084+734207664+736330720+739573018
3278+743125068+744945034+744323957+743333092+743965173+744996460+743716353
3268+740055238+736599976+734960038+734425120+734145459+734635464+736607611
3258+739510888+741671447+741715836+739776027+737356842+736065656+736236926
3248+736791307+736829933+736965646+737944833+738682835+737259679+733465171
3238+728865366+725164203+723826907+725922716+730976146+736492558+739617482
3228+739652590+738595179+738718466+739999695+740448754+738786959+735929868
3218+733557244+732464800+732765570+734414940+736711212+738081070+737485518
3208+735441435+732850906+729950998+727229920+725919347+726490795+727692378
3198+727931018+726897860+725371703+724309801+724283676+725025720+725634521
3188+725625464+725327239+725093764+724824658+724230678+723016744+721259283
3178+719674365+718576831+717254656+715500339+714779554+716316415+718957173
3168+720682745+721305095+721942117+722739629+722716947+721221556+718640384
3158+716133093+714825814+714969387+715827982+716335428+715631860+713278773
3148+709872616+707154158+706460770+707170926+707413683+706310460+704827270
3138+704472903+705794031+707889240+709068666+708488385+706754653+704854293
3128+703435254+702855422+702913061+702619253+701351423+699805803+698636782
3118+697342528+695754915+695082112+696169390+697848777+698091908+696309969
3108+693709634+691777834+691074640+691225848+691673934+692441804+693860094
3098+695477500+696109656+695249564+693605734+692090431+691010713+690247859
3088+689484930+688117617+685622379+682366308+679685502+678732889+679299621
3078+680030662+679689095+678146994+676424041+675912029+677188692+679376274
3068+680915156+681110155+680490949+679746135+679152680+678745839+678159420
3058+676593964+673869817+671036980+669112141+668120304+668001134+668975230
3048+670316120+670672058+670164462+670046714+670369716+670043421+668751113
3038+667164921+665929803+665499233+665846189+665637192+663280437+659399920
3028+656505926+655944882+656654364+656938442+656309804+655279640+654222379
3018+653069452+651874008+651076046+650885164+650761054+649890108+648108693
3008+646183032+645206764+645600580+646542863+646751860+646055328+645436796
2998+645261184+644688314+643311344+641958403+641289493+640853983+640092102
2988+639238448+638673288+638220561+637485254+636236138+634324474+631805656
2978+629186607+627074517+625714727+625229887+625812077+627219812+628531919
2968+628825428+627863982+626106746+624515914+624027593+624632164+625278730
2958+624962353+623503715+621230162+618650562+616599442+615871695+616196120
2948+616083612+614532116+612352768+610965543+610482201+609851691+608598009
2938+607449836+607129378+607217484+606563956+604685304+602446184+601228021
2928+601742167+603690772+605942916+606865812+605374837+602124342+598966482
2918+596992463+595733616+594223740+592173294+590113229+588798801+588398062
2908+588273277+587796671+586973296+585888114+584324005+582474622+581126920
2898+580643203+580567262+580450637+580239619+579832966+579054055+577975161
2888+576781961+575593216+574617099+573927004+573149741+572039145+570931618
2878+569971594+568685986+566974000+565534039+564870930+564909294+565646809
2868+567018352+568132840+567815826+565918460+563306859+560829548+558873233
2858+557616744+557091369+557058096+557248491+557576172+557743699+557091070
2848+555448737+553600102+552235333+551029933+549288004+547008163+544890459
2838+543534749+542902668+542608934+542562673+542881671+543216126+542851167
2828+541638917+540180916+539032892+538196306+537313832+536120409+534655072
2818+533119558+531652462+530236230+528792302+527441682+526583836+526472638
2808+526735643+526626616+525790067+524519280+523308939+522387391+521617463
2798+520696888+519499572+518228224+517150677+516249078+515270976+514077627
2788+512756725+511409061+510075957+508908620+508124470+507709021+507406866
2778+506990219+506295147+505127549+503437907+501561276+500065997+499287685
2768+499036694+498797905+498195167+497165752+495783804+494199223+492695485
2758+491491244+490475828+489351047+488035384+486770847+485828115+485222196
2748+484729533+484076755+483096033+481840105+480593010+479564568+478517151
2738+477045638+475314639+474028057+473471393+473059949+472103631+470652292
2728+469304965+468426908+467777049+466843823+465466779+463990251+462734884
2718+461658385+460697351+459940074+459232239+458177747+456784571+455593094
2708+454980774+454711781+454247114+453316995+452164031+451188475+450401368
2698+449499619+448450667+447556030+446910549+446247440+445361412+444332633
2688+443297192+442274589+441271074+440366556+439621780+438962863+438210227
2678+437239536+436139270+435124639+434196691+433072621+431676713+430483065
2668+430023750+430154785+430119790+429411543+428380033+427755924+427671524
2658+427524133+426782014+425493486+424021749+422694858+421652905+420777992
2648+419897091+419047591+418309402+417573721+416790881+416168119+415834487
2638+415573952+415083535+414313084+413466092+412750060+412168956+411607276
2628+411058322+410597698+410151147+409492716+408526742+407442008+406510355
2618+405829281+405360572+405070319+404842309+404419188+403676769+402821019
2608+402130439+401665510+401321548+400947757+400397081+399687150+399075879
2598+398743969+398465730+397834473+396767555+395572597+394587085+393956276
2588+393669654+393617517+393670178+393782686+393939209+394030945+393929890
2578+393603145+393039257+392225389+391302344+390517969+389927770+389386488
2568+388905915+388725775+388928372+389282214+389595860+389883605+390029798
2558+389736626+389025048+388331286+387904908+387551776+387096766+386652648
2548+386329458+386075511+385866064+385768490+385810447+385906823+385859851
2538+385462443+384779759+384219165+384091162+384236719+384274933+384037940
2528+383620470+383236311+383140795+383454178+383943397+384143187+383799824
2518+383124102+382531619+382190839+381958712+381757350+381767381+382109508
2508+382561973+382792903+382710974+382407658+381911029+381212326+380436634
2498+379785428+379361520+379200880+379369455+379795421+380065575+379727414
2488+378889817+378195531+378015091+377993570+377652940+377112145+376815717
2478+376836676+376885482+376794682+376606720+376338362+375983022+375673232
2468+375609904+375822158+376128317+376341656+376386644+376210509+375769534
2458+375135507+374449530+373815165+373385868+373371833+373752998+374176568
2448+374322949+374201009+373987670+373779833+373588652+373409485+373193003
2438+372827819+372249859+371549172+370909643+370468219+370249678+370174336
2428+370118756+370015418+369876897+369732987+369617560+369571224+369569240
2418+369516654+369367729+369197358+369151658+369327419+369641588+369873117
2408+369908748+369827268+369708472+369542816+369329890+369130848+369090127
2398+369400254+370027544+370558533+370593790+370177817+369641663+369226402
2388+368968898+368686393+368003859+366585906+364357603+361418021+357860245
2378+353819536+349604939+345583356+341849145+338118900+334104878+329950015
2368+326172238+323246280+321296926+320136701+319634158+320025765+321739960
2358+325031550+329924377+336393740+344450378+353676188+362571996+369028596
2348+371614484+370457852+367366052+364507726+362343350+359794552+356147959
2338+351697416+347069765+342715262+338989247+336232725+334488738+333402919
2328+332707099+332490167+332778099+333305682+333942404+334942550+336499585
2318+338332164+339971465+341315573+342638872+344052334+345290671+346204658
2308+347094318+348279919+349636041+350798025+351606878+352147299+352514016
2298+352729376+352830843+352924600+353132624+353502148+353970595+354409811
2288+354694973+354771363+354713725+354680751+354740560+354817999+354884246
2278+355025948+355195832+355122960+354658257+353996645+353402703+352933732
2268+352565592+352389606+352506456+352800639+352985120+352915392+352715752
2258+352540815+352421233+352412737+352606575+352888781+352972956+352762650
2248+352454469+352275152+352310671+352544258+352868982+353081497+353034600
2238+352845215+352828111+353154070+353672445+354123488+354414714+354612370
2228+354772524+354890272+354988295+355167425+355494581+355871442+356131266
2218+356258184+356381883+356576395+356794375+356979643+357158173+357425333
2208+357853058+358379294+358830711+359117108+359368549+359800353+360444823
2198+361100596+361597114+362014958+362520271+363067541+363451063+363626974
2188+363807526+364222189+364892821+365632469+366191716+366448172+366549825
2178+366847901+367586015+368651810+369714236+370575637+371285718+371962825
2168+372669275+373466974+374473820+375829007+377613865+379772627+382132152
2158+384554556+387048185+389698749+392539446+395507210+398489946+401413209
2148+404238037+406851285+409118588+411137819+413228014+415560665+418001072
2138+420365126+422677641+425188337+428161828+431538417+434880685+437839504
2128+440510241+443155415+445809086+448281156+450326737+451761121+452527306
2118+452597071+451838259+450168230+447780297+445030812+442175293+439286052
2108+436296916+433119256+429816775+426605243+423621459+420806213+418027720
2098+415171042+412115172+408807750+405389916+402108768+399099982+396356822
2088+393869780+391663448+389709827+387933465+386317519+384915173+383736234
2078+382694505+381695781+380730256+379848381+379088147+378467856+378011124
2068+377711177+377493011+377281955+377079508+376888140+376627268+376249134
2058+375852399+375548822+375310370+375055711+374787765+374576185+374471687
2048+374437553+374374337+374316923+374509077+375070981+375744944+376236446
2038+376632021+377214548+378038970+378916466+379712668+380503555+381420649
2028+382396655+383158723+383491905+383394743+382984197+382389843+381693161
2018+380819783+379597016+378068725+376594705+375473143+374620350+373762392
2008+372801320+371837292+370945836+370108276+369324463+368654542+368113672
1998+367638975+367262713+367164877+367328549+367332890+366843971+366103124
1988+365517791+365086135+364591265+364035986+363582398+363290947+363089922
1978+362887625+362675971+362532734+362481608+362455109+362471914+362645430
1968+362900163+362910943+362482169+361796417+361175452+360775947+360572340
1958+360487491+360454667+360402567+360242189+359924763+359538583+359265809
1948+359222617+359460172+360015638+360659547+360762099+359932399+358626617
1938+357633956+357274237+357336779+357489784+357597127+357721836+357878584
1928+357989633+358193726+358777675+359619278+360254577+360605538+360895679
1918+360920568+360289947+359267943+358565048+358549366+359042178+359557821
1908+359681108+359387300+358937043+358511489+358137809+357862790+357816753
1898+358094543+358532336+358741333+358684480+358899877+359614636+360121409
1888+359715766+358717641+357848342+357363615+357210947+357339923+357631897
1878+357900891+358018003+358006587+358237218+359369072+361592398+363826727
1868+364300713+362594528+360157415+358479263+357918819+358038850+358319147
1858+358492176+358507185+358424132+358395313+358660302+359373639+360524395
1848+362227510+364626634+366898915+367193547+365121168+362712912+361653667
1838+361799898+362188960+362489318+363377368+365493537+368153795+369656260
1828+369462347+368671197+367898125+366792657+365499264+364821408+365030593
1818+365608029+366074866+366598519+367634970+369127592+370336099+370680622
1808+370494344+370603184+371580050+373525661+376004319+378082312+378991509
1798+379022723+379408342+381218502+384230656+386534750+386351653+384634015
1788+383692930+384473600+386418387+388725850+391039002+393059767+394465407
1778+395611934+397623904+401375444+406305962+410099234+410876236+409617014
1768+408253781+407690043+408436279+410734497+413682537+415829921+417166207
1758+418645729+420326425+422032460+424614045+428819772+433600803+436741147
1748+437564260+437450816+437858031+439361357+441728405+444037028+445496301
1738+447022159+450678820+456698188+461497483+461614857+459177819+457365488
1728+456948804+457855381+459934272+462826321+466689134+472523047+480727488
1718+489186926+493763862+493245973+490746169+489189583+489736965+492628190
1708+497516114+503224044+508388523+513381769+519963715+528031095+534316986
1698+537064339+537873678+537403285+536288946+536775358+540112049+545598070
1688+552549727+561675492+572642781+580683475+582074743+580728501+581202824
1678+584870377+591236738+598590407+605376072+612043951+619275195+625209189
1668+627683505+628702141+631733870+637253202+642883020+646819604+650262964
1658+655445371+663864311+676241618+690095678+697409599+697516717+698825044
1648+704094284+709727620+711371600+710266506+710197115+712809203+718141021
1638+725386375+732050250+733983996+730599547+726438022+724634450+725018384
1628+725967105+726475375+726708999+726322969+724406739+721855583+720555041
1618+720083376+717548988+711952031+706137618+702107016+699376057+696705956
1608+693427054+689833982+686622076+684088512+682042108+680317958+679122737
1598+678749732+678957306+678848691+677706319+675815989+674049770+672835686
1588+671944829+671135265+670485743+670017895+669693396+670108545+672305034
1578+676133826+678997130+678376501+676598530+677580187+681662739+686055868
1568+688596319+690599531+694062952+699472995+707340399+719012491+733296671
1558+742522555+743938899+744660657+748556669+755241055+763586487+772783851
1548+782114234+791220948+800326689+809921012+820213739+828827679+830055611
1538+824399218+819432321+818552618+820248248+821857869+822886685+824783602
1528+828268806+832897506+838420580+845116119+852133986+857215337+859797708
1518+861488996+862794778+863385689+864236797+866885789+871706418+877999608
1508+884203420+886686906+882892997+876962932+873865630+875172160+879988972
1498+885028329+886323107+883816641+881481818+882046604+885083947+888587491
1488+891073896+892328252+892579318+892212900+891865569+892228020+893885549
1478+896897142+900328001+902827955+903614763+902587968+900472772+898970269
1468+899488869+901996084+904962689+906728533+907666250+909489659+912667731
1458+915448992+915587850+913902849+912517495+911613538+910958402+910867078
1448+911201458+911147188+910380516+909234925+908114037+907768802+909121893
1438+911842073+913787646+913579547+912839674+913345024+914556114+914679177
1428+913326311+912139250+912328934+913399894+914702681+916463960+918097236
1418+917581555+914612555+911293081+909136789+908371765+908776359+909942685
1408+911321002+912279829+912122033+910775604+909336879+908809970+908802484
1398+908319590+907292047+906232166+905048249+903540057+902246476+901435341
1388+899879241+896043787+890874855+887483220+887941636+891854865+897208916
1378+902079923+905887530+908941865+911178552+912440394+913594369+915685985
1368+918405865+920660068+922148199+923248053+924050880+924560871+925100506
1358+925730117+926075725+926169444+926615210+927572165+928572236+929703829
1348+931795970+934978607+938158550+940300021+941357282+941873187+942426820
1338+943415738+944807903+946090629+946622105+946059489+944653176+943134954
1328+942215951+942333400+943707675+946136366+948826229+950872034+951855413
1318+951828016+951048694+949961340+949162032+949144216+949976985+951267047
1308+952419750+952910428+952535402+951481584+950170936+949219221+949261440
1298+950214278+950997792+950671870+949444836+947931704+946177986+944130010
1288+942146710+940318510+938001578+934617429+930523498+926630855+923315348
1278+920178148+917026351+914550575+913473552+913475573+913567495+913150699
1268+912083033+910084163+906926302+903127378+899746073+897425997+896006135
1258+894907479+893450338+891090140+887994784+885232311+883905869+884145706
1248+884980721+885060816+883943671+882935440+883921364+887147343+890775971
1238+892738536+892457678+890827846+889365391+889293754+890706055+892664803
1228+894355867+895754321+897110555+898378385+899433700+900509152+901986054
1218+903885591+905846360+907561228+909064179+910599843+912310968+914123972
1208+916074262+918688895+922332568+926118468+928674639+930037086+931346386
1198+932891108+934149656+935434927+937551845+940022681+941599215+942220293
1188+942786052+943609464+944609011+946447242+949622843+952911402+954642439
1178+955138956+956020531+957741463+959541367+961061460+962794219+965462973
1168+969167205+972535934+973533086+972050270+970399179+970650844+972978929
1158+976507700+980358499+983842056+986292980+986893622+985317087+982830083
1148+981485600+982061615+984092973+987397850+991610576+994841945+995521784
1138+995201701+996946362+1001303784+1005617341+1007500934+1007166628+1006060037
1128+1005390304+1005926046+1008025971+1011474796+1015391169+1018830861
1120+1021326024+1022540258+1022187238+1020638101+1018727635+1017021300
1111+1016011348+1016413547+1018472976+1021512864+1024507838+1026621912
1103+1027502139+1027784794+1028596304+1029813308+1029905829+1028469649
1094+1027596907+1029332959+1032998790+1036220427+1037784985+1038437876
1085+1039348945+1041245188+1044488384+1048366655+1050775061+1050180333
1077+1047791764+1046490398+1047698119+1050223225+1052254882+1053421882
1068+1054610515+1056978049+1060858267+1064894259+1066854953+1066032140
1060+1064361961+1064186649+1065302073+1065791254+1065462039+1066098762
1051+1068487705+1070945890+1071463666+1070140218+1067812357+1064447596
1043+1060996900+1059897570+1061743285+1063996141+1064462716+1064121674
1034+1064862595+1066290841+1066580907+1065280589+1063818134+1064182607
1025+1067209844+1071380876+1073741823+1073046938+1071084073+1069855617
1017+1069088496+1067718413+1066051528+1064890217+1064040231+1063141814
1008+1062670897+1062920241+1063032899+1061602108+1057748539+1052101279
1000+1046956225+1044424008+1044402001+1045352967+1046546166+1048121353
991+1049554989+1049452137+1046802097+1042293466+1038103272+1035489911
983+1033470006+1031034278+1029320009+1030183319+1033563501+1036872196
974+1036683410+1031677737+1023887884+1016169593+1009711122+1004694371
965+1001025695+997637130+993244076+988123949+983472793+979622294+976272353
955+973549479+971824655+971028640+970737227+970547842+970221547+969842253
945+969638870+969283231+967809697+964617179+960300403+956139252+953182454
935+952029901+952816784+954825760+956670278+957396153+956936465+955491376
925+953070395+949979306+947482570+947160017+949308824+952486147+954802480
915+955439352+954949047+954249821+953379923+951604646+948844120+946093249
905+944070724+942735375+942187506+942662690+943763816+944843983+945905586
895+947050204+947313471+945432199+942053215+939495098+938535374+937322188
885+934714067+932434638+932419817+934202579+936121728+937090660+936367554
875+933558521+929564672+926318183+925321554+926747929+929425665+931740427
865+933019261+933612716+933874412+933844694+933668184+933455594+932862663
855+931733764+930817906+930750985+931035212+931066127+931104902+931490708
845+932050554+932708535+933551335+934125178+933792070+932679865+931218308
835+929586680+928558013+929479636+932508371+935864973+937553941+937091408
825+935414866+934137978+934449528+935884660+936908685+936981146+937069251
815+938310807+940946699+944283240+946941064+947865831+947592234+947467225
805+947795018+947744490+946953416+946328745+946673680+947019663+945492608
795+942088173+939214090+938969087+941078145+943442162+943998639+942608270
785+941261841+941785157+943700339+944926474+944251651+942431535+940853728
776+939859121+939180554+939481699+941830594+945595534+948434285+948622322
766+945946607+941077172+935851873+933022854+934026893+937343447+939981061
756+940563064+940073133+939723408+939557378+939538963+940441648+942611488
746+945038833+946381444+946292216+945791656+946395067+948494244+950949734
736+952764909+954041123+954436211+952810571+949529273+947062630+947066448
726+948253733+948537511+947709757+946819723+946170126+945012409+942695402
716+939505203+936899328+936594816+938629692+940607153+939928662+936891019
706+934067389+932984977+932953313+932580681+931552314+930771944+930765357
696+930561600+929127815+927369605+926702641+925522018+920385872+911490925
686+903212638+899156809+899660962+902724130+905018231+903542602+898768458
676+894477657+892857257+891686814+887228786+878763136+871515237+872390524
666+878494104+882163004+881119367+877851543+875453318+874252783+872117151
656+867746479+862800617+860277532+860939630+862134851+861129988+857720987
646+853412221+850139981+849883750+853222162+857611473+859879974+859722552
636+858468496+856241390+852565903+848215292+843995754+840069276+837712446
626+838529720+841396242+842572748+840566841+837942477+836185840+833471424
616+828981881+824904269+823552900+824892068+827381168+830335646+832238926
606+829498086+821665190+814732734+814723601+820208949
##END=
