##TITLE=<SNM>
##JCAMP-DX=4.24
##DATA TYPE=INFRARED SPECTRUM
##DATE=2/5/2025
##SAMPLING PROCEDURE=Instrument type and / or accessory
##ORIGIN=Admin
##XUNITS=1/CM
##YUNITS=ABSORBANCE
##RESOLUTION=4
##FIRSTX=4497.3318
##LASTX=599.83466
##DELTAX=-1.4281778
##MAXY=1.7647144
##MINY=0.31066084
##XFACTOR=1
##YFACTOR=1.6435183e-09
##NPOINTS=2730
##FIRSTY=0.33021262
##XYDATA=(X++(Y..Y))
4497+200918127+201789756+203174900+204058134+203700456+202190156+200201356
4487+198488689+197734346+198275097+199654439+200914917+201428832+201105189
4477+200191201+199336201+199364906+200513230+202055644+202871041+202388461
4467+201016427+199697324+199186910+199719682+200950295+202113833+202710979
4457+203057832+203589390+203928336+203454823+202379521+201488671+201232684
4447+201549218+202078147+202252317+201725854+200851995+200253725+200030849
4437+199993204+200313365+201035775+201374450+200620252+199356673+198714212
4427+198905862+199321349+199575868+199841792+200304335+200609680+200087062
4417+198644907+197046371+196086614+195957397+196499871+197455801+198317928
4407+198543379+198107329+197570149+197498160+197844052+198012165+197638892
4397+197030359+196560726+196049151+195192446+194313418+194164998+194991239
4387+196184153+197011246+197361073+197534282+197593686+197275774+196395858
4377+195196707+194308033+194152141+194393295+194409035+194181789+194088566
4367+194056561+193681293+192988313+192466058+192415012+192602601+192578175
4357+192300465+192330820+193100304+194184074+194804829+194812699+194518143
4347+193872599+192606735+191028472+189968457+189851588+190221107+190307766
4337+189878443+189397405+189425892+190069169+190929174+191385461+191098394
4327+190401007+189973153+190033265+190164677+189994623+189666937+189552263
4317+189777677+190184551+190611045+190978606+191111685+190881774+190587417
4307+190638934+190890351+190995179+191210493+191986977+193050329+193705610
4297+193719464+193304521+192676059+192020778+191513246+191228736+191235590
4287+191533864+191796252+191641013+191231419+191040440+191026223+190639024
4277+189755844+189035030+189021829+189455105+189878842+190351739+190979240
4267+191384192+191387764+191564074+192311689+192982583+192692161+191506156
4257+190247999+189617724+189834652+190640783+191461802+191905940+192103302
4247+192329569+192536868+192564340+192483103+192397478+192223108+192009680
4237+192137683+192822013+193701149+194195480+194006096+193164314+192033761
4227+191319565+191439480+191827659+191617023+190967037+190840049+191546992
4217+192398946+192809338+192896758+192948112+193020155+193088572+193054391
4207+192751602+192348971+192364511+192898608+193394389+193455770+193260294
4197+192990054+192586245+192202654+192184811+192468723+192580823+192377241
4187+192309676+192792837+193580472+193956302+193560653+192862432+192632575
4177+193041915+193524024+193533072+193176536+192940460+193035079+193266876
4167+193482009+193821191+194387928+194913955+194995627+194597675+194120589
4157+193988978+194318604+194977004+195775176+196453468+196697287+196411435
4147+195787216+194944292+193869045+192824842+192379635+192833038+193797201
4137+194491088+194577747+194560012+194964511+195457590+195436954+195073074
4127+194915116+194966650+194890980+194625963+194315250+194034221+193823295
4117+193743690+193852925+194132068+194347454+194217475+193857621+193639696
4107+193507051+193011959+192210107+191856817+192364747+193135247+193419649
4097+193406103+193779576+194541807+195018584+194785735+193981997+193055007
4087+192625576+193088554+194012261+194427404+193917769+193018578+192503485
4077+192677020+193346880+194108186+194566196+194519249+194060441+193469243
4067+193035695+192933714+193098364+193235451+193097729+192763316+192529687
4057+192531809+192559317+192289367+191658113+190965096+190679933+191149058
4047+192287391+193496516+194080878+193787228+192882397+191948861+191633615
4037+192099403+192726415+192912970+192984342+193634147+194749541+195535635
4027+195621279+195434923+195572917+196131784+196624283+196477839+195670873
4017+194799172+194407947+194436452+194409071+194028926+193559873+193614273
4007+194404066+195294844+195506876+195153441+194977966+195150159+195080781
3997+194507571+194009324+194195226+194964855+195793635+196259950+196220383
3987+195942237+196005196+196636450+197305440+197359078+196857114+196483424
3977+196812506+197780731+198703568+198877992+198289531+197531761+197047803
3967+196849280+196976938+197679185+198913315+200097888+200664080+200610533
3957+200309376+200047405+199994474+200441621+201689696+203468223+204793455
3947+205088810+205153763+205989814+207028052+206675850+204600064+202237085
3937+201139044+201928983+204383300+207497630+209585238+209506848+208115666
3927+207334902+207814980+208369332+207922619+207178394+207478445+208882702
3917+209875280+208837441+205921706+202918024+201325200+201379672+203087280
3907+207284637+214552895+223084280+229044007+230323634+227883842+223062030
3897+217100109+212512379+211802191+214746740+217635874+217156739+215316940
3887+215983065+218967797+221053320+221668345+222730065+223282458+220959625
3878+217605519+216999397+219897742+224675417+229808686+233248925+232675697
3868+229811986+228855076+230150987+230012739+226565881+222460369+221034135
3858+223991703+232285415+244984943+253962605+249513577+236831819+225457015
3848+219293833+218918076+223058929+229249710+235471336+241068017+245187764
3838+245930864+243084996+239085799+235580026+232268080+229054832+226968457
3828+226490265+227165819+229736280+235967371+244214534+248117788+245693391
3818+242037420+239203720+234727637+228556512+224089859+224000970+228606034
3808+235277111+240172742+243470999+248065782+252763979+253181298+249997807
3798+247028687+244166354+239910227+235753163+234185362+235598178+239027066
3788+243818540+249387750+254578410+259028979+264199294+271062129+277847155
3778+282498024+286379554+292690667+303354303+318308393+335124766+349743971
3768+360371250+368517357+375518240+382200523+389973847+398558778+404796687
3758+407082927+408895671+415398326+429638292+450330212+470076483+482496052
3748+491730697+504314372+518711626+526111586+525888656+527265187+535837026
3738+550857411+566553730+575622420+575339759+569220369+563137281+561231332
3728+564223572+569367248+572236689+570576119+565459824+558805140+552525633
3718+548774082+548912221+552679584+558337520+562712456+562265217+556386201
3708+548352049+542796240+542793991+547587334+552797233+554735713+554056405
3698+553407816+554881069+560047122+569327174+580712169+589500736+590633956
3688+584195928+576018378+571202224+571492682+575858805+581474925+586779335
3678+592747530+598149098+598171982+594271847+592543314+592209336+586818032
3668+575601241+564666748+557734952+554188814+552114444+551202631+552530457
3658+555387531+556649931+556027888+558383071+567354385+579815117+585141685
3648+576467901+561428042+549953396+545164696+544833546+545049114+544116920
3638+543395906+544360522+546869547+550968495+558242284+568947391+577234357
3628+574790104+564422892+555793317+554261964+560696945+572273572+582817946
3618+587841980+589325678+590750444+592280672+593237672+594565715+596424626
3608+596672109+594285520+591567564+591391563+594675095+600150718+605485846
3598+609138607+611410413+613025359+613917660+615061796+618688735+624773745
3588+628778363+626515262+620895478+617756686+619303524+623467788+626284897
3578+625541506+622656144+620596280+621063175+624464827+630576674+637611793
3568+641668998+639842255+634238574+629098089+626254723+625111531+624256657
3558+622980802+622210937+623644043+627202874+630317586+631233750+631307951
3548+631811330+631152948+627617038+622319228+617542496+614483563+613242378
3538+613136480+612827997+611556204+609984559+609299848+609910358+611142403
3528+612117246+612664653+613112617+613521775+613669742+613159836+611158941
3518+607408695+603675858+602685674+605248010+609166677+611135440+609754267
3508+606665994+604318899+603332341+602792696+601994398+600737365+598958022
3498+597243596+596780038+597716838+598429293+597474034+595500194+594321605
3488+594663018+595583570+595900358+595229537+593416248+590066530+585534814
3478+581560007+579700624+579452815+578965792+577603260+576533326+576782803
3468+578090174+579582685+580581428+580785681+580427549+579861828+578745364
3458+576627075+574079571+572005708+570413391+569008718+568207192+568367925
3448+568823613+568751661+568217963+567555012+566714499+565992433+566151752
3438+567000497+567012827+565127333+562115292+559796557+559390336+560565080
3428+561616954+560957665+558924892+557496754+557798999+558690465+558526577
3418+557412978+556409811+555602373+554632245+554067140+554594999+555757558
3408+556620773+556873514+556538412+555428693+553631145+552010214+551600620
3398+552434423+553301700+552943060+551073958+548186311+545144096+542969086
3388+542244772+542762730+544020234+545441155+546106210+545480939+544453510
3378+544432729+545389983+546054820+546017285+546078502+546495059+546583042
3368+546242536+546079736+545910298+544952718+543420749+542316942+541876231
3358+541462793+540890544+540826643+541584830+542393609+542399267+541721990
3348+540921081+540229733+539964842+540728288+542683233+545263014+547610907
3338+548834321+548307804+546320182+544019182+542458417+541826546+541548527
3328+541071986+540480661+540266471+540791609+542109461+543807749+544762718
3318+543873609+541488543+539203173+538052329+537695865+537445445+537332983
3308+537803504+538870718+540013222+540673925+540607122+539918675+539014696
3298+538478569+538720865+539649723+540764700+541441759+541257561+540271766
3288+539033555+538221875+538160838+538590306+538925118+538997579+539460919
3278+540860915+542521557+543423868+543860299+544592120+544911701+543540428
3268+540949731+539044544+539028006+540550328+542156499+542312916+540972108
3258+539750761+539689797+539837438+539005557+537782760+537582641+538585265
3248+539600654+539523298+538369080+537007818+536173398+535773524+535244323
3238+534484286+534028779+534247248+534910853+535702115+536351358+536216156
3228+534670043+532062990+529557737+527983699+527407062+527581685+528206593
3218+528889890+529328714+529354608+528712148+527352734+525940952+525333271
3208+525491284+525476233+524559271+522920099+521297137+520352068+520224374
3198+520348079+519960463+519018767+518180213+517767246+517341587+516509851
3188+515694145+515668940+516386327+516661227+515397703+512858432+510200025
3178+508133307+506673617+505773156+505358993+505045142+504637398+504511481
3168+504753886+504593516+503421455+501703475+500282735+499521864+499395729
3158+499529698+499092542+497535041+495376532+493618912+492663363+492269763
3148+492135214+492018980+491625851+490845251+489936993+489089663+487995611
3138+486299972+484325152+482884502+482412530+482615514+482903143+482827963
3128+482190905+481119231+480065471+479381594+478904472+478319276+477812198
3118+477838274+478255520+478287180+477500270+476301517+475316265+474696943
3108+474148303+473410352+472619815+472184871+472278729+472517399+472302193
3098+471511548+470621931+470047651+469668267+469151832+468375113+467374629
3088+466312021+465502117+465029275+464579534+464086672+463972723+464287262
3078+464355806+463717117+462683522+461692649+460825336+460124812+459770380
3068+459750977+459758412+459578820+459307800+458988474+458349567+457205649
3058+455854215+454832334+454457121+454645525+454922420+454695138+453790652
3048+452524770+451185666+449900635+448960462+448619521+448596963+448393037
3038+447970242+447605909+447328507+446947999+446376946+445639068+444923639
3028+444660490+444912433+444805338+443432506+441242046+439614660+439218739
3018+439533858+439747758+439435540+438520645+437257592+436250362+435987503
3008+436311181+436576217+436303638+435491232+434372230+433087634+431632006
2998+430125242+429048599+428877892+429412787+429828219+429496889+428496405
2988+427323728+426415035+425945275+425866395+426029341+426221372+426119680
2978+425423074+424147762+422665950+421411383+420653232+420455036+420608044
2968+420635353+420133171+419168554+418148124+417316098+416614632+415969487
2958+415416532+414953953+414487566+413918363+413227051+412557608+412192622
2948+412214201+412205678+411633356+410583333+409787755+409768207+410276373
2938+410758971+410982482+410904509+410332550+409188959+407898633+407036107
2928+406619405+406105872+405149742+403969884+402783825+401457595+400072324
2918+399148036+398875022+398790412+398514787+398167209+397946491+397901666
2908+398037121+398245254+398312384+398133916+397713987+397000371+395998581
2898+394937932+394078706+393476755+393054250+392721614+392337189+391718555
2888+390818203+389845355+389137469+388877075+388941412+389050538+389025333
2878+388804216+388309033+387543774+386768940+386283187+386054454+385800190
2868+385328290+384621203+383768904+382955700+382321254+381813777+381353229
2858+380986139+380683351+380242676+379590170+378927980+378411291+377944686
2848+377472460+377173624+377164050+377243909+377129416+376752317+376183041
2838+375463369+374667465+373923965+373267759+372625299+371989293+371467708
2828+371112369+370813207+370429834+369931061+369344922+368693431+368062720
2818+367604058+367377501+367289301+367167518+366829732+366200544+365408267
2808+364611528+363785849+362857971+361912394+361077286+360368276+359787395
2798+359419653+359324345+359408918+359444278+359186460+358536347+357616519
2788+356665902+355873769+355315447+354963045+354685462+354301109+353733140
2778+353091114+352553608+352180753+351832485+351294943+350526674+349686778
2768+348882315+348104181+347452073+347108485+347006213+346840512+346453983
2758+345921047+345306113+344638084+344042479+343614535+343241425+342773043
2748+342246490+341746991+341255327+340830791+340634082+340558647+340197868
2738+339383359+338410075+337613373+337034995+336538362+336018373+335466542
2728+334913586+334359036+333839047+333489510+333327399+333065519+332427591
2718+331555164+330823814+330320979+329769039+328983326+328175308+327671458
2708+327506119+327452554+327313399+327029178+326616321+326119470+325597813
2698+325106474+324642190+324118865+323518908+323059521+322990759+323195411
2688+323220617+322780631+322063099+321465790+321130796+320813174+320189391
2678+319238157+318281410+317663067+317422221+317321037+317148772+316854106
2668+316426851+315911613+315505355+315336281+315184433+314706296+313886093
2658+313066615+312597290+312533063+312610745+312532627+312281264+312014996
2648+311723195+311288469+310824947+310557844+310398707+310062190+309577634
2638+309209855+308923712+308452212+307841230+307408752+307219260+307049895
2628+306775684+306413708+305905941+305195916+304453468+303954224+303740342
2618+303593753+303362155+303123703+302981683+302870345+302649446+302286636
2608+301886272+301565441+301319753+301041499+300667664+300236183+299814476
2598+299454513+299170782+298910189+298629070+298384343+298234599+298110930
2588+297898916+297575129+297185101+296759677+296303499+295823095+295323687
2578+294787596+294230270+293770792+293511142+293367400+293207737+293098575
2568+293199015+293489636+293762251+293778100+293402869+292739409+292099995
2558+291725543+291599680+291560748+291461288+291243652+290979542+290790865
2548+290688811+290538849+290165486+289499796+288726812+288229472+288226244
2538+288512532+288673537+288499657+288142450+287913935+287960138+288149703
2528+288293264+288361917+288409462+288412545+288291505+288005181+287578796
2518+287102273+286694293+286412448+286244208+286210987+286392374+286783218
2508+287185033+287304132+286960725+286244044+285505967+285092275+284987664
2498+284884577+284679744+284621264+284850305+285132966+285187529+284991635
2488+284680795+284379421+284174823+284085717+284027418+283885362+283636447
2478+283376217+283203425+283087137+282905949+282620006+282325196+282134452
2468+282076716+282089772+282052236+281865699+281570345+281351676+281368703
2458+281578777+281772096+281769448+281560426+281286923+281123343+281110649
2448+281106696+280995975+280901754+281024806+281320070+281522147+281461401
2438+281175022+280735908+280183678+279657415+279391871+279456426+279626099
2428+279642854+279515323+279439217+279526801+279760683+280115805+280534338
2418+280818450+280756960+280412936+280122152+280102169+280186815+280093954
2408+279861087+279801900+280038757+280316431+280366932+280263464+280280419
2398+280546125+280957514+281334305+281541803+281520696+281320016+281093006
2388+280938547+280694129+279976977+278490776+276222361+273309437+269832931
2378+265835946+261497331+257145008+253018352+249124111+245440922+242095918
2368+239169539+236581272+234384864+232914584+232499043+233288564+235417099
2358+239084385+244393110+251351726+260051604+270088120+279634621+286174812
2348+288320228+286723959+283665878+281198976+279362133+277112142+274243716
2338+271407422+269031350+266906098+264712972+262605708+261036040+260171773
2328+259768326+259465302+259023848+258511402+258364577+259030448+260477789
2318+262201155+263683675+264761479+265576224+266314392+267108138+268102421
2308+269374830+270750328+271884327+272583907+272940661+273151641+273315856
2298+273437475+273550718+273741679+274026915+274307889+274510238+274693493
2288+274965655+275335772+275675444+275819858+275730134+275524503+275296895
2278+275001142+274620978+274312114+274212472+274233924+274183949+273982869
2268+273662636+273274947+272893696+272626393+272549309+272650003+272844337
2258+273027392+273123099+273136609+273166311+273296834+273446470+273424782
2248+273216141+273068319+273170373+273383819+273448972+273319809+273124115
2238+272939700+272796737+272778876+272958232+273305157+273733900+274138924
2228+274379915+274365880+274175807+274008655+274008383+274161699+274332315
2218+274380368+274267652+274061604+273882610+273853452+274013623+274255466
2208+274424813+274484435+274510383+274572562+274674870+274749271+274689594
2198+274468242+274212617+274092249+274150348+274297825+274442438+274577132
2188+274731754+274852141+274800552+274539324+274238874+274106175+274175118
2178+274344301+274522533+274653165+274686131+274615230+274508244+274464452
2168+274549751+274767585+275086785+275473331+275852461+276081792+276063532
2158+275863631+275645126+275520351+275508528+275566754+275634753+275712690
2148+275872843+276131659+276380519+276535994+276664033+276828392+276913728
2138+276783640+276562015+276540854+276808319+277162878+277398157+277498960
2128+277565364+277705479+277993580+278414453+278848291+279152821+279243034
2118+279127561+278937307+278867530+279022896+279347427+279715622+280022709
2108+280199581+280238676+280213144+280221014+280314781+280478996+280645060
2098+280765628+280910041+281220591+281733508+282294660+282675530+282756550
2088+282627604+282527545+282649201+282979897+283328527+283497256+283437471
2078+283281561+283230589+283375238+283614325+283764450+283772265+283811361
2068+284097993+284588334+284974481+285042608+284895584+284742503+284652254
2058+284613757+284667359+284837412+285034103+285153203+285243035+285457551
2048+285829156+286212855+286503332+286748003+286958404+287001234+286813102
2038+286562972+286472596+286576971+286734857+286834626+286946073+287210093
2028+287580664+287831773+287876218+287914171+288228402+288961493+289998551
2018+290891777+291111370+290630150+290034691+289870694+290158776+290637947
2008+291159333+291698307+292221596+292699824+293164126+293672093+294210487
1998+294719868+295340696+296442545+298053665+299435183+299741327+298997392
1988+297916179+297067960+296655846+296672039+296913411+297089212+297074089
1978+296951037+296848802+296813968+296799552+296845030+297241659+298191569
1968+299236044+299501369+298754443+297714737+297118244+297028974+297191810
1958+297519315+297957795+298254400+298189882+297895525+297728899+297892751
1948+298396311+299425718+301251681+303304473+303979338+302426135+299880862
1938+298124004+297628912+297780434+297976962+298054989+298078182+298099035
1928+298257973+299035019+300772419+302786479+303973880+304450603+305026406
1918+305239653+303930614+301600565+300077499+300258976+301460594+302394511
1908+302344735+301595360+300856666+300468089+300332688+300359398+300665306
1898+301386357+302314126+302928027+303266448+304232859+306075995+307348550
1888+306749464+305106918+303943036+303527512+303358655+303244053+303256311
1878+303375338+303514801+303765003+304819470+307876082+313216069+318562077
1868+320119070+316931644+312075198+308654506+307377454+307383620+307723872
1858+307973639+308111270+308226634+308378264+308764466+309802921+311866629
1848+315237818+319945099+324489762+325566478+322095993+317441442+314875914
1838+314604496+315059350+315446640+316887979+320772338+326080592+329466250
1828+329515174+328230832+326830474+324480043+321339075+319151552+318772023
1818+319399470+320044034+320804760+322479946+325111044+327318150+327669318
1808+326472597+325387213+325913839+328603434+332593474+335696362+336240142
1798+335148412+335131476+338148340+343586646+347530409+346007724+340722245
1788+336671568+336053334+337596763+339490164+341327968+342945236+343660811
1778+343926499+345853374+351173088+358994030+364979633+365029028+360386228
1768+354726334+350294931+348684082+350648711+354288706+356302512+356337872
1758+356312957+356488015+356697708+358907969+364959469+372951588+377885645
1748+377492588+374436447+372000862+371495742+372686045+374317493+374948494
1738+375463405+379156567+386999487+393189742+391044651+383740652+376877327
1728+372081011+369767245+370018898+371924304+375246895+381830206+393167003
1718+406035007+411998886+407521643+398635990+391376598+388068151+389349048
1708+394864673+402316350+408361684+413063997+420139445+430484425+438409814
1698+439453419+435491921+427860037+418818293+413271224+413335742+417382684
1688+424059961+434753717+448954080+457453640+452920147+443241744+437165076
1678+437056530+441643009+447256844+450999328+454378749+459138255+461884897
1668+458675929+453326187+451980446+455230649+458567565+458393595+456903912
1658+458814068+467451006+483896301+502331901+507117446+499397470+495486383
1648+498565336+500696463+494862490+485629187+480082734+480234256+486003892
1638+496768512+508468409+511848954+504085640+494763918+491128637+493222266
1628+497651166+501796390+505585332+508460938+508497132+506996715+508372375
1618+514032741+519144720+518019045+513167313+510170577+510561348+512638802
1608+514239242+514766883+515093644+515937457+516950815+517454883+517619859
1598+518326838+519946355+521827861+523136428+523740628+523987022+524112940
1588+524266274+524699659+525562838+526643180+527768602+529766233+534420276
1578+542266096+549412118+549825629+545714713+544741901+548911387+553419602
1568+553469904+551008787+550150395+552928590+561662504+579307712+601434407
1558+608461657+596357678+583264278+576481175+574826153+576083875+578504591
1548+582034227+588692574+600062555+615302460+632005428+644987164+645069127
1538+634292828+626440335+627192792+632679767+636123851+636803195+639957074
1528+648202842+659202179+669942936+680625666+691360185+698840802+701574280
1518+702350310+702129012+699989870+697747512+699271720+707127478+721520996
1508+738372367+745300282+734878525+720794723+714448450+716224928+722702196
1498+729087492+730678213+727509827+725299892+728769290+737180650+744576331
1488+745315079+740700676+735880496+733876700+734539651+736425219+739391890
1478+744870597+753459518+763537396+771542426+772940717+767067939+759954049
1468+757385728+759904654+763447455+763948368+763336987+767112039+777683431
1458+790285965+793137527+783361676+771856349+765059283+762733440+762755273
1448+762472974+759992056+756058737+752905656+751661643+752513615+755968289
1438+761558261+765416435+763780236+759602119+757916162+759125940+759968048
1428+758592024+756853481+756768037+758149573+760589293+764691033+769087910
1418+769114602+763351929+756307090+751807579+750078683+749522282+749159980
1408+749572185+751416844+753641503+754620481+754899733+756444975+759730575
1398+763411914+766063865+766703678+764834938+761815535+760242367+761114141
1388+762740258+762690791+761275382+761522719+765374946+771882678+778940500
1378+785683457+792429605+798700009+802851434+804455211+805259602+806737389
1368+808867537+811678263+815782034+820520832+823230954+821977729+817993855
1358+813806961+810664542+808516188+807077858+806151467+805413879+804654386
1348+804044094+803739818+803761288+804582434+806870704+810177701+812758859
1338+813339341+812428834+811322851+810750349+810894399+811916389+813925553
1328+816642856+819498769+822134255+824681324+827544418+830937294+834541095
1318+837557669+839255957+839720458+840114965+841904426+845464055+849626723
1308+852942133+855200157+857313261+859875561+862462740+864453843+865871645
1298+866913074+867346749+867010848+866144732+864783288+862672070+859995386
1288+857296216+854684303+851974108+849282481+846736574+844054666+841002478
1278+837962113+835679355+834639015+834854438+835980440+837377280+838392524
1268+838916357+839434896+840352075+841444857+842156261+842288561+842213417
1258+842333314+842565854+842774387+843411009+845033064+847385961+849632888
1248+851216501+852029886+852356864+853030913+854900451+857835716+860859181
1238+863240294+864888823+865817463+866021208+866004091+866756475+868924849
1228+872318885+876290863+880114295+882907903+883950492+883484250+882760080
1218+883098955+885105289+888438253+891997301+894906889+897503570+900723309
1208+904670337+908475562+911405460+913372554+914538885+915265085+916193362
1198+917753764+919803183+922014859+924347012+926962117+929766097+932090996
1188+933293666+933888074+935315088+938311860+942261281+946161960+949291759
1178+951065263+951457594+951429958+951986069+953213690+954888476+957204527
1168+960068927+962554125+964036409+965193963+966877743+968655164+969547102
1158+969638494+969872413+970717350+972043688+973773382+975900194+978245330
1148+980850715+984526614+989778075+995199988+998106240+997200520+994299491
1138+992846873+994876636+999411979+1003464687+1004709135+1003282194+1001338745
1128+1000876710+1002189484+1004370116+1006464433+1007846332+1008301549
1120+1008914742+1011895268+1017665630+1023034086+1024231968+1021249194
1111+1017528470+1015937966+1016472534+1018091761+1020990324+1025334107
1103+1029616817+1032393887+1034088475+1035179009+1034698768+1032411078
1094+1030261272+1030318864+1032767867+1036018796+1038086494+1038494056
1085+1038535980+1038849033+1038420508+1036769149+1034855222+1033830983
1077+1034559940+1037816743+1043905670+1051757365+1058701818+1061727459
1068+1059584908+1054169885+1049725571+1049819574+1054234512+1059057520
1060+1060365580+1057724436+1053818318+1050596112+1047735484+1045212859
1051+1045321441+1050219811+1058222158+1064913688+1068041891+1069054524
1043+1069846367+1070513525+1070260893+1069347847+1069524828+1071711987
1034+1073741823+1072406708+1067784544+1062795217+1059185323+1057247967
1025+1057906712+1061216102+1063882559+1062451919+1058720024+1057638195
1017+1060617052+1064462388+1066017640+1065086897+1062914026+1060267370
1008+1057590033+1055635196+1054880781+1054499693+1053057809+1050718185
1000+1049534592+1050869272+1053335103+1054009442+1051508940+1047205703
991+1043350285+1040885469+1039442353+1038684093+1038612068+1038692797
983+1038088162+1036826596+1035423590+1033533888+1030368694+1026316566
974+1022736556+1020408537+1018914793+1017088339+1014008444+1009761130
965+1005252480+1001143051+997496745+994571200+992500093+990273475+986884154
955+983301387+981268360+980276181+977844150+973260719+968850786+966325260
945+964176325+960605018+956845271+955211393+955796372+956904748+957184725
935+955946587+953146742+950030797+948227119+948166119+949201963+950568847
925+951733146+952539641+953163859+953518618+953290720+952723874+952242328
915+951496399+950166869+949079092+949091785+949514435+948795415+946575834
905+944050670+942441163+941998712+942273830+942574479+942211161+940998265
895+939577924+938701870+938272620+937740446+936915891+935585781+933544848
885+931671103+931488175+933169417+935205708+936215875+935871416+934593167
875+933355464+933002373+933256239+932944129+931378070+929049688+926966976
865+925752339+925330487+925162863+924954113+925013663+925656378+926558398
855+927155272+927391947+927352271+926439516+923990730+920709773+918638666
845+919306478+922134901+924832838+925524295+924409101+923014726+922289832
835+922453031+923922187+926961609+930487292+932419281+931640494+928909845
825+925929755+924165245+924304508+926171870+928936029+931658192+933954731
815+936143850+938597931+941000586+942576582+943067558+943076335+943686337
805+945950962+949762280+952809608+952225355+948032876+943179331+940160509
795+939512499+940738814+942829722+944516550+945225487+945233030+944682287
785+943598790+942678346+942943962+944850636+948022359+951190237+952390223
776+950514810+947000297+944817416+945498791+947622630+948474747+947105252
766+945085643+944063581+943911262+943967692+944567395+946335677+948755595
756+950767660+952485821+954712656+956848172+957221500+955823209+954749285
746+955109774+955539242+955080834+955488614+958348590+961379526+961000541
736+958135560+956751849+957032479+955480490+951646614+949080688+949544028
726+951174642+952145279+952438602+952678469+953582810+955516467+957651403
716+958308189+956623900+953346643+950028694+947957152+947310157+946854360
706+945382811+943394682+942514929+943842936+947068478+950458524+951794509
696+949527781+943530319+935162841+926610694+919525237+914333108+910979328
686+909273715+908600319+908306125+908284510+908372203+908223292+908666687
676+910614487+912135432+909015715+899390951+886794438+879057779+880284094
666+884203922+885473975+884716585+883173663+881257487+880136635+880868130
656+882698572+883929747+883698657+882301527+880348431+878235835+876274834
646+875198734+875532314+875881923+873842077+870188083+869116408+872951300
636+878565353+879526850+872780920+862273502+854572022+852599922+853922271
626+854753354+855189568+857194742+859175763+857851746+854425433+853438476
616+856257978+859578176+858504905+851104002+842503041+841314515+850415737
606+863962432+873236209+872752124+862986863+849175640
##END=
