##TITLE=<SNM>
##JCAMP-DX=4.24
##DATA TYPE=INFRARED SPECTRUM
##DATE=2/5/2025
##SAMPLING PROCEDURE=Instrument type and / or accessory
##ORIGIN=Admin
##XUNITS=1/CM
##YUNITS=ABSORBANCE
##RESOLUTION=4
##FIRSTX=4497.3318
##LASTX=599.83466
##DELTAX=-1.4281778
##MAXY=1.8375435
##MINY=0.3916485
##XFACTOR=1
##YFACTOR=1.7113457e-09
##NPOINTS=2730
##FIRSTY=0.40743691
##XYDATA=(X++(Y..Y))
4497+238079834+238864411+239958307+240818533+240902646+240113122+239041552
4487+238509276+239026297+240608061+242663292+244099122+244036290+242605127
4477+240906651+240057291+240267328+240977650+241637226+241886115+241368276
4467+240191139+239254793+239290981+240053791+240944597+241610234+241696697
4457+241121982+240613808+240835060+241209142+240678416+239256483+237885975
4447+237269082+237582526+238651971+239819129+240365842+240437642+240824594
4437+241805137+242924005+243656148+243662992+242805569+241478440+240551934
4427+240637004+241678934+243166172+244247633+243889747+241719493+238770094
4417+236741960+236355514+236863270+237308978+237554941+237670261+237305670
4407+236364378+235578790+235724358+236674444+237768009+238674123+239421468
4397+239941206+240041095+239698447+239097314+238498410+238189179+238321217
4387+238734586+239075720+238927887+237897277+236147793+234702472+234410065
4377+234870662+235092158+234671057+233796027+232996595+233187667+234822232
4367+236922393+237978742+237585870+236385223+235014419+233855672+233261871
4357+233448868+234222823+234958031+234997928+234150953+232826577+231731114
4347+231411696+231930824+232813498+233415641+233434850+233040514+232591358
4337+232293238+232073641+231723957+231139681+230465407+230068721+230317018
4327+231307731+232745407+233990478+234256224+233149791+231296464+230050348
4317+230248822+231400847+232223545+231969746+231098600+230500393+230384290
4307+230261935+229794163+229254538+229234877+230137090+231808626+233497089
4297+234324159+234045073+233268750+232798853+232895887+233292294+233661726
4287+233836116+233843639+233917128+234082236+233784708+232571453+230950124
4277+229807259+229284160+228966589+228854108+229398940+230652631+231882638
4267+232214525+231598642+230968705+231197166+232044280+232607293+232641512
4257+232701418+233080638+233442634+233415815+232939197+232273682+231979794
4247+232359640+232852176+232735882+232244269+232018210+231879608+231312608
4237+230694426+230884767+231886940+232859333+233325852+233638774+234241944
4227+235087874+235764360+235730070+234639467+232878873+231517054+231306286
4217+231871458+232262676+232171755+232120747+232416812+232540038+231981779
4207+231245370+231340088+232402637+233492109+233865233+233847731+234114609
4197+234630568+234821118+234497172+234104317+234148272+234595704+234881703
4187+234538218+233783141+233269951+233240486+233354586+233417557+233716600
4177+234443605+235246120+235594098+235413056+235262507+235817300+237007794
4167+237846235+237488836+236334547+235488287+235324903+235322901+235117966
4157+234851332+234528396+233967996+233425481+233481730+234249537+235187920
4147+235722025+235755722+235607350+235602613+235724620+235708111+235540356
4137+235624747+236164546+236660896+236487847+235819442+235482453+235844501
4127+236294128+236042261+235115110+234236354+233922161+234027920+234117814
4117+234000770+233866922+234060311+234723561+235556238+235977775+235682703
4107+235023057+234643629+234753863+234982742+234928339+234605369+234355261
4097+234475561+234901904+235209393+235031068+234446931+233849490+233574567
4087+233744951+234247761+234804487+235191003+235338191+235221322+234857114
4077+234425215+234184929+234251052+234528588+234811174+234991066+235238788
4067+235814043+236608478+237108763+236931222+236231139+235581037+235549238
4057+236226524+237047116+237273592+236783390+236225741+236267954+236794814
4047+237069633+236712025+236225358+236321608+236984737+237546791+237525702
4037+237042466+236513429+236295312+236556461+237144533+237651662+237821523
4027+237761339+237653055+237511875+237392133+237529272+238045457+238621862
4017+238649394+237839391+236635697+235824092+235761138+236217695+236916210
4007+237809351+238737738+239268307+239171569+238811767+238768109+239153702
3997+239526809+239514392+239368162+239684219+240618684+241594613+241904522
3987+241546549+241222307+241467696+242022541+242200674+241830563+241554786
3977+241949661+242669892+242951398+242679679+242345145+242229687+242218925
3967+242176033+242166263+242454613+243272296+244454396+245471807+245864696
3957+245543328+244892041+244707046+245753766+248140761+250946855+252575133
3947+252244431+251073964+250557257+250503916+249796694+248427527+247210075
3937+246577561+247125040+249779192+253940034+256689792+255914148+253327076
3927+252148094+253177207+254505014+254617669+254593202+256205197+259015575
3917+260405640+258566367+254641666+251107017+249289512+249189466+250837161
3907+254909850+261703581+269809969+276362804+279014884+276926270+270574747
3897+262661730+257468205+257728675+262423551+266841833+267001681+265091652
3887+265558537+268502815+270502859+270723641+271043825+270539151+267133596
3878+263251230+262969619+266739104+272272996+277703446+281322940+281265681
3868+278989529+277923079+278057397+276299207+271964167+268125651+267438333
3858+270781457+278762634+290535082+298457520+293721318+281859395+271904261
3848+267151115+267733545+272177896+278158837+284091854+289599676+293594122
3838+293780075+290188010+286116348+283682333+282052958+279906962+277659144
3828+276387812+276560233+279239236+285956325+294660241+298541632+295650433
3818+291539205+288630226+284652080+279239793+275220654+275004295+279001806
3808+284862448+289067209+292138962+297223315+302914670+303797100+299784509
3798+295505195+292432537+289634575+287447046+287014033+288547942+291641202
3788+295921403+300738757+305138892+309135602+314041490+320212268+325650554
3778+328856191+331631165+336794267+345635078+357938461+371970655+384805739
3768+394864141+402633192+408565843+413612720+420011837+428597769+436934952
3758+442327403+445790461+450501063+458467699+468715015+476696209+479970877
3748+482980774+490190469+500375127+507416701+509759969+513134213+522267136
3738+537930970+555764762+567044099+567755135+563586021+561600449+564239520
3728+570784362+579390112+587643252+593472739+595677491+593884977+589317487
3718+584892658+583835943+588029228+596045496+601993053+600722279+594564910
3708+588135387+583149078+580194037+579547818+580148620+580105363+578484381
3698+575911868+574438771+576920624+585108947+597693679+609751585+614823400
3688+611046950+603441387+597506716+595700827+598163314+603620130+611220886
3678+621239897+630939943+633538543+629173062+624712150+621168776+613865112
3668+602278652+590930005+582777243+578379476+577401440+579166753+582766794
3658+586559161+588277351+588252344+590749033+599567206+612817870+620008967
3648+612576783+597147628+583813235+575825910+572174461+571009706+570917374
3638+571488084+573197427+576149368+580023723+585705082+594177471+601478697
3628+600362564+593129951+588088229+588645773+593546229+599146192+601666844
3618+601370170+601906817+604388808+606692963+607599495+608144640+608458381
3608+607254060+605183469+604984038+608280056+613992029+619219948+622031563
3598+623289451+624782087+626867863+629031447+631599049+635688265+641371748
3588+645578129+643951192+637180622+630855099+629107026+631370988+633774893
3578+633793840+632884800+633292579+634790788+636663271+640328895+646910134
3568+653429028+655022460+651707773+647967754+646583924+646510992+645164220
3558+641851833+638609103+637649143+639147004+641902753+645279365+649115513
3548+651968783+651299785+646353843+639449878+633800248+631417520+632249448
3538+633772733+633047104+630667161+630076460+632474931+635535853+637117373
3528+637625181+638094608+638217346+636839158+633561251+629795807+627774534
3518+628261584+629631762+629607311+627818976+625834065+624877588+624697243
3508+624735207+624900158+624849795+624180658+623375409+623132023+622930572
3498+621690377+619763491+618794406+619312593+619899603+619383018+618388229
3488+617892889+617641214+616744852+614768161+611844467+609028464+608029425
3478+609462852+612083046+614228380+615150306+614821519+613718551+612593710
3468+611697627+610665223+609182896+607275097+605442459+604562048+604822431
3458+605169329+604820620+604359831+604324026+604146259+603367131+602494314
3448+602093570+602048641+601855618+601015400+599344091+597372276+596002586
3438+595435917+595014067+594368962+594063928+594708197+595886675+596480999
3428+595739418+593757084+591306647+589513645+588998104+589131848+588896891
3418+588314618+588068585+588227336+588438331+588457487+587790719+586080818
3408+584092808+582924744+582297576+581109451+579382136+578250364+578040623
3398+577693482+576779252+576450291+577254112+577914716+577419516+576558262
3388+576203318+575814904+574654329+573091442+571930065+571302097+570978465
3378+571204784+572339795+573806309+574382662+573754937+572717099+571711757
3368+570480687+569126496+568115094+567292256+566196324+565164581+564991167
3358+565740306+566751221+567431399+567468039+566871590+566175670+565988254
3348+566107057+565778862+565004646+564535916+564720161+565171338+565429874
3338+565395846+565010323+564122355+562854471+561869573+561984265+563179391
3328+564423835+564829072+564518431+564032879+563406233+562431994+561522884
3318+561382627+561877688+562120169+561579342+560391496+558952496+558007373
3308+558425114+560038990+561551061+562204072+562573469+563218679+563686677
3298+563384918+562485665+561479696+560697156+560481668+560811047+560806693
3288+559901276+559291453+560742329+564056249+566836831+566996627+564916946
3278+562704601+561863304+562110451+562152595+561210189+559729882+558881305
3268+559463160+561267900+563438067+565136056+565786664+565225044+563869356
3258+562375710+561181071+560459691+560159499+559997543+559649252+559023373
3248+558415605+558375587+559108043+559977865+560078939+559275884+558331319
3238+558122936+558717191+559062591+558140246+556511428+555728993+556279571
3228+557093005+556895419+555352525+553195001+551553923+550942184+551051618
3218+551514879+552109656+552213447+551130018+549179031+547525797+546697596
3208+545968901+544601267+543214058+543056874+544005654+544427156+543348499
3198+541637832+540696993+541038388+542292201+543490532+543302838+541146602
3188+538192885+536401485+536497578+537479724+538013724+537566832+536098228
3178+533665763+530871633+528944259+528706133+529647529+530413978+530290300
3168+529839472+529836511+530019329+529444858+527835614+525888319+524320591
3158+523211075+522188806+520878918+519277789+517818728+516870192+516274336
3148+515748312+515375954+515154893+514504773+512972188+511117886+509941463
3138+509595785+509229626+508057452+506256997+504698847+503907599+503532316
3128+503003610+502395877+502181469+502367735+502432343+502055318+501515048
3118+501350690+501747637+502227791+502065174+501060842+499620972+498155746
3108+496939827+496384094+496697417+497366623+497600884+497233367+496745411
3098+496486805+496187031+495317174+493877757+492540075+491885775+491842866
3088+491923878+491700519+491168540+490912824+491506556+492496748+492599528
3078+491190691+488997084+487141807+486137405+485889213+486014250+486075862
3068+485819276+485274619+484678309+484240786+483852302+483045521+481550481
3058+479925913+479193561+479671765+480543015+480814542+480346509+479640314
3048+479045711+478550616+477984677+477142405+476046821+475144120+474781096
3038+474583023+473928375+472939925+472361309+472443088+472514209+471870114
3028+470651687+469503546+468718951+468065278+467241918+466283699+465568066
3018+465389810+465548631+465556015+465130647+464222687+462829697+461193878
3008+459933064+459611731+460166210+460774396+460449092+458970841+456996796
2998+455190141+453809515+453132159+453397626+454150910+454363890+453424793
2988+451664181+449926627+448884157+448703046+449098948+449590317+449813502
2978+449758333+449580809+449111487+448006986+446446990+445036794+444024243
2968+443177651+442325662+441559491+440990279+440545233+440012382+439335792
2958+438785039+438609675+438645514+438469905+437840509+436883265+435880257
2948+434921272+433929409+433047362+432619939+432691582+432896482+432897248
2938+432593469+431921058+430872946+429765694+429072908+428827293+428536261
2928+427869179+426999009+426143223+425343546+424730484+424361992+423904860
2918+423076067+422129238+421482531+421264640+421417714+421768408+421916362
2908+421465360+420415402+419251517+418657611+418900962+419446247+419435519
2898+418539367+417142685+415845683+414966632+414406022+413886128+413282992
2888+412698560+412342850+412384610+412744813+413054444+412956783+412339576
2878+411283697+410065967+409087513+408483959+408014393+407505540+407072579
2868+406856151+406878059+407046806+407050463+406519633+405544975+404753031
2858+404607863+404790994+404546006+403619343+402523306+401812688+401526984
2848+401407033+401214637+400790070+400167848+399594143+399225024+398968995
2838+398648916+398135430+397429862+396716318+396155013+395649677+395035605
2828+394386634+393936851+393773224+393658706+393166187+392154123+391050633
2818+390405876+390261301+390199653+389903954+389424914+388940929+388489892
2808+388004792+387429172+386673171+385676536+384685544+384186860+384344149
2798+384723229+384734757+384205285+383435422+382768863+382197213+381494396
2788+380665046+379971668+379525542+379157886+378689051+378096364+377464564
2778+376884729+376342788+375757346+375174829+374759352+374540800+374336910
2768+373917394+373166548+372186596+371264495+370616604+370201372+369854230
2758+369477588+369039507+368516479+367891331+367190291+366551873+366182510
2748+366110136+366076108+365820357+365334491+364725191+364062915+363450167
2738+362965032+362500830+361893236+361153083+360398824+359715059+359180258
2728+358809258+358451250+357982728+357521312+357209836+356934372+356506601
2718+355985662+355585511+355318998+354915886+354167618+353267459+352669513
2708+352592854+352755924+352639491+352003581+351130903+350493321+350203787
2698+349957823+349506403+348949730+348512241+348256596+348089764+347867485
2688+347445670+346786076+346053515+345509136+345279856+345269059+345226533
2678+344894159+344257100+343670995+343475813+343476335+343154689+342406838
2668+341652161+341209274+340983581+340778508+340557447+340368047+340243811
2658+340191080+340138209+339927006+339469490+338878928+338348968+337939796
2648+337586699+337249518+336910248+336484183+335893516+335198362+334544167
2638+334011456+333572609+333171622+332835172+332686104+332771052+332909950
2628+332839352+332478035+331932123+331332923+330831907+330607851+330654208
2618+330681654+330444746+330042609+329712778+329498614+329296535+329067046
2608+328831253+328562546+328217634+327832737+327490750+327188259+326846551
2598+326503833+326324184+326297923+326144884+325696807+325178028+324909495
2588+324897270+324896365+324774533+324619230+324496004+324289572+323871867
2578+323294853+322733094+322350078+322226609+322262657+322187496+321832762
2568+321329934+320919194+320678003+320534925+320434547+320376940+320346952
2558+320300351+320213487+320074484+319852971+319559083+319245760+318886115
2548+318424211+317988255+317806517+317901148+318097897+318256683+318293811
2538+318146345+317878056+317629097+317404101+317119304+316825416+316663948
2528+316642598+316623442+316509167+316325235+316125629+315929959+315777721
2518+315721751+315724816+315672955+315512916+315276287+314996017+314703801
2508+314480685+314418098+314512972+314640098+314681615+314666638+314684018
2498+314712125+314682659+314608613+314485492+314235663+313892561+313614277
2488+313431493+313242650+313079023+313084491+313215030+313229554+313018351
2478+312742852+312592808+312554601+312490097+312336884+312151837+312013879
2468+311945161+311914024+311896400+311898003+311880031+311733679+311427601
2458+311117552+310986490+311024210+311085962+311111248+311143500+311172268
2448+311127200+311028459+310971514+310946715+310848184+310680969+310578363
2438+310575332+310537404+310386837+310252745+310278101+310397774+310472169
2428+310528348+310645269+310691174+310441902+309941965+309549998+309593465
2418+310056205+310595603+310853756+310789915+310687621+310791552+311009860
2408+311087216+311002442+310985027+311141758+311308172+311322556+311236842
2398+311201490+311315799+311611673+312008028+312272764+312207703+311889400
2388+311547900+311187210+310509993+309234029+307284852+304663509+301338131
2378+297330310+292830842+288226574+283934618+280054202+276308158+272546318
2368+269081501+266304506+264314650+263169643+263127395+264352840+266682472
2358+269972586+274442832+280472535+288176873+296925387+305072856+310619809
2348+312314385+310396311+306814033+303977794+302545412+301521715+300268320
2338+299030075+297985620+296859839+295534556+294459312+294131187+294417970
2328+294724466+294643802+294197432+293715084+293695162+294507690+296030279
2318+297696155+298970448+299753755+300381549+301273140+302540571+303935616
2308+305146589+306037309+306597396+306830263+306805430+306737722+306868053
2298+307232609+307644881+307954616+308190444+308364276+308340627+308092191
2288+307917697+308157774+308738689+309174227+309049817+308422615+307702732
2278+307223379+307005976+306871570+306685652+306507780+306484549+306575627
2268+306536201+306260180+305924288+305693476+305535038+305403349+305346961
2258+305355982+305321919+305226452+305217362+305412614+305708208+305870303
2248+305800053+305621797+305517589+305549840+305643008+305683480+305641824
2238+305617130+305726285+305947241+306125635+306140925+306017839+305882458
2228+305860342+305985936+306154125+306199334+306080810+305942434+305938255
2218+306050613+306129919+306077327+305934876+305806775+305755541+305771911
2208+305778389+305689192+305544024+305496726+305591322+305709184+305800749
2198+305933483+306072521+306094707+306032642+306035323+306102509+306089204
2188+305948947+305789918+305690689+305602293+305485476+305436611+305586585
2178+305939439+306367558+306700977+306816610+306728144+306565248+306412035
2168+306253145+306108708+306091120+306266624+306556297+306819501+306992741
2158+307114991+307246192+307389723+307479269+307448654+307356670+307379797
2148+307571879+307735054+307696498+307595110+307688975+307984047+308259824
2138+308403459+308533371+308773309+309058002+309252593+309357150+309474872
2128+309644699+309804320+309873770+309828213+309739469+309757023+309997309
2118+310436887+310914045+311226393+311282642+311213750+311285533+311640546
2108+312167301+312672881+313097517+313463258+313718729+313806603+313820012
2098+313925823+314165830+314461460+314776385+315148882+315555442+315844489
2088+315883079+315737668+315629733+315717606+315971928+316251432+316446440
2078+316540409+316572313+316599096+316701076+316933421+317254127+317612240
2068+318063138+318618662+319072381+319204418+319050996+318773373+318448592
2058+318153763+318030677+318111759+318253862+318334108+318382869+318484465
2048+318652342+318855465+319110763+319449058+319770774+319871535+319708813
2038+319520283+319556331+319792124+319990929+319986122+319835696+319727969
2028+319783591+319972783+320200391+320426328+320735471+321313773+322214315
2018+323068533+323279876+322708296+321904997+321486038+321535286+321712915
2008+321728483+321600208+321532988+321641062+321877726+322186556+322514716
1998+322769177+323098208+323987952+325543420+326922757+327148206+326271139
1988+325080646+324118074+323543916+323438105+323729207+324101843+324273203
1978+324260142+324267665+324388139+324533724+324730787+325305084+326450509
1968+327665732+328089950+327564135+326841501+326562938+326607484+326613579
1958+326591985+326735063+327030379+327328865+327543098+327666463+327777777
1948+328147174+329264701+331404358+333798894+334737120+333416610+331100265
1938+329475313+328925361+328917560+329076067+329360029+329697975+329901203
1928+330018960+330641391+332267040+334284028+335585488+336277751+337152031
1918+337655486+336513091+334237984+332772584+333077339+334446123+335532652
1908+335568874+334861565+334218341+334003550+334025805+334161430+334625389
1898+335590015+336731505+337408234+337645246+338425976+340134935+341408253
1888+340838518+339098038+337784946+337426937+337647684+338089422+338558013
1878+338948343+339292524+339746939+340873730+343724214+348624739+353531917
1868+354933161+351982718+347599475+344635901+343634878+343699346+343914033
1858+343909052+343761063+343714671+343962341+344709460+346225049+348671410
1848+352217989+356958997+361535890+362648053+359050310+354038715+351052224
1838+350555317+351128430+351858518+353546127+357304362+362116282+365027124
1828+365071775+364243226+363394336+361371844+358298454+356116864+355825483
1818+356521508+357046522+357571780+359084582+361621012+363703862+363953239
1808+362770477+361834445+362711302+365968660+370491498+373753941+374076214
1798+372638399+372300243+375064351+380402748+384452293+383127080+377984981
1788+374039609+373570182+375253299+377081235+378599714+379880415+380476167
1778+380787923+382685970+387722468+395089103+400953036+401677098+398107741
1768+393126447+388711057+386774106+388472443+392081853+394278490+394579309
1758+394766655+395034490+395251789+397458492+403478425+411263740+415721274
1748+414773400+411313581+408562464+407632457+408296544+409592814+410338888
1738+411276836+415351423+423419621+429861334+428123118+421182965+414435662
1728+409524235+407031202+407179400+409036488+412186015+418279959+428828965
1718+441068261+447210932+443495502+435114191+427833688+424155804+424830061
1708+429525268+436172682+441790931+446339542+452989220+462390293+469365797
1698+470123748+466517089+459559627+451149094+445939321+446103122+450169455
1688+456702804+466722337+479542583+486758791+482130386+473074679+467492618
1678+467557713+472084243+477411390+480536745+482975967+486824793+489445126
1668+487201678+482974086+481951957+484632196+487117044+486584750+485316309
1658+487447467+495705553+510915181+527831644+532511317+526126376+523450734
1648+527290852+529973982+524622211+515664826+510120137+510097393+515527147
1638+525581962+536252103+539318457+532760136+525130298+522526265+524788520
1628+528973446+532933202+536545538+539012170+538515786+536569744+537480177
1618+542537085+547197011+546250773+542201576+540275596+541632190+544179173
1608+545633323+545759753+545882664+546913397+548544096+550081522+551460267
1598+553064496+554891178+556469668+557568736+558445558+559319630+560117739
1588+560786318+561453644+562265719+563279038+564671575+567276722+572552253
1578+580790242+588176904+588928377+585179580+584188692+587772398+591507193
1568+591261718+589041084+588546371+591462682+599649472+615435417+634752894
1558+641137557+631493168+620744418+614783556+612759915+613060351+614276096
1548+616639111+622438227+633099905+647184726+661986470+673129486+672825149
1538+662766851+655258044+655469108+659726340+661870977+661612196+663892458
1528+670948348+680521476+689944979+699559833+709547497+716716094+719224835
1518+719339771+718217437+715748054+714167439+716807485+725160481+738557288
1508+752956965+757612014+746793954+733209139+727236644+729443555+736602052
1498+743686083+745977142+743876947+742873102+747043191+755416039+762245400
1488+762250903+757023124+751781413+749449325+749892560+751898647+755270244
1478+760853977+768876583+778232866+786323877+788846549+784321760+778241086
1468+776651416+780542314+786167285+789286023+790866080+795225361+804193229
1458+814072296+816448547+809699154+801896598+797889509+797644660+799411959
1448+800682385+799675127+797139359+795024188+794230154+795247651+799213642
1438+805934545+811185103+810654586+807100345+805427364+805976131+806045511
1428+804647192+803620569+804225411+805900552+808445515+812637198+817189850
1418+817779019+813019761+806706706+802181778+800185792+800078031+801023502
1408+802727759+805047448+807005679+807619090+807703515+808855662+811371020
1398+814640498+818127031+820427076+819712174+817116778+816349493+819031543
1388+822746068+823727064+821726898+820276405+822171109+827266120+833656773
1378+839771929+845278550+850038783+852971394+853367749+852649713+852781924
1368+854163595+856326482+859227677+862476467+864468831+864158852+862775509
1358+862222911+862896993+863672916+863453075+862392598+861572164+861685707
1348+862279055+862308103+861433265+860720313+861685219+864362533+866738156
1338+866873363+865057513+862754960+860800211+859560713+859400151+860277914
1328+861692185+863124567+864144363+864650778+865329876+867113196+869979214
1318+872898659+874994327+876152046+876615761+876715999+876985785+877961836
1308+879553875+880926420+881384214+881098406+880890755+881559056+883234197
1298+885098529+886045881+885842827+885212560+884727948+884048571+882351070
1288+879313833+875572072+872295698+870339556+869703646+869503378+868499325
1278+866332954+864155508+863295090+863671453+864346233+865070260+866244767
1268+867772650+869135095+870356065+871859498+873552680+874850970+875493985
1258+875751163+875961322+876431097+877654922+879954340+882886393+885384964
1248+886592837+886573124+886243641+886593116+887860129+889527190+891240155
1238+893425472+896509172+899810344+901979780+902581418+902580443+903210571
1228+904890518+907101888+908876500+909648105+909995560+911327773+914448461
1218+918608937+922210406+924403247+925804840+927390540+929292836+931146650
1208+932881418+934578849+936084790+937389349+939067486+941695063+944861447
1198+947375203+948650645+949421552+950893709+953516202+956586875+958900015
1188+960091519+961191074+963245016+965841317+967816754+968981231+970271649
1178+972459753+975245942+977553858+978873533+980235769+982798008+985809680
1168+987416278+987020062+985495731+983919505+983149015+983695693+985403434
1158+987793337+990439374+992652973+993723550+993883764+994077762+994785908
1148+995870556+997204023+998876377+1001016905+1003375393+1004911426+1004704750
1138+1003339379+1002269429+1002241218+1003348435+1005903429+1010070592
1130+1014890940+1018657708+1020801928+1022402534+1023918645+1024149493
1121+1022816304+1022087052+1023976740+1028366880+1033674278+1037333703
1113+1037550967+1035749675+1034206537+1033047354+1031976568+1032490158
1104+1036308822+1042590669+1047745029+1048554945+1045733230+1042506522
1095+1040182933+1037895357+1036415886+1038441408+1044046178+1049289560
1087+1050528223+1047913741+1043761693+1040684124+1040863006+1044289145
1078+1048643341+1051501696+1052223634+1052139626+1052910743+1054745192
1070+1056416362+1056339877+1053984454+1050882226+1049546390+1051201330
1061+1055540201+1061674582+1067974610+1072274124+1073741823+1073647645
1053+1073278178+1071872823+1068293854+1064420091+1064088448+1067599153
1044+1069828007+1066660717+1060508364+1056281086+1056237828+1059491842
1035+1062366010+1060804830+1055534559+1051427371+1050788884+1051695903
1027+1052353198+1053402948+1055693519+1058483679+1060116885+1059875171
1018+1059248735+1060266859+1062477045+1063360311+1061929183+1060310047
1010+1060584988+1061754550+1061574344+1060314505+1060463922+1063247465
1001+1067013048+1068788218+1066778509+1061800733+1056931554+1055285949
993+1057458728+1061002868+1062669580+1061294736+1058390197+1055677637
984+1052894303+1048867153+1043617988+1038967745+1037408934+1039719915
975+1043496783+1045199927+1043624118+1039968873+1035821632+1032881986
967+1032529933+1033562198+1032508478+1027688408+1021034238+1015536672
958+1012649966+1011960350+1012023042+1011557586+1010277059+1008552322
950+1006475740+1003687670+1000170557+996692592+993852557+991102033+987753841
940+984793228+984109811+985623832+986922610+986277157+984320040+982418440
930+981240241+980872167+980923644+980775133+980633866+981501598+983240964
920+983967778+982309843+979087175+975967741+973784374+972973900+973889697
910+975544080+975702482+973034433+968418392+964133437+962212194+963016468
900+965080371+966623509+966888768+966223810+965814777+966843560+969036679
890+970603431+970045260+967474454+964149249+961743882+961534489+963276850
880+965073544+964925939+962612729+959891600+958859126+960102386+961820157
870+961046951+957198474+953110024+951555532+952796632+955516159+957988816
860+958719252+958146453+958363438+959718081+960161874+958803469+957043763
850+955653594+953701492+950495821+946659952+943556122+942658158+944098898
840+945797793+945834990+945093757+945575165+947360714+949337823+951560617
830+954517887+956826012+956468665+954099171+952338351+952587449+954356071
820+956437040+957655850+957429321+956191843+955304189+956356376+959427746
810+962290211+962900208+961526757+959125011+956120165+953751228+954190772
800+958142552+963421948+966861044+967128253+965242883+962845108+961077740
790+960738783+961989148+963822274+964858649+964523105+963440547+963109322
780+964493013+966898799+968487981+968047880+966408823+965614092+966713577
770+968263751+967303513+962804149+957320724+954497825+955976878+960612911
760+965516849+968024406+967925979+967523981+969319909+973636420+977881949
750+978777405+975928732+971885491+969047894+968262915+969819289+973890603
740+979207196+982221238+979713681+973196946+967759913+966419341+968117887
730+970014819+970809132+971633258+973213176+973972939+972126439+967835075
720+962678207+958746837+957806939+959250605+959819922+957509986+954925248
710+956261083+961523622+965991570+965778973+961861325+957978785+956952302
700+958776093+960655960+959780008+957105062+956067782+956714141+954626971
690+947364963+938744271+933847508+933049782+933011818+931613848+929719214
680+928365128+926810705+924262468+921666794+920100738+918008344+912239947
670+902918006+897034604+901649112+911638449+919121274+922770946+922679415
660+918274230+911905588+908220181+908329196+908354064+904667403+898227153
650+892437649+888958082+887004866+885709920+885335925+885901967+887901785
640+892289347+896601608+895594699+889674795+886248169+888809710+892905404
630+893095710+888313953+881164651+875129046+872544378+873703908+876677478
620+878174085+875527351+868843785+861502227+857560477+858748011+863988607
610+871039203+879046484+887978618+894095515+892552167+884033664+873952240
600+868696806
##END=
