##TITLE=<SNM>
##JCAMP-DX=4.24
##DATA TYPE=INFRARED SPECTRUM
##DATE=2/5/2025
##SAMPLING PROCEDURE=Instrument type and / or accessory
##ORIGIN=Admin
##XUNITS=1/CM
##YUNITS=ABSORBANCE
##RESOLUTION=4
##FIRSTX=4497.3318
##LASTX=599.83466
##DELTAX=-1.4281778
##MAXY=1.8316839
##MINY=0.35388109
##XFACTOR=1
##YFACTOR=1.7058885e-09
##NPOINTS=2730
##FIRSTY=0.38034621
##XYDATA=(X++(Y..Y))
4497+222960762+221843643+220661920+219586607+218891343+218531997+218449625
4487+218989386+220389209+222054300+223019968+223127166+223064552+223183490
4477+222991998+222015253+220653359+219834074+220041481+220993558+221983021
4467+222299460+221688158+220650878+220036799+220240502+220964417+221636883
4457+221835607+221421334+220553988+219622404+218998768+218753625+218636836
4447+218399154+218015716+217484044+216737749+215975137+215637542+215831531
4437+216198582+216440492+216547812+216561020+216501097+216483592+216636177
4427+216816784+216577372+215754522+214935377+214760098+214995247+214951013
4417+214582652+214543222+215358384+216934761+218593213+219416447+218878607
4407+217248684+215380502+214229980+214319777+215334136+216376202+216740894
4397+216278823+215222448+214078513+213490866+213852517+215050366+216522410
4387+217546709+217684725+216991836+215761912+214301957+213005699+212216148
4377+211914646+211865694+211972036+212221476+212614278+213325195+214389379
4367+215140478+214676782+213022785+211235839+210288182+210253137+210575970
4357+210883149+211378798+212352538+213516110+214287894+214660849+215103633
4347+215526169+215150348+213728496+212146983+211343281+211218683+210998785
4337+210217445+209114145+208358818+208425345+209055707+209584235+209917655
4327+210574921+211560856+211979024+211180982+209734165+208752616+208640159
4317+208986804+209434532+209965751+210378625+210239842+209608117+209133397
4307+209166381+209380095+209494787+209767987+210468475+211340730+211831959
4297+211649343+211050479+210614806+210746357+211357624+211953395+212080753
4287+211763668+211375391+211020605+210387675+209425535+208719911+208817186
4277+209492551+210007941+209924137+209467586+209208450+209407471+209694665
4267+209649679+209554134+209962239+210625900+210677909+209961855+209340210
4257+209509707+210190576+210604865+210276564+209432418+208912696+209387590
4247+210502175+211217897+211089595+210649659+210462465+210534460+210726720
4237+210940242+210822248+210110841+209359480+209435441+210287640+211042723
4227+211234441+211209511+211380528+211720080+212034474+212301490+212621842
4217+212956887+213070968+212850825+212572768+212589330+212815395+212762670
4207+212088056+211018946+210166554+209884759+209951163+210033291+210215925
4197+210726843+211338372+211512987+211114421+210569925+210314946+210403276
4187+210702611+211081472+211225304+210679306+209447862+208299472+208057980
4177+208731704+209696604+210534827+211252575+211910785+212536762+213176872
4167+213635572+213432602+212407342+211126685+210357731+210337029+210733446
4157+211093875+211198540+211137149+211119871+211232257+211492914+211980701
4147+212540274+212645497+212103395+211514856+211429514+211585663+211548958
4137+211394888+211323697+211366674+211635716+212147909+212559491+212703830
4127+212964399+213516372+213703968+212822558+211260926+210201040+210175272
4117+210610578+210960473+211397054+212022787+212412304+212366864+212204687
4107+212096616+211908986+211663127+211538232+211558165+211580370+211450775
4097+211048365+210316554+209409585+208797374+208958695+209848403+210958114
4087+211898067+212527695+212650563+212149796+211353152+210803852+210728188
4077+210970308+211306157+211563738+211478571+210787360+209677893+208862975
4067+208846256+209292761+209503785+209324679+209128331+209091678+209043146
4057+208966382+209103523+209473806+209737624+209670957+209475343+209547862
4047+210102036+210930336+211484056+211410052+210964508+210596340+210262361
4037+209537013+208377809+207446783+207518604+208714723+210426407+211865170
4027+212585644+212643715+212420585+212230788+212110033+212033793+212085488
4017+212214209+212066026+211285070+209926635+208553437+207895035+208248267
4007+209212817+210179779+210924624+211500339+211896197+212127661+212321563
3997+212447629+212281993+211811187+211388057+211331733+211537725+211645412
3987+211622019+211902906+212642108+213190796+212912146+212208898+212048189
3977+212775511+213972853+215076397+215678108+215544565+214707634+213504877
3967+212464592+212049534+212361500+213148186+214092157+214921418+215408594
3957+215606584+215876482+216388920+216984377+217644386+218361785+218588496
3947+217981474+217484725+218208134+219581034+219946006+218835229+217334638
3937+216625031+217317622+219368701+221743416+222796174+221919586+220396232
3927+219925059+220801664+221842630+222043538+221930243+222637509+224108575
3917+224871380+223757004+221353113+219068282+217600937+217096501+218215559
3907+222069708+228634352+235550165+239572379+239675104+236945550+232338223
3897+227020991+223239133+222858543+225461805+228160873+228682360+228702329
3887+230774023+233857227+234933028+234346761+234475727+234343809+231863573
3878+228991636+228988614+231971015+236124343+240306410+243043895+242375955
3868+239670125+238315324+238560501+237745374+234836872+231961232+231498025
3858+234715192+242276374+252651999+258229433+252574116+242132472+234343844
3848+231020545+231526956+234522634+238563244+242885056+247310990+250727020
3838+251114982+248692433+246076628+244308445+242242010+239436950+237193121
3828+236425496+236989471+239519462+245143192+251959163+254935170+253404321
3818+251433850+249610461+245520427+239877689+236017705+236107484+240324806
3808+246353270+250626322+253068018+256322711+259701984+259910788+257685775
3798+256108088+255002378+252829479+250373352+249649489+251487710+255458107
3788+260642757+265916715+270367178+274412015+279695477+286820847+294102487
3778+300073474+306173985+314840109+326776283+340645785+353659734+363397659
3768+370244500+375510526+378626732+379463208+380035988+381541960+382790385
3758+383100587+384549641+389961194+400351948+413263276+422858714+426882570
3748+430731618+438970245+449094263+454288312+454816403+457731876+466985665
3738+481912677+498669979+512247518+520297641+524773348+529195631+536036951
3728+546044896+557619959+567460225+573910316+577773201+579618969+579747411
3718+579638990+581114703+584905611+590022791+593444796+592074498+586081324
3708+578298008+572198370+570043378+570565110+569867592+566514594+563016873
3698+561803913+563744440+569128600+577559435+587303439+595082249+596953803
3688+592166252+584583424+577608945+572726985+571388623+574599413+581678084
3678+590032714+594980013+593784418+591436834+592908109+594447519+588823352
3668+577824109+569610115+567398834+568427658+568759488+568233109+569647781
3658+573109200+574792215+573764439+574810594+581044368+588834044+589850743
3648+581311139+570067207+562037735+558134913+556948472+556845118+557038199
3638+557468806+558047002+558786938+560590603+564683257+570538346+574863598
3628+574983759+572822093+570854487+569911443+571517134+576771770+582735839
3618+585011970+584592194+585236148+587374788+588914337+589071500+588440404
3608+587219163+586043309+586331603+588344737+590836556+592996229+595498600
3598+599090696+602923113+604707595+603449038+601733108+603295439+608473276
3588+612559640+610735395+604753088+599955404+599069033+601181956+603979575
3578+606203679+607942250+609186272+609505908+609277677+609932742+612397516
3568+615419033+615879619+612181723+606296691+601589223+600163300+601671124
3558+604035619+605679082+606452945+606353783+605074331+603536179+603687751
3548+605609830+606757277+605290473+602497118+600450162+599312219+598043878
3538+596260863+594680642+593954229+593650246+593076872+592269746+591343053
3528+589754587+587355361+585106973+583810959+583231785+582852680+582504393
3518+581886015+580514285+578581026+577002797+576312966+576026769+575356679
3508+574289281+573536522+573476564+573411435+572248125+570113608+568432829
3498+567959106+567718296+566627976+565324835+565241292+566638109+568506694
3488+569816369+570170107+569473952+567519065+564244543+560370163+557248297
3478+555929222+556304413+557138024+557007032+555482403+553598514+552816056
3468+553329402+553840617+553088138+550955438+548039511+544989343+542436553
3458+540906403+540511085+540613147+540113707+538760775+537758017+538274857
3448+539684672+540348158+539891241+539198684+538665562+537917380+536994077
3438+536559766+536618536+535938943+533482135+529939689+527115761+526159788
3428+526860625+528289134+529632387+530394300+530021625+527850630+524100184
3418+520451170+518489713+517933251+517467354+516795447+516485909+516387726
3408+515835946+515072670+514966975+515511802+515796043+515448630+515113725
3398+515287589+515576198+515396079+514577597+512993883+510445216+507498472
3388+505628595+505746100+507154063+508522159+509443960+510286691+510863699
3378+510439800+509167686+508193334+508016011+507957835+507545292+507244419
3368+507451162+507755704+507531281+506646901+505487400+504584607+504239988
3358+504385516+504851343+505572026+506370976+506922827+507185440+507452944
3348+507655599+507299590+506342395+505250119+504154244+502893485+501746982
3338+501176578+501091253+501095516+501078989+501001421+500568403+499604044
3328+498391608+497315475+496440005+495661739+495071349+494913558+495286129
3318+496080047+497014008+497540422+497103630+495828720+494560868+493923134
3308+493740639+493529668+493026665+492138127+491030093+490384357+490829674
3298+491937324+492504933+492074361+491329743+490889283+490695258+490745013
3288+491534599+493199446+494942279+495987525+496555623+497144685+497276306
3278+495979209+493442108+491248961+490876040+492352068+494260904+495086269
3268+494645599+493788333+492920376+491817024+490618983+489791486+489246798
3258+488478701+487387473+486321822+485370112+484062847+482105933+480273512
3248+480020892+481978610+485132342+487647745+488338659+487322134+485540517
3238+483831436+482447092+481310722+480408173+479765547+479249370+478565689
3228+477452274+475967302+474597039+473829431+473623421+473535231+473299208
3218+473029887+472897147+472843898+472648546+472106933+471119933+469769586
3208+468397506+467425950+466912324+466398978+465432383+464139619+463017644
3198+462299301+461890218+461705103+461596438+461214712+460387880+459322368
3188+458184914+456977789+455856058+454955501+453971891+452481957+450695972
3178+449396533+448979728+448975849+448720259+448140456+447522883+446787524
3168+445577254+444003498+442662166+441817793+441136558+440347636+439630202
3158+439114584+438486389+437438767+436176191+435080421+434103694+432917113
3148+431575432+430561528+430100103+429896435+429694409+429602655+429619496
3138+429347589+428527430+427416147+426347735+425309792+424200989+423185338
3128+422532474+422242782+421986109+421431393+420575595+419697540+419068121
3118+418714418+418330212+417501562+416248281+415138465+414554818+414137384
3108+413320090+412151154+411211324+410905140+411130751+411529388+411779352
3098+411668835+411186446+410615938+410215659+409765974+408920169+408001652
3088+407739598+408096691+408091694+407035791+405380833+404114169+403729928
3078+403916511+403979963+403475037+402505438+401511345+400892932+400842164
3068+401281052+401790694+401765537+400843456+399209113+397487000+396352376
3058+396075332+396275472+396204053+395379562+393954477+392500567+391476041
3048+390879746+390439390+390037330+389722131+389429539+389039952+388592225
3038+388153127+387650717+387019482+386293732+385485942+384565573+383569035
3028+382671098+382169142+382236438+382569211+382528960+381771519+380502200
3018+379141126+378047593+377487671+377493331+377695602+377555945+376869678
3008+375918981+375118354+374641031+374336874+373860250+372952565+371730660
2998+370585554+369744780+369145061+368700303+368402610+368212184+368079060
2988+367944574+367552611+366536855+364942414+363392453+362492769+362250317
2978+362211288+361984629+361525825+361051822+360752381+360552067+360225199
2968+359716639+359163146+358643127+358120626+357589844+357113884+356745646
2958+356434326+355993062+355319025+354664623+354373359+354308370+353895792
2948+352812915+351370920+350166729+349550903+349471168+349653348+349782384
2938+349562363+348819702+347680606+346568309+345887318+345664852+345561568
2928+345270793+344769012+344106120+343234075+342245013+341492254+341190578
2918+341074401+340716260+340085619+339512314+339151938+338859695+338613889
2908+338618955+338834189+338820527+338306202+337562214+336964486+336484403
2898+335870498+335120011+334488565+334106735+333834199+333484514+333036193
2888+332631057+332402092+332278472+332059919+331722534+331393569+331015617
2878+330448043+329863488+329537598+329325893+328852064+328106434+327439524
2868+327073662+326901684+326669120+326232503+325714964+325377509+325252107
2858+325036699+324499593+323822935+323325312+322999666+322605397+322101520
2848+321701206+321561164+321594498+321505714+320994219+320107184+319317878
2838+319014349+319031051+318930492+318583218+318191919+317909146+317739474
2828+317655617+317527805+317119944+316407157+315689968+315233225+315018656
2818+314873478+314614429+314157127+313638155+313233195+312852692+312332498
2808+311797698+311470480+311303674+311126246+310930928+310765380+310532851
2798+310073313+309339911+308424959+307480377+306671993+306156760+305967137
2788+305906341+305691282+305217908+304593520+303950091+303331993+302747822
2778+302251003+301891639+301568020+301058308+300330357+299679275+299387277
2768+299354992+299219632+298775853+298148635+297577393+297154053+296774669
2758+296228723+295362757+294320551+293561678+293394977+293548156+293449728
2748+292890523+292174504+291671465+291442308+291290177+291013046+290528019
2738+289819233+288913400+287963577+287233879+286897925+286863387+286811168
2728+286435051+285708148+284892409+284249014+283823054+283534114+283323230
2718+283149471+282968339+282755254+282474402+282050504+281446924+280756394
2708+280164379+279781606+279500614+279097697+278541881+278089978+277982134
2698+278145079+278270341+278099813+277598487+276917671+276235579+275652020
2688+275226112+275012958+274992203+275028157+274959446+274711002+274339234
2678+273993725+273770333+273568551+273180711+272571051+271970476+271625578
2668+271526819+271450159+271225824+270905419+270667317+270589260+270543820
2658+270333565+269899586+269351823+268844208+268485560+268319663+268306001
2648+268314160+268171847+267785300+267262537+266839477+266613604+266441592
2638+266135391+265651901+265101990+264675680+264501851+264516858+264543448
2628+264454489+264195283+263796053+263418031+263205191+263108563+263025562
2618+262974251+262973011+262947260+262867386+262782690+262693067+262555175
2608+262376821+262178428+261926857+261597158+261261152+261060314+261075443
2598+261231138+261370778+261416131+261396809+261360226+261330282+261321005
2588+261320272+261282798+261176701+261008794+260784843+260497649+260194890
2578+259999380+259995467+260137535+260324833+260502995+260640364+260667897
2568+260503677+260137063+259695729+259408553+259443459+259785055+260295536
2558+260850985+261374796+261774044+261911064+261695900+261207204+260640661
2548+260116553+259613602+259094298+258612398+258283416+258159831+258116714
2538+257912592+257438711+256857598+256446068+256346208+256458577+256529471
2528+256393343+256148619+256010901+256022554+256026013+255891544+255636601
2518+255340585+255084977+254973744+255064834+255280487+255509749+255737719
2508+255927062+255913243+255620231+255241231+255016372+254950037+254868730
2498+254686079+254521282+254519133+254604004+254558476+254329004+254062024
2488+253883670+253822663+253825301+253722873+253381679+252945901+252696286
2478+252663651+252609598+252377628+252078799+251902629+251859163+251796951
2468+251652175+251538199+251536819+251561243+251505023+251376774+251210387
2458+250982034+250683047+250354170+250023790+249728664+249549367+249480377
2448+249385147+249227740+249146765+249159343+249071119+248801151+248491333
2438+248234730+247988853+247762910+247635954+247604141+247578337+247504316
2428+247407006+247353145+247399197+247536199+247673585+247718501+247677673
2418+247626258+247575140+247466527+247319061+247253897+247339606+247521873
2408+247724773+247916090+248059503+248102270+248059189+248048671+248177759
2398+248422273+248701081+249093743+249955184+251822179+255255400+260787236
2388+268961573+280308020+295215832+313846785+336132412+361740709+390026289
2378+420170809+451463755+483195938+514056040+542067127+565680075+584736149
2368+599952120+611639167+619329926+622775482+622755426+620180379+614439301
2358+603516752+586165007+562724246+534625249+505939845+483352192+472052495
2348+473648439+486655714+505967343+523676285+534798484+540024329+541776561
2338+541775374+541268491+541163425+541816009+542785679+542919850+541121077
2328+537201204+531782138+525418804+518181957+510104895+501465361+492327295
2318+482420572+471831112+461250841+451226509+441523559+431438360+420496455
2308+408712972+396485744+384462569+373271467+363118624+353727658+344748083
2298+336084928+327819362+320029337+312749233+305964307+299632420+293779707
2288+288509417+283876985+279844184+276346323+273308384+270638980+268294244
2278+266290824+264621942+263227850+262018471+260857100+259614493+258320994
2268+257174176+256342871+255804909+255358754+254775055+253997960+253194520
2258+252556034+252107433+251752332+251398839+250991520+250511734+249991557
2248+249491995+249058959+248696329+248361459+248007529+247653040+247360081
2238+247119795+246840900+246498098+246201942+246062600+246075667+246187215
2228+246347732+246451278+246374479+246152379+245968382+245910102+245875231
2218+245765692+245631975+245566566+245559753+245525214+245425494+245323188
2208+245311553+245419938+245586570+245711884+245760189+245823536+246034682
2198+246395181+246764328+247034051+247211916+247336129+247428163+247513330
2188+247599371+247678022+247779664+247924056+248032878+248023252+247947990
2178+247920038+247959014+247994584+247948532+247777760+247512893+247266178
2168+247138768+247104212+247034296+246868450+246701365+246633999+246614992
2158+246530541+246364154+246163787+245954878+245775755+245711168+245822768
2148+246064504+246312197+246538455+246933894+247730346+248935357+250393181
2138+252053380+254028446+256433891+259273840+262459805+265923669+269701561
2128+273849752+278323171+283034691+287982986+293210386+298658977+304141285
2118+309447843+314403423+318775321+322251904+324622688+325853853+325929080
2108+324803925+322549317+319405928+315724035+311833477+307821047+303506556
2098+298785252+293854025+288994776+284316484+279801103+275475291+271467822
2088+267928801+264930012+262449532+260408831+258698177+257237139+256037928
2078+255150316+254542893+254087687+253667161+253272333+252972316+252806610
2068+252764332+252816132+252862672+252749622+252465958+252190784+252052786
2058+252001354+251953607+251906630+251892566+251925375+251992531+252071898
2048+252168282+252331245+252639001+253113196+253602276+253872559+253888701
2038+253839383+253853848+253892492+253897960+253893173+253970846+254229913
2028+254647801+255069761+255378845+255577918+255746192+256036198+256555118
2018+257117765+257346451+257146189+256843359+256769023+256929767+257139306
2008+257298949+257439497+257565143+257620804+257646328+257792344+258079328
1998+258340107+258585512+259158711+260183936+261107222+261255177+260676423
1988+259933535+259370049+259028400+258924260+259017446+259132802+259135545
1978+259083204+259140105+259390891+259757137+260157591+260715451+261568070
1968+262443819+262786970+262476401+262051437+262026123+262338211+262638927
1958+262821369+263027099+263332514+263674722+264024040+264472152+265112157
1948+265960933+267117936+268720588+270355857+270934856+269927259+268237081
1938+267089285+266798475+266991172+267297233+267544647+267688934+267769577
1928+267972546+268717164+270232028+271940410+273036092+273685724+274461089
1918+274862713+273958470+272232495+271184349+271521525+272672519+273583016
1908+273686056+273234921+272808018+272695003+272843762+273144181+273618202
1898+274385932+275350850+276087117+276508080+277237202+278534054+279456746
1888+279085940+277927696+277032048+276700568+276707643+276894278+277167076
1878+277431978+277698137+278123660+279159315+281523269+285353222+289088260
1868+290162541+288010135+284832521+282743532+282097778+282228893+282553001
1858+282863989+283148982+283435337+283770416+284342899+285463669+287344780
1848+290128841+293783655+297160308+297934240+295540045+292444350+290836928
1838+290736701+291081337+291487818+292858063+296053182+300046849+302353239
1828+302270325+301485316+300771341+299329590+297204228+295669186+295383861
1818+295845635+296406501+297143990+298603282+300777071+302634475+303133810
1808+302540275+302120290+302947158+305286077+308440752+310986798+311860556
1798+311570550+311898047+314334590+318521199+321548656+320545863+316873823
1788+314193989+314103808+315763797+317894855+320015396+321752708+322555362
1778+322921050+324634778+329096369+335528361+340454660+340755638+337494185
1768+333529693+330653633+330153774+332497060+335956731+337878845+338203652
1758+338681149+339589778+340667274+343216010+348463728+354808963+358577718
1748+358479186+356726918+355723007+356448128+358739632+361397838+362960518
1738+364093499+367538006+374033870+379083964+377860836+372915563+368327208
1728+365165405+363683507+363970439+365467815+368196670+373585373+382477772
1718+392049066+396047031+392394103+385789365+380599754+378441512+379690007
1708+383935002+389378107+393750355+397420263+403008791+410663666+416155583
1698+416952297+414650660+409791900+403830522+400528258+401492861+405385970
1688+411134350+419682795+430274841+435916478+431976409+424851512+420932303
1678+421745194+426021845+430768585+433931297+436920145+441129046+444047942
1668+442750496+439919894+439996868+443400285+446848915+447856075+448174349
1658+451296250+459648818+473971813+489728174+495085361+491075760+490375797
1648+495569462+500165643+498146430+493176245+491362517+494455348+502139294
1638+513737627+526461779+533818158+533265329+531418372+534136082+542047805
1628+552687056+563692413+574856436+586112317+595767922+603592783+612617502
1618+625093646+638121431+646024978+649321337+652751798+658140536+664219908
1608+669216893+672627438+675141199+677443221+679529799+681320152+683392474
1598+686548512+690908252+695729555+700206764+704455043+709211218+714539299
1588+719615109+723805806+727178336+729986296+732508583+735555397+740432815
1578+747647125+755090296+759364780+761794195+767160711+777067818+788299730
1568+796554219+802434570+809416666+819064235+831823886+849022103+869229607
1558+881801838+881563543+877485285+874992278+874466354+874978302+875218553
1548+875174528+876723512+881023503+887004902+892639621+894021309+885903017
1538+872491166+863128642+859184066+856308530+851018814+845179064+842441823
1528+843294442+845584304+847763615+850339291+853228104+854604760+854171847
1518+853214128+851145509+847107572+842985358+841704229+844784376+852202390
1508+861254781+864074692+856115519+845863968+840351122+839558321+841103881
1498+841968659+839497665+834512350+831391812+833052814+838078101+841628617
1488+840257132+835706268+831264488+828215019+826399649+825639692+826454785
1478+829623681+835110812+841458876+845591083+844032875+837422896+830968472
1468+828172112+828604955+829799153+830051004+830568962+833821576+840378306
1458+846747964+846454952+839248888+831636465+826913345+825108107+825368973
1448+825877847+824853251+822402802+819632787+817211269+816190796+817965705
1438+821917338+824316984+822552837+819347672+818046277+818438799+818336913
1428+816999110+815951174+816359908+817788975+819836071+822809160+825400490
1418+824185468+818683593+812563060+808556780+806759439+806137498+806038616
1408+806414786+807004023+807125476+806801437+807140430+808741895+810866209
1398+812636715+813851388+813957188+812107226+809247344+807713106+808222189
1388+808880748+807583127+805259652+804831770+807484944+811952510+816580313
1378+821073944+826096784+831432273+835296206+836508083+836375030+836802143
1368+838268527+840594657+843768445+846904707+848125948+847044050+845633920
1358+845487589+846233429+846798418+846832799+846554114+845951459+844917989
1348+843859780+843419809+843831128+845160126+847604636+850750471+853146063
1338+853641520+852730620+851811195+851939567+853518180+856226630+859127882
1328+861340176+862687413+863783497+865750509+869445540+874371246+878785492
1318+881557883+883464867+885895540+889087916+892501326+896218439+900835271
1308+906071178+910574244+913303029+914566199+915585833+917343202+919841031
1298+922351717+924509644+926667920+928722214+929522212+928393563+926324315
1288+924547380+922783302+919761087+915199531+910528611+907503530+906527851
1278+906588648+906751610+907060135+907689204+908247624+908495702+908929803
1268+910093951+911830635+913626858+915243766+916780171+918394632+920125936
1258+922033968+924242279+926538571+928403486+929917459+931915638+934596555
1248+936677124+936647005+934601586+932306623+931456520+932073849+932646594
1238+931818643+929691464+927353593+925602863+924339903+922874917+920787500
1228+918562766+917002043+916227621+915748377+915298762+915240831+915997083
1218+917379890+918846483+920108605+921140119+922079181+923390778+925517469
1208+928187694+930478534+931551767+931327449+930718226+930926612+932257706
1198+934314305+937277891+941469636+945548803+947112182+945876335+944435108
1188+945315750+948761584+953116362+956275405+957172468+956939694+958249195
1178+962420186+967474752+970232538+970227367+969806893+970504725+971247211
1168+970359163+968268112+967302845+968933659+972097594+974705555+976430848
1158+978814491+982562002+986292323+988396651+988889242+988689662+988314540
1148+988098888+988749410+990887142+994238986+997422907+998734015+998061410
1138+997629825+999559590+1003214229+1006442524+1008547551+1010285074+1011852436
1128+1012690240+1012937409+1013674095+1015353687+1016901622+1017079888
1120+1016065425+1014912877+1014148448+1013723292+1014136289+1016490721
1111+1020775199+1024901884+1026309638+1024685253+1022721316+1023383998
1103+1027380426+1033273984+1038755594+1041798145+1041638397+1039566703
1094+1038398292+1040194515+1044110719+1047102606+1046758512+1043032664
1085+1037767196+1033217939+1030888594+1031505295+1035361681+1041836230
1077+1049015251+1054975825+1059320190+1062489087+1064580487+1066063712
1068+1067367133+1067690892+1066070421+1063428917+1061955824+1062409073
1060+1063597680+1064121298+1063692298+1063019973+1062692440+1062600896
1051+1062774411+1063705925+1065348899+1067041068+1068191311+1067890053
1043+1065603825+1063091531+1063184473+1066394948+1070518070+1073220650
1034+1073741823+1072363769+1069441273+1065479017+1061420675+1058329626
1025+1057005031+1057881759+1060759530+1064323394+1066709413+1067145471
1017+1066420874+1065313609+1063539399+1060914876+1058511946+1058027041
1008+1060238917+1063860502+1066360497+1066195647+1063644290+1060148700
1000+1057390285+1056374424+1056478827+1055733475+1053168212+1050831459
991+1051708257+1055588053+1058697131+1058325573+1056323062+1055699443
983+1055775753+1053531523+1048616929+1043841467+1041110515+1040183403
974+1040669147+1041779626+1041827635+1040662228+1039735885+1038971596
965+1036379708+1031331221+1025877494+1022099165+1019728101+1016810357
957+1012401352+1007757756+1004744624+1004007449+1004825617+1005940988
948+1005645252+1002085580+995292303+987910977+982915181+981348448+982507075
938+985292604+988239069+988995811+986104692+981362144+978176547+977664528
928+978049153+977843983+977699399+978395204+978888565+977409392+973873062
918+970204795+968205778+968169230+969684531+972382569+975290179+976653489
908+975530920+973132322+971437288+970904375+970881803+971516463+973210100
898+974571523+973368590+969536593+965516965+963807954+965040166+967516122
888+968392011+966481952+962917809+958982737+955400424+953342986+953925165
878+956691896+959671205+960537450+957926415+953169541+949945998+950326291
868+952436699+953619995+953761783+953491903+951940823+948739013+945928606
858+945902471+948961514+953472336+957068275+957851642+956059193+954521949
848+955929214+959442065+961391956+959851288+956446963+953299870+950574718
838+947759001+945783603+946060682+948153479+950099247+950718394+950485969
828+950531741+951980795+955448572+959604119+961183151+958238084+952714336
818+948655854+948525736+951715177+956061429+960011246+962923399+964266862
808+963639051+961091397+957065061+953186732+952376042+955844518+960755409
798+963200408+962581751+960833886+959347725+958768971+960268688+964588106
788+969835823+972862791+972931414+971870271+971134842+970695221+970222266
778+969642393+969027789+968668670+968075590+965854490+962222562+959770156
768+960274488+961974205+961793073+959567012+957634452+957281762+958163521
758+960015159+962623050+964863227+965854700+966177900+966378388+966088941
748+966059451+968515002+973750840+978504149+979303448+976595488+974028896
738+973975018+975259781+975338956+973439450+971370342+971606330+974463556
728+977035179+975944056+971531837+966941490+963879652+961776372+959695733
718+957754577+957135082+958757440+962007748+965435973+968569090+971566008
708+972869500+970267199+964619762+959074630+955680158+954604269+955272542
698+957136899+959550241+961666868+962172388+960085599+956949058+954980858
688+952121675+944672355+935083067+929929129+931242055+934641349+935764197
678+935329747+935877684+937135194+937242182+935806196+933203406+928955547
668+924530538+924611461+927730951+927655270+923382393+918922304+917210079
658+916841386+916043834+915757461+916207845+914904074+910020995+903406264
648+899667279+902044353+908187317+912235386+911875010+910817919+913601701
638+919035372+920172057+913001981+902364058+895071202+891997204+889117056
628+883054316+874912824+869056861+867392784+867192015+866442891+867107879
618+870206614+873428271+875619810+877933502+880246565+880487445+876978997
608+871246235+869160844+875968237+888166325+893438920+887694628+883528948
##END=
