##TITLE=<SNM>
##JCAMP-DX=4.24
##DATA TYPE=INFRARED SPECTRUM
##DATE=3/5/2025
##SAMPLING PROCEDURE=Instrument type and / or accessory
##ORIGIN=Admin
##XUNITS=1/CM
##YUNITS=ABSORBANCE
##RESOLUTION=4
##FIRSTX=4497.3318
##LASTX=599.83466
##DELTAX=-1.4281778
##MAXY=1.7171426
##MINY=0.17590161
##XFACTOR=1
##YFACTOR=1.5992137e-09
##NPOINTS=2730
##FIRSTY=0.1902041
##XYDATA=(X++(Y..Y))
4497+118936015+119907517+121210240+121910286+121918682+121884373+122129777
4487+122325646+122251896+122354522+123199433+124515060+125190964+124495372
4477+123056302+122248271+122761580+124145432+125551554+126435683+126566235
4467+125880361+124674944+123696090+123580512+124114236+124372749+123825179
4457+123033035+122930483+123578341+124023648+123519331+122488260+121911349
4447+122115791+122639218+122945783+122783076+122160665+121435162+121141046
4437+121414430+121789938+121680668+120915331+119865541+119124272+118915143
4427+118882447+118610115+118113598+117605619+117056744+116307145+115401539
4417+114579634+114123164+114258188+114908608+115579108+115828620+115747471
4407+115557155+115039719+113997159+112942756+112563587+112771551+112981518
4397+113032952+113189855+113521746+113854708+114069353+114112765+114052507
4387+114168364+114563225+114767443+114242357+113201595+112393462+112114916
4377+112003111+111783863+111580139+111420683+111162338+110984787+111283674
4367+111980665+112502024+112484665+112056838+111477438+110931247+110659577
4357+110915668+111665155+112491812+112898571+112661265+111938110+111153514
4347+110701768+110607369+110577189+110480573+110496543+110654545+110692404
4337+110566408+110598424+110899566+111130341+111007951+110636851+110304336
4327+110317874+110831733+111487101+111648578+111279826+111036352+111254221
4317+111457451+111132139+110454949+109992562+110051739+110579910+111427588
4307+112339894+112854079+112678149+112141388+111845063+111962430+112245002
4297+112462106+112496564+112295588+112016809+112032602+112603942+113597556
4287+114565592+115167680+115467322+115659884+115604331+114975221+113889836
4277+113003313+112875025+113400484+114013335+114384808+114651865+114963872
4267+115163869+115104356+115008616+115212499+115670068+116021406+116086947
4257+115999667+115942363+116015973+116176566+116138009+115751236+115513613
4247+116084590+117301309+118256542+118276603+117520594+116811574+116906308
4237+117655544+118118042+117785462+117152811+116806421+116704708+116680575
4227+116954910+117713687+118536505+118710366+118121574+117440284+117279496
4217+117581234+118076336+118799453+119746720+120450969+120353374+119447162
4207+118321021+117666455+117785285+118441370+119199653+119942916+120803955
4197+121560720+121670931+121140542+120666685+120643540+120736103+120644593
4187+120573629+120716992+120853312+120654134+120124967+119661099+119708536
4177+120338932+121225260+122025389+122625111+123017447+123107494+122753082
4167+122111020+121822159+122421079+123509483+124041212+123557087+122642349
4157+122118204+122233288+122703409+123162693+123419892+123519509+123683809
4147+124027608+124284016+124052860+123379835+122772696+122587616+122712000
4137+122859398+122886559+122807647+122688453+122624981+122810750+123432182
4127+124328098+124940064+124836049+124151181+123352533+122743792+122384777
4117+122348708+122771960+123568287+124299977+124537050+124298934+123994036
4107+123962123+124208924+124635800+125321199+126247361+126925017+126864014
4097+126305476+125860169+125628053+125335269+125031854+125044880+125522287
4087+126329395+127132720+127571971+127595582+127463428+127324397+127114551
4077+126845984+126574025+126148443+125444977+124765513+124597793+125011177
4067+125608616+126032045+126215643+126181484+125910551+125473135+125080055
4057+124949959+125165909+125639086+126206577+126718786+126983943+126808032
4047+126317692+126016801+126194166+126527948+126612517+126567828+126741037
4037+127068055+127139494+126818617+126500461+126657046+127204775+127554826
4027+127415861+127236064+127556848+128256187+128820967+129049337+129086021
4017+129046914+128938297+128787358+128634965+128449979+128175886+127883838
4007+127763620+127895951+128178532+128537193+129010920+129534990+129844211
3997+129739088+129284546+128628750+127863777+127218714+127079609+127595042
3987+128493027+129393770+130045886+130273464+130035561+129604138+129504866
3977+130173344+131520754+132799334+133187412+132626517+131791493+131255094
3967+131108973+131343586+132062203+133153895+134102066+134406581+134065866
3957+133467598+133003897+132947077+133482013+134610716+135966596+136863398
3947+136897109+136493257+136322788+136302065+135836175+134940706+134278424
3937+134284499+135018612+136428275+138096376+139100966+138871757+137997878
3927+137609633+138152982+139004676+139391402+139507092+140121275+141257115
3917+141851908+140911369+138729922+136568004+135448153+135622555+136963974
3907+139486937+143168635+147310968+150581294+151931966+150933656+147747255
3897+143742193+141147370+141234324+143137896+144496767+144154338+143818925
3887+145098408+146873022+147300923+147158734+148006160+148641010+147167586
3878+144900396+144420165+146200248+149295530+152935577+155749592+155937504
3868+154270725+153173843+152935065+151934742+149732060+147689280+147138784
3858+149029982+154305527+162323844+167557114+164468858+157025236+150923099
3848+147989444+148017444+150013765+152840275+155967228+159387095+162435676
3838+163568460+162324123+160060269+157868144+155818049+154136409+153473382
3828+153856903+154833605+156918100+161017469+165614799+167097094+165511148
3818+164136473+163155029+160527781+156827047+154567907+155148127+158348439
3808+162240785+164545395+165924076+168523613+171531400+172189442+170932172
3798+169992993+169260539+167916148+166778649+166939008+168305669+170450498
3788+173368760+176807924+179963045+182745453+186250886+190821326+194856662
3778+197117497+198871946+202141769+207810871+215545600+223862244+231032444
3768+237041236+243113128+249799435+257487743+267269482+279498281+292443414
3758+304102448+315172858+328414354+345985983+367189095+386989357+400826633
3748+410996048+421525205+432168673+439283600+443058541+448042262+456936965
3738+469513504+483650292+496240100+504862685+509376789+511208670+511549590
3728+511394020+511929011+513485904+514872505+514736316+513312108+512265868
3718+512921767+515443500+519846312+526363148+533732787+538795672+540356479
3708+540817375+542997778+548052986+554843653+560147385+561740208+561289003
3698+561887877+564767004+569500561+575874051+584059631+592142082+595651055
3688+593718878+591254319+591391402+593241508+595357172+597477010+600271979
3678+604038049+606545209+604442516+599475493+596252464+595418856+593864646
3668+590175540+587014382+587361675+591338440+595920526+598678112+601309684
3658+606323371+612384492+616688498+619995871+624040656+626592877+624057279
3648+618732526+615769017+616121006+617712263+618432903+617653971+616622229
3638+617235825+620288040+625080747+630429502+635959135+641988575+647572698
3628+649878147+648045446+645053089+644592417+648526618+655140172+659933251
3618+661110724+661695956+664310383+668626614+673113548+676337955+677591163
3608+677958657+679293563+681454847+682557702+681426893+678768263+676569410
3598+676826805+680175475+685001129+688685016+690331808+691588295+694317741
3588+697622059+698290481+695192497+690680890+687595951+686823021+687230097
3578+687672879+688342494+689577811+691227212+693694492+697506741+701412244
3568+702766456+700821122+697718964+695446910+693751219+691814233+690844287
3558+693075417+698289810+703179943+704643137+702725085+699871377+698012661
3548+696839587+694735403+691525680+689146136+688964178+690621480+693133113
3538+695249894+695902514+695444152+695108860+695123023+694457210+692315979
3528+689654142+688856166+691277602+695372740+698149670+697994547+695068682
3518+690538961+686420566+684261891+683872109+684641760+686779190+689936658
3508+692396335+692869158+691464331+688786394+685967273+684911454+686607220
3498+689653323+691734324+692481463+693362331+694775134+695126452+693318873
3488+690952597+690521295+692215644+694111333+694869504+694869952+694634398
3478+693734298+691956237+690058610+688705590+687538926+685947445+684195549
3468+683193996+683187735+683113043+682085178+681186941+682320508+684966168
3458+686149977+684733372+683434918+684904447+687853719+688621357+685706449
3448+681297264+678519738+678720332+681409078+685124646+688061096+688924670
3438+687557189+684912423+682692177+682267061+683285162+683823656+682738915
3428+681411314+682007579+684325849+685617446+684033941+681107777+679500046
3418+679626768+679819684+678848992+677376555+676965081+678171848+679843165
3408+680668126+681088769+682342722+684071510+684653239+683546358+681502703
3398+679205081+676888451+674984190+674650836+676778427+680577706+683435588
3388+682653564+678420820+674291393+673287082+674649793+675304275+673673734
3378+670951593+669138795+669154449+670592224+672449747+673834895+674121883
3368+673350667+672929204+674718297+678682539+682459306+684045420+683907815
3358+683432830+682554273+680326200+677139883+674783373+674407306+675459249
3348+676416449+676390806+675984401+676312238+677485089+678466738+678187801
3338+676644772+675150047+675133797+676334675+677114762+677001905+677287999
3328+678700429+680494964+681910972+682642755+682276006+680872819+679316373
3318+678041772+676529008+674487663+672581240+671759633+672398984+674113460
3308+676009298+676825016+675676689+673624760+673212018+675208116+677143759
3298+676441644+673928967+672548367+673526960+675306363+675927674+675472667
3288+675471027+676681298+678358056+679193974+678263685+675728869+673252495
3278+672780194+674734622+677761343+679879467+680067165+679076645+678216574
3268+677441183+675614894+672758204+670438517+669581130+669636963+670062078
3258+671166573+672973855+674335745+674106006+672681500+671414353+671008991
3248+671093820+670742427+669217736+666995849+666041035+668065235+672274796
3238+675583362+675649780+673106988+670202963+668381892+668040040+669124111
3228+670745856+671425310+670624203+669191721+668095872+667632516+667710488
3218+667851969+667128759+665086445+662507351+660591386+659756511+659728110
3208+660305889+661420895+662723375+663676698+663935957+663359967+661905570
3198+659889793+658143562+657269626+656713689+655459139+653913278+653791476
3188+655581836+657443832+657334851+655180202+652239055+649618888+648012722
3178+647667591+648117603+648593631+648721994+648520431+648119989+647606615
3168+646888771+645712268+643950979+642005943+640620497+639933142+639357376
3158+638748215+638685972+639130170+638993534+637562766+635248820+632907442
3148+631460722+631646258+633146723+634664333+635498463+636096517+636640676
3138+636252832+634110333+630629947+627263461+625381190+625133523+625359423
3128+624798939+623160571+620943939+618679638+616630764+614947261+613904226
3118+613814663+614503025+615052925+614709433+614044514+614211415+615078455
3108+615202345+613655440+610898264+608015224+606099185+605933551+607211768
3098+608541791+609002836+608960235+608844546+608322115+607294324+606569808
3088+606759034+607190113+606584195+604506287+601853806+600070490+599899676
3078+600813008+601665214+601728351+601015838+599922002+598838453+597916027
3068+596894572+595388330+593503599+591848459+590903000+590687572+590908963
3058+591176645+591251672+591189355+590976312+590171291+588375974+586016221
3048+584280575+584046847+584934089+585605902+585019887+583277159+581318817
3038+579983650+579371135+578915755+577939138+576246055+574284396+572677299
3028+571737542+571591700+572352890+573643443+574391887+573892005+572623777
3018+571279665+569880392+568514923+567711803+567483629+567181508+566748416
3008+566833693+567316094+567119899+565842726+564258326+562996472+561915159
2998+560818938+559727860+558433580+556675757+554705079+553135588+552404736
2988+552454531+552662318+552262621+551040610+549435599+548070280+547326458
2978+547035146+546615323+545719547+544459108+543115257+542073937+541708455
2968+541844420+541852136+541517552+541044096+540230987+538751692+537072698
2958+536078414+536040658+536378335+536198837+535176077+533936586+533273419
2948+533075732+532471976+531025591+529215216+527578712+526038777+524436151
2938+523127410+522528051+522518063+522683733+522747802+522526449+521786913
2928+520398523+518612784+516991821+515948637+515375331+514855062+514220110
2918+513550570+512769589+511780969+510856904+510410432+510438646+510479719
2908+510092546+509190545+507940282+506586256+505408858+504530934+503685772
2898+502469165+500874702+499338643+498284986+497832625+497812983+497859833
2888+497632963+497118024+496554595+496048116+495494042+494905045+494455331
2878+494018922+493150428+491754584+490215506+488760065+487385949+486417047
2868+486248991+486526028+486381713+485528948+484529595+484000008+483935566
2858+483816708+483169158+481915503+480269196+478578089+477271882+476581470
2848+476299513+476104212+475918005+475690240+475235121+474504978+473560190
2838+472311939+470842037+469725801+469459908+469829192+470163664+469899336
2828+468834796+467286139+465942996+465181955+464694559+464004073+463014708
2818+461905964+460849772+459946243+459168281+458361694+457465098+456654896
2808+456161910+455986139+455876188+455604220+455166321+454647878+454044606
2798+453381887+452796169+452230653+451299469+449800756+448146585+446918871
2788+446170651+445469430+444486066+443260700+442007083+440901432+439973565
2778+439094039+438147052+437181019+436321023+435623604+435023798+434318999
2768+433297879+432021377+430850986+430061955+429479927+428614750+427219092
2758+425622244+424392331+423776312+423624469+423616531+423344339+422496568
2748+421166880+419738497+418482383+417465661+416638426+415820770+414802073
2738+413543946+412237478+411239765+410824489+410798660+410624305+410061025
2728+409294207+408421986+407338027+406091156+404882487+403753467+402617813
2718+401533072+400666367+399966972+399108765+397944859+396821952+396145591
2708+395821667+395444482+394851758+394190492+393563814+392881191+392067039
2698+391218150+390418943+389562152+388563283+387585435+386813921+386204276
2688+385638275+385087220+384489464+383727156+382807861+381875335+381042957
2678+380348855+379801043+379314206+378685813+377837334+377007789+376449876
2668+376020698+375394541+374582848+373898996+373502952+373246116+372824504
2658+371967452+370703921+369426002+368478605+367870078+367531394+367454765
2648+367368035+366749071+365453487+363969011+362854043+362222854+361853348
2638+361512390+361110942+360721421+360453701+360251170+359919940+359409287
2628+358885552+358469382+358059771+357499845+356811707+356144664+355529540
2618+354859142+354167724+353693373+353522894+353405714+353099083+352702033
2608+352453024+352315307+351949602+351113161+349974972+348942709+348267727
2598+347943169+347866539+347884690+347749247+347252869+346434020+345537573
2588+344781489+344220668+343789440+343430183+343190566+343162688+343310319
2578+343443154+343415386+343240957+342970890+342608166+342170565+341691033
2568+341198830+340818514+340739313+340951312+341181946+341188878+340952653
2558+340555789+340060902+339548236+339131358+338839151+338549852+338177438
2548+337881207+337874088+338045498+338078632+337933647+337850942+337869354
2538+337721648+337247819+336609028+336077950+335852422+336029610+336519130
2528+337014427+337254528+337281214+337276816+337238576+337011296+336557296
2518+336009371+335531778+335247100+335176956+335165066+334996936+334658364
2508+334338652+334169478+334089531+333950360+333653346+333203594+332691301
2498+332233387+331913898+331735853+331591912+331320428+330862216+330363713
2488+330052871+329960550+329836363+329466819+328982032+328645174+328479504
2478+328355093+328264337+328246372+328230346+328151704+328009998+327739447
2468+327269829+326713929+326282179+326056949+325974021+325932463+325848417
2458+325687554+325502577+325380029+325306456+325158228+324884397+324598303
2448+324378626+324107515+323666298+323173498+322874173+322878832+323071114
2438+323174207+322939174+322418234+322005493+322034527+322368999+322554312
2428+322353382+321963227+321704453+321670686+321712504+321650075+321454214
2418+321243073+321113742+321047660+321011954+321027943+321069538+321042405
2408+320931933+320829996+320789072+320813559+320969800+321294954+321616530
2398+321678065+321446835+321141919+320984522+321005432+321042181+320891121
2388+320494108+319889494+318935090+317248828+314512338+310710151+306057212
2378+300845037+295377927+289932284+284694933+279720697+274974375+270487497
2368+266477151+263258278+261031770+259791365+259511738+260437685+263052243
2358+267637218+273932122+281517039+290444223+300654115+310646865+317850609
2348+320432946+318587498+314637532+311239365+308894894+306428732+303228140
2338+299579884+295760162+291841484+288095577+285052177+283101476+282181007
2328+281915021+281971021+282228975+282756810+283683653+285053705+286798222
2318+288751122+290656967+292340751+293904073+295586888+297460549+299396267
2308+301235528+302863441+304230401+305388585+306412202+307284404+307973344
2298+308557235+309132032+309681242+310181944+310726849+311374585+311985964
2288+312363987+312486964+312497642+312497642+312424106+312164083+311772027
2278+311470466+311394451+311440071+311402502+311192497+310919355+310774966
2268+310796900+310806255+310651803+310397427+310183099+310046332+309969199
2258+309976542+310095754+310268599+310379034+310375605+310303783+310215171
2248+310140479+310158109+310364368+310725805+311039610+311136814+311131726
2238+311338414+311870274+312487821+312931479+313200726+313431845+313739817
2228+314219498+314874726+315541806+316062299+316502434+317076821+317909721
2218+318971914+320199143+321567705+323072493+324713433+326503235+328441487
2208+330472396+332483439+334395229+336288011+338339941+340589520+342909243
2198+345223823+347560133+349940310+352395179+354945052+357477632+359811965
2188+361858118+363614674+365143166+366550789+367907275+369299168+370866460
2178+372505611+373783679+374429179+374576922+374438721+374156764+373915619
2168+373800525+373630420+373175301+372473074+371775096+371185688+370573285
2158+369897968+369293205+368759481+368178050+367565907+366997298+366502634
2148+366108975+365770888+365740661+367155514+371241111+377788173+385387850
2138+392968220+400202042+407020476+413601269+420254592+427007131+433718336
2128+440330549+446759685+452968735+459057995+464939282+470202351+474338301
2118+476857948+477545825+476818850+475524831+474431777+474117991+475216374
2108+478583232+485057765+494893268+507410732+521039327+533558432+542617686
2098+546296430+543596578+535315024+524015881+512006833+499957383+487742225
2088+475212237+462068727+448250795+434245724+420607774+407880323+396748528
2078+387517229+379926759+373705335+368646027+364382573+360674086+357512778
2068+354861304+352732931+351166533+349863009+348439547+346939082+345577751
2058+344427822+343557725+342947297+342410256+341942912+341765688+342006870
2048+342774620+344325773+346947655+350927140+356547081+364031664+373829485
2038+386714258+403062235+422267126+443049261+463826214+482799465+498277457
2028+508924988+513874084+513244908+508319330+500795948+492029608+482707964
2018+472988971+463090555+453489489+444433327+435761023+427228112+418661173
2008+409993303+401357114+392970680+384996241+377637821+371123408+365464668
1998+360477406+356116039+352540388+349699724+347081682+344217799+341294356
1988+338830020+336974733+335510794+334255276+333151750+332178933+331339325
1978+330636427+330055629+329558245+329021017+328336457+327666097+327318766
1968+327268562+327106656+326610837+326040065+325695866+325514243+325279993
1958+324979513+324707246+324434719+324085712+323709309+323454933+323424296
1948+323601894+323974606+324588463+325208693+325155358+324059845+322514171
1938+321396518+321020825+321194471+321580713+321864980+321904115+321793904
1928+321790699+322233965+323231977+324304866+324891329+325196282+325674956
1918+325945769+325307798+324084109+323313675+323458251+324071921+324397672
1908+324101925+323516468+323165038+323174803+323303650+323393958+323572561
1898+324010685+324586525+324947534+325094979+325565640+326551575+327258611
1888+326858951+325692772+324687381+324228162+324156862+324255966+324373594
1878+324411462+324379185+324413661+324882980+326349081+328894482+331312862
1868+331757769+329945605+327503818+325873426+325279173+325307649+325536270
1858+325706861+325785466+325893627+326105961+326472076+327130398+328249503
1848+330040199+332565734+334922580+335266407+333197817+330682867+329400327
1838+329302005+329522986+329766106+330754688+333199009+336346266+338234202
1828+338141062+337248043+336337246+335152991+333839478+333136990+333296213
1818+333868512+334421617+335055377+336138889+337605250+338734009+338932740
1808+338509711+338307738+339004971+340868346+343520976+345820946+346715977
1798+346549263+346895475+349021351+352553470+355136775+354586279+352008117
1788+350235200+350483836+352059850+353956657+355891518+357731225+359063820
1778+360023070+361743956+365402574+370739552+375270391+376391248+374652732
1768+372286792+370743875+370933362+373171238+376274254+378369157+379303360
1758+380204355+381314851+382617927+385114689+389561854+394682211+397905613
1748+398367291+397466893+396751062+397027540+398440306+400274124+401520064
1738+402744610+405967341+411529399+415815515+415308850+412230732+409769564
1728+408628729+408805358+410267955+412573515+415685849+420664948+428239467
1718+436445322+440679072+439175700+435246344+432294575+431721754+433835032
1708+438295875+443828490+448798197+453350318+459319267+466874292+472943910
1698+475656249+476297202+475173251+472835078+471923983+474113369+478863027
1688+485444901+494460549+505335881+512703358+512696761+510030527+509744172
1678+512999850+518770926+524970583+530254077+535559524+541739502+546887552
1668+548885960+549796422+552964587+558560898+563825309+566842862+569210479
1658+573685485+581889589+594035124+606699922+612025495+611089913+612440175
1648+617740888+622362184+621911090+618834425+617714053+620223002+626257436
1638+634831010+642894638+645277835+641308301+636754577+635534988+637515805
1628+640803425+644108338+647648731+651404552+654294637+656507579+660112153
1618+665896721+670857744+670988939+667241914+662995231+659485251+656294984
1608+653087721+650323538+648773130+648886881+650731360+654048349+658192611
1598+662315404+665691655+667824538+668514428+667981151+666692611+665047683
1588+663353333+661940530+661051611+660601599+660340253+660560079+662278356
1578+666008907+670110158+671855271+672067046+674077679+678713623+683682398
1568+687038895+690333150+695902961+704216008+715488391+731538124+752541426
1558+769727036+776508237+780395625+787242945+796933462+807616512+817792152
1548+826629083+834330734+841598100+848674116+855151780+858453562+854333005
1538+845551235+839402303+837520480+837075759+835491434+833768460+834391784
1528+837787416+842312217+846411156+849977714+853072344+855300417+857014297
1518+858604958+859457202+859562828+860251377+862538339+866566016+872263146
1508+878190761+879588879+874126707+867749825+865264282+866849501+870743449
1498+873994245+873729619+870501037+868177251+869415476+873515012+877072326
1488+876872776+873219302+868887417+866236091+866156406+868386045+872218570
1478+876853022+881428661+885124997+886934440+885676238+882093132+879353250
1468+879551757+881957838+883783531+882971019+881330116+882361410+887028960
1458+892147044+892184613+886763887+880840297+877080004+875725121+876232904
1448+877257937+877434751+876650938+875599889+874825766+874867584+876227015
1438+878271938+878744611+876477403+873727979+872678795+872726874+872086406
1428+870576251+869742791+870549490+872550880+875003326+877483651+878952361
1418+877842424+874490996+871029692+868838368+867971290+867762944+867642484
1408+867661268+867716206+866805223+864598916+862884663+863461100+865910490
1398+868508592+869972084+869302618+865980485+861538054+858334593+856720003
1388+855062850+852310222+849919124+850218561+853608378+858490759+863333260
1378+867861340+872059198+875178948+876748365+877833628+879949813+883234601
1368+886701420+889744168+892443127+894475079+895086103+894651745+894658602
1358+895574282+896326937+896134915+895712483+895992689+896631368+896904641
1348+897273551+898715053+901057549+903339964+905465616+908206691+911644738
1338+914656849+916237521+916503787+916205468+916182956+917226848+919560549
1328+922543513+925463714+928233934+930805052+932675918+933720183+934733215
1318+936447020+938686946+940867164+942554432+943460048+943633210+943658256
1308+944033056+944476509+944403233+943949344+943883449+944407930+944682469
1298+943951730+942762256+942393718+943008544+943141081+941668197+939450112
1288+937967164+937282641+936377770+934584578+931926692+929002467+926917067
1278+926250807+926014657+924621831+921898721+919213628+917733439+917357819
1268+917251298+916776016+915799659+914497924+913043303+911369080+909113127
1258+905976381+902299203+898899844+896124330+893419856+890178005+886756433
1248+884097802+882460925+881172906+879593426+877781821+876112741+874736315
1238+873619148+872756095+872209774+872065981+872298181+872780396+873451725
1228+874258573+875021589+875693291+876655708+878327844+880523194+882688279
1218+884818702+887530407+890928424+894005611+895779870+896594321+897612049
1208+899507365+902191489+905125181+907563539+909290762+911117350+913830247
1198+916971913+919558834+921588401+923832799+926438952+928535906+929289679
1188+929093483+929470370+931637766+935312634+939234386+942533187+945192861
1178+947342964+948715364+949200189+949517367+950724358+953178295+956354027
1168+959391035+961504686+962301172+962072475+961509084+961067792+961044535
1158+962114070+965083543+969742893+974205599+976303373+976068862+975880494
1148+977975956+982306648+986628246+988779169+989047521+989894174+992812585
1138+996535384+998783659+998565547+996728300+995404873+996523010+999902019
1128+1003334773+1005298221+1006766260+1009577106+1013765422+1017180957
1120+1017967380+1016793038+1015949739+1016757258+1018357311+1019460316
1111+1020292135+1021582539+1022776411+1022750992+1021830542+1021728344
1103+1023682101+1027549959+1032217285+1036042207+1037401712+1035969379
1094+1033464380+1032083631+1032122765+1032122616+1031547298+1031684754
1085+1033287566+1035563868+1038228015+1042205823+1047374074+1051705959
1077+1053582267+1053533144+1053407018+1054937598+1058294915+1061522453
1068+1062570893+1061594387+1060415424+1060391794+1061953681+1064991062
1060+1068053787+1068587437+1065927688+1062776630+1061753908+1062299335
1051+1062411894+1061451862+1059885054+1058313029+1057776547+1058979885
1043+1061324692+1063734724+1065390610+1065438093+1063311994+1060135666
1034+1058495583+1059694524+1062623967+1065775770+1068941663+1072110089
1025+1073741823+1071993206+1067564715+1063363801+1061312765+1060996855
1017+1060911429+1059948564+1058065846+1056244550+1055545417+1055887939
1008+1056434932+1057020463+1058206582+1060090493+1061499271+1061245305
1000+1059949533+1059091475+1059037954+1058680299+1056955685+1054387996
991+1052259362+1050403256+1047461513+1043467305+1039654236+1036101766
983+1032114193+1028430306+1026728502+1027246199+1028387891+1028074067
974+1024826104+1018548289+1010928039+1004711944+1001760511+1001494618
965+1001212326+998209756+992067683+984714966+978490224+974468883+972305885
955+971138998+970144229+968258454+964893832+961259143+959085485+958077373
945+956661440+954701868+953086161+951653753+949974834+948945924+949609352
935+951433629+953072594+953942802+954224573+954065574+953459916+952688551
925+952210883+952057102+951880437+951622818+951421106+951049586+950413516
915+950190112+950939860+951982858+952013048+950609861+948655432+947337671
905+946926793+946783597+946463139+946008952+945422974+944790705+944419856
895+944054226+942748913+940422891+938553068+938349940+939108931+939285969
885+938382068+936700539+934582043+932843713+932648710+934105121+935788289
875+936259173+935367720+933948060+933134429+933495885+934123533+933502147
865+931722073+930578145+930890403+931309406+930506584+928960201+927951791
855+928254508+930290486+933909223+937370378+938202644+935789780+932184087
845+930103533+930493614+931643655+930615043+926519085+922043110+920781106
835+923772122+928994193+933490891+935699807+935862086+934663518+932411665
825+929716062+928003971+928721665+932132057+936938628+940724340+941387470
815+939341876+937649390+939013293+943179470+947429880+948968585+946906070
805+942947941+940313910+940804399+942694124+942817939+940932910+939877314
795+941094667+942851111+943337276+943105449+943748005+945414774+946837715
785+947046434+946093558+944748588+944165517+945260546+947496372+948610558
776+946695413+942705678+939812463+939807766+940918747+940168925+937372614
766+935077079+935057326+936744296+939015082+941449042+943326915+943298216
756+940919492+937571642+935073501+934096474+934525242+936425850+939770793
746+943476224+945721442+945853531+944979819+944475465+944686495+945063456
736+945422154+946428924+948295541+949887917+950134653+949494258+948817860
726+947904939+946430788+945253837+945514661+947224441+949242305+949482853
716+946053305+940082083+935725524+936092124+940387557+945270236+947984476
706+947420562+943433883+937259160+931534897+928321596+927050573+925252013
696+921757687+918613412+918811621+921824179+923073287+919825845+915134740
686+912791200+911620809+908194839+903213018+900659642+902083999+905104831
676+906229826+903885093+898911249+892361204+884900848+879833825+881451247
666+887171634+890623620+888913467+883253982+877686630+875997648+877850251
656+879009461+876795103+873319636+871264203+870458697+869416445+866638099
646+861673945+856882730+856077671+860195694+865462341+866493710+861005747
636+851761887+844521580+843061145+845662005+847345844+845757047+843193085
626+842299246+842253626+840012806+834250526+827219012+822625185+821876779
616+822828015+823045083+822605282+821954005+819983848+816202981+812408398
606+811018480+813219644+818023233+823120222+827003287
##END=
