##TITLE=<SNM>
##JCAMP-DX=4.24
##DATA TYPE=INFRARED SPECTRUM
##DATE=3/5/2025
##SAMPLING PROCEDURE=Instrument type and / or accessory
##ORIGIN=Admin
##XUNITS=1/CM
##YUNITS=ABSORBANCE
##RESOLUTION=4
##FIRSTX=4497.3318
##LASTX=599.83466
##DELTAX=-1.4281778
##MAXY=1.7022899
##MINY=0.17966764
##XFACTOR=1
##YFACTOR=1.5853811e-09
##NPOINTS=2730
##FIRSTY=0.19700918
##XYDATA=(X++(Y..Y))
4497+124266135+123282547+123353163+124414979+125631214+126328035+126560823
4487+126649419+126768882+127128745+127877177+128673187+128835190+128073750
4477+126852590+125907134+125569725+125770932+126425984+127250783+127495855
4467+126711744+125565101+125099610+125491957+126110089+126356938+126105615
4457+125726822+125735920+126087315+126081572+125287395+124145094+123360485
4447+123053096+122792694+122257067+121557586+121018078+120973451+121670469
4437+122909440+123925352+124121229+123707208+123189966+122665242+122048605
4427+121488155+121127098+120822050+120297476+119374795+118143559+117096142
4417+116900424+117781919+119186070+120242924+120524512+120223731+119677098
4407+118962183+118146322+117614211+117707159+118194286+118440486+118054230
4397+117223255+116477060+116196459+116265891+116252835+115967497+115679988
4387+115771864+116295018+116825504+116804572+116155282+115421203+115111643
4377+115164372+115234536+115197034+115160988+115230260+115379048+115466713
4367+115402583+115288675+115271362+115249500+114886149+114075411+113327731
4357+113393205+114456807+115973259+117251932+117894690+117824817+117312011
4347+116851492+116680570+116568927+116326825+116255082+116711925+117379393
4337+117418973+116492851+115286335+114761329+115125319+115746402+115947054
4327+115682507+115374198+115236548+115082167+114795363+114566260+114505739
4317+114451901+114329703+114323754+114565583+114965083+115450142+116095757
4307+116901176+117643508+118092447+118261781+118321456+118343685+118285598
4297+118148588+118007328+117966254+118213366+118956694+120098121+121077057
4287+121225826+120305842+118699018+117161813+116354740+116431672+117026974
4277+117674318+118165252+118512173+118783901+119083610+119532474+120169996
4267+120922366+121663777+122217375+122367131+122085553+121694766+121504613
4257+121394493+121169920+121098092+121500646+122077826+122275922+122085628
4247+121938598+122077291+122431148+122799471+122946698+122803400+122581017
4237+122490889+122523955+122652873+122957620+123357825+123525655+123304983
4227+122982612+122879138+122840573+122506266+122048811+122156159+123122011
4217+124404001+125337755+125859565+126243190+126500594+126388707+125834000
4207+125108709+124629270+124632738+125017283+125488470+125855449+126128352
4197+126379543+126629014+126852101+127011858+127040647+126870721+126538303
4187+126186889+125907106+125606936+125111773+124461890+124042145+124235146
4177+124997517+126017968+127164800+128444967+129700002+130711054+131416043
4167+131735509+131462164+130578733+129441489+128585898+128507058+129397802
4157+130794029+131726289+131657290+131097564+130879580+131083963+131160622
4147+130872916+130551748+130479103+130512836+130407998+130192139+130022720
4137+129868490+129660601+129645327+130144579+131014175+131759862+132095993
4127+132042578+131742267+131491847+131590763+131979228+132354008+132626789
4117+132935126+133361047+133901843+134460939+134733532+134462650+133862818
4107+133407657+133269960+133357700+133682740+134225078+134667155+134747038
4097+134684243+134882113+135335667+135558266+135055047+133878552+132747595
4087+132464391+133176194+134367296+135474990+136186304+136277184+135700277
4077+134906748+134623252+135123726+135980220+136607986+136806232+136691563
4067+136385443+135947774+135492904+135214503+135248556+135534439+135860428
4057+136083328+136238300+136429318+136729131+137185307+137758652+138195147
4047+138149401+137573781+136833320+136321999+136143783+136196991+136333476
4037+136472122+136791428+137624311+138920269+140122668+140793886+140995206
4027+140987714+141021730+141340077+141845646+141934637+141248540+140381623
4017+140191761+140600509+140808953+140525044+140185576+140104885+140211997
4007+140492588+140975176+141482154+141937766+142567093+143380689+143872422
3997+143586510+142700165+141801968+141253183+140962562+140767456+140829838
3987+141416210+142355829+143063544+143188073+142979432+142911974+143193054
3977+143743203+144363638+144747206+144618560+144059971+143463617+143108002
3967+143033185+143224560+143631269+144134187+144637856+145023802+145108977
3957+144910430+144693208+144564891+144416667+144318456+144477498+144775262
3947+144816590+144470280+144035214+143929079+144346409+145152721+146085920
3937+146941953+147548571+147801068+147742907+147466874+147083456+146855923
3927+147041085+147553825+148011223+148153525+148062824+147942901+147903500
3917+147946256+148021929+148112583+148245016+148394960+148459664+148385946
3907+148299381+148437933+148913537+149591899+150218339+150545861+150449529
3897+150120739+150030771+150467914+151104045+151173082+150569772+150355294
3887+151289489+152623786+153133819+153045627+153292579+153636333+153310645
3878+152648478+152476155+152903983+153666946+154750343+155932741+156474731
3868+156090101+155290368+154534925+153991657+153759753+153756435+153780393
3858+154041707+155299119+158003955+160751426+161228318+159961845+158696651
3848+157978371+157684377+157752793+158285214+159386094+160895421+162119955
3838+162199546+161278190+160504606+160534796+161136451+161857156+162428790
3828+162692680+162755109+163278169+164765596+166404160+166755499+166208696
3818+166284735+166939270+167034069+166513096+166234488+166698127+167912209
3808+169402230+170412652+170912910+171549775+172461657+173331074+174333470
3798+175486364+175984234+175500218+175118765+175948386+177810518+179810252
3788+181548824+183251716+185000381+186657086+188490889+191065661+194476840
3778+198246952+201986329+205658484+209475798+213759440+218442637+222960035
3768+227186943+231717217+236883773+242549158+248808811+255982320+263927288
3758+272070052+280387901+289574999+300096149+311273244+321472061+330238681
3748+339280393+350280277+362730029+373568587+381358828+388227392+396186779
3738+406036476+418002136+431393566+444537273+455924588+464673048+470315255
3728+473242249+474681214+475656616+476600474+478256145+481727647+487148524
3718+493522733+500232453+507665076+516073928+524727532+533094615+541650393
3708+550151018+557611350+564010937+569934741+575151582+579145411+582447354
3698+585964724+589507811+591739609+591836382+590972680+591622571+595510078
3688+601970985+608248158+612113859+613515979+613760168+613910667+614293624
3678+614690567+614272344+613061251+613380820+616540385+620494513+622247333
3668+622026981+622055103+622869253+623706488+624131252+624381832+624838441
3658+625953776+628362465+632251852+636936441+641239651+643631911+643462051
3648+643224366+645828820+650653418+655392596+658898913+661103266+661943170
3638+661848728+662248303+664150681+666852661+668930088+669794956+669679385
3628+669298082+669600959+671235275+674677452+679852749+685576052+690337938
3618+694047501+697657885+700855686+702219834+701478207+700212186+700394528
3608+703062520+707109173+709898225+709770022+706978939+703548868+702931008
3598+707463707+715273987+721757488+724707454+724971305+723134645+720215810
3588+719699912+723599938+728216402+729037809+726561709+724392320+724787233
3578+727260476+729511298+729334896+726680513+723347215+720681404+718361179
3568+716000876+714932611+716420752+719419818+721887873+722888088+722765599
3558+722126760+721536948+721362952+721463635+722379408+725474796+730475420
3548+734255815+733836390+730022459+726188301+724789038+726267103+728984271
3538+730097501+728843210+727906984+729625290+732528711+733309814+731071700
3528+727830964+725423816+723840179+722658825+722488363+723600615+724562181
3518+724184788+723460155+723828901+724858215+725346066+725873243+728114967
3508+731361418+732331255+729816731+726896994+726375607+727019934+726996774
3498+727449360+730053288+733171760+733236727+729757103+726512683+727391838
3488+732272830+737205254+738463982+736514608+735082260+736382870+738420370
3478+737868154+734854876+732781885+733552687+735398596+735840955+734833973
3468+734134980+734497109+735136774+735326035+734923452+733933313+732647967
3458+731709260+730827097+728994122+726765181+726279811+728484615+731986646
3448+735005337+737086149+738403377+738618729+737218037+734786301+733425160
3438+734684866+737168936+737363761+733714126+729066156+727542524+729771841
3428+732536155+732790006+731002372+730061709+731794303+734840515+735942842
3418+733986926+731469770+731011771+732488107+734035651+734279200+733283722
3408+732243881+732087254+732237038+731461950+729895834+729186841+730457449
3398+732832114+734191826+733180483+730450231+728095116+727754267+729188194
3388+730915750+731891527+731719787+729990878+727136859+725155678+725641800
3378+727928714+730307590+731808665+731989278+730594000+728341373+726953614
3368+727805022+730867777+734716296+737003812+736038036+732593978+729516336
3358+729592732+733351546+738099673+740122285+738799342+737015618+737025167
3348+737893569+737724536+736390013+735311899+735739821+737473692+738777611
3338+737743710+734030387+729196691+725646010+725100035+727395447+730688968
3328+733254472+734822393+735994123+737182320+737886200+737025092+734615763
3318+732102368+730733557+730847099+732596159+735667260+738393677+738630158
3308+736026531+732805120+731721441+733282895+735539883+737096976+738909800
3298+741673137+743695674+743562507+742501311+741963231+741526060+740499452
3288+739175682+737895148+736886361+736836584+738094936+739868058+741397555
3278+743156842+745681516+748253863+749484319+748564861+745880176+742609588
3268+739852192+737871838+736609125+736493930+737729273+739472393+740648334
3258+740928427+740797291+741291157+743011644+744952296+745463607+744865824
3248+745284498+747391476+749303931+749011280+746274637+742053763+737606859
3238+734218595+732825497+733416588+734885630+735731926+735181665+733787213
3228+732962348+734096482+737257513+740266129+740657207+739074999+738550228
3218+739721206+739768202+737049530+733448545+731166217+730513618+731256524
3208+733235599+735148204+735074966+732520590+728515294+724471047+722047808
3198+722379183+724345701+725878356+727448458+731219529+736676047+740240488
3188+739620523+736066383+732105225+729153230+726967750+724399013+721348966
3178+719370943+719541105+720852843+721421752+720634634+719479898+719186946
3168+719976546+720974205+721325806+721182489+721082106+720817352+719643066
3158+717449090+715108337+713535528+712889847+712732845+712541554+712235895
3148+712191832+712457789+712362219+711311851+709573543+707846815+706346492
3138+704622170+702411802+700488971+699993074+700871476+701909664+702365859
3128+702413832+702026965+700710489+698571027+696756774+696389006+697321473
3118+698286798+698275444+697345158+696044548+694713710+693606420+693143308
3108+693484909+693970654+693497165+691844727+690262670+689963779+690646379
3098+691280105+691407331+690758717+688910026+686387382+684682234+684289953
3088+684016477+682916481+681648354+681016734+680491212+679343619+678172716
3078+677891720+678204748+678401979+678634625+679354973+680151340+680115398
3068+679097888+677597039+675866928+674064104+672863801+673166302+674957771
3058+676744127+676791799+675217562+673837924+673692877+673954548+673335110
3048+671353929+668323884+665355647+663982926+664646954+665927262+665905983
3038+663908109+660682713+657590032+656073693+657083758+660087411+662855184
3028+663086177+660633086+657479649+655435983+654673452+654322527+653494203
3018+651924102+650380769+650069170+651211574+652611214+652882961+651763189
3008+649916829+647910007+645926045+644131492+642698843+641592832+640749319
2998+640268235+640125519+640037694+639796776+639372914+638766334+638138323
2988+637746794+637388575+636440695+634730358+632828506+631291865+630015317
2978+628719631+627818596+628033534+629074767+629660933+629146990+627991502
2968+626537009+624861111+623578359+623178521+622905571+621832532+620428344
2958+619439107+618370316+616634903+615042807+614620675+614832944+614278510
2948+612570392+610546088+609135621+608613896+608540846+608307297+607927836
2938+607854974+608037091+608078523+608089801+608218419+607874863+606589404
2928+604885948+603427884+602185811+600926932+599679859+598530762+597467009
2918+596511985+595803481+595220210+594102544+592006844+589614133+588009067
2908+587295600+586786432+586112253+585262010+584131786+582777940+581506805
2898+580370603+579185978+578140271+577706709+577789722+577464664+575955468
2888+573684006+571857271+571052144+570757350+570411163+570180546+570227880
2878+569942373+568785606+567348596+566557718+566316875+565878388+565021152
2868+564015336+562939063+561679320+560290508+559071181+558332600+557929829
2858+557163539+555614078+553851972+552799498+552662158+552926536+553086058
2848+552927213+552297774+551009532+549113808+547070180+545409170+544292331
2838+543539087+542978938+542607297+542411420+542122755+541257285+539584358
2828+537475499+535574549+534270292+533662020+533678863+533884365+533568969
2818+532432542+530857064+529307979+527857133+526447681+525214669+524303558
2808+523568435+522663940+521477134+520378154+519831314+519729841+519429182
2798+518517620+517184037+515774736+514417430+513199419+512293270+511627061
2788+510762306+509468275+508160033+507389757+507154253+507021764+506675162
2778+506047265+505153635+504068716+502976164+501999860+500936746+499414956
2768+497488591+495746824+494597727+493826061+493060335+492267502+491567720
2758+490826845+489652182+487858382+485899007+484520234+483864853+483309140
2748+482320881+481048355+479950953+479262262+478868101+478443187+477684341
2738+476457833+474756219+472726652+470798482+469471065+468799969+468313697
2728+467571281+466612196+465730936+464983745+464130194+463022716+461836399
2718+460803851+459872776+458775261+457359004+455751983+454279858+453227684
2708+452570086+451995913+451273160+450434008+449529964+448457677+447151277
2698+445733741+444423807+443437277+442882166+442613991+442309535+441741979
2688+440915836+440006642+439232156+438642080+438005197+437060511+435861787
2678+434705660+433769547+432995888+432288662+431641966+431027001+430302067
2668+429358171+428293854+427353530+426721836+426369294+426024836+425359229
2658+424294197+423097315+422103454+421368895+420661481+419813043+418964078
2648+418315427+417801221+417250471+416680397+416168898+415668113+415144997
2638+414625602+414013909+413194908+412297407+411524349+410850471+410178510
2628+409565764+409042911+408461069+407718765+406938902+406271980+405653895
2618+404854369+403728920+402424062+401366174+400952764+401140971+401391514
2608+401128264+400218506+398982636+397872978+397175076+396865883+396711925
2598+396547930+396358406+396054665+395432143+394515543+393713123+393399944
2588+393455474+393375244+392794567+391822812+390910987+390418060+390296887
2578+390246357+390099505+389879115+389551500+389020564+388357927+387780634
2568+387403542+387175294+387003854+386840159+386695225+386613303+386579917
2558+386504047+386352647+386213803+386140490+386031047+385761293+385332957
2548+384796193+384164235+383519155+383040515+382822907+382819824+382993369
2538+383302374+383563030+383589273+383466295+383430992+383487649+383376815
2528+382946524+382376901+381969882+381821640+381795435+381758290+381660313
2518+381379656+380782813+380058668+379679809+379841850+380203565+380336919
2508+380165329+379843805+379515062+379311590+379302830+379291852+378907241
2498+378081473+377272774+377004900+377291459+377700696+377865369+377716186
2488+377360637+376968732+376686120+376523590+376380498+376160672+375823883
2478+375437016+375180383+375148915+375186850+375063383+374743964+374399994
2468+374239946+374350141+374605722+374744077+374587412+374169303+373642201
2458+373143560+372771468+372598449+372611157+372679394+372672702+372552694
2448+372297076+371889418+371482512+371327615+371385138+371270882+370778031
2438+370198820+369944330+370073211+370303263+370266569+369736385+368839372
2428+368011047+367560116+367415859+367425558+367594554+367863782+367992212
2418+367870136+367677943+367611473+367677379+367785582+367838141+367762761
2408+367619406+367551807+367534362+367414167+367251525+367279308+367490600
2398+367627827+367574515+367446011+367369765+367401459+367503345+367449507
2388+366927895+365801280+364099441+361761734+358541300+354163235+348527495
2378+341816121+334439967+326846995+319367151+312213906+305519319+299329070
2368+293725531+289022877+285602637+283511581+282578475+282940924+285076043
2358+289341131+295735097+304168537+314767098+327112351+339000074+347169662
2348+349529401+346537178+341043176+336161131+332720458+329825120+326931474
2338+324010383+320839765+317164828+313259312+309977897+308196692+308122364
2328+309133895+310312956+311117106+311695621+312698092+314678370+317608917
2318+320983721+324256113+327104079+329490926+331632267+333778270+335981270
2308+338174382+340338507+342395745+344115104+345351161+346247535+347054730
2298+347869896+348629005+349261602+349777801+350203580+350509841+350725945
2288+351064989+351703715+352456997+352926614+352976993+352825855+352674906
2278+352510083+352299881+352140999+352108027+352131224+352101335+351962115
2268+351654990+351132550+350508074+350063421+350003981+350274036+350667896
2258+351011264+351176651+351097435+350898588+350857871+351111271+351519605
2248+351880719+352114230+352204574+352136337+351948656+351752816+351670668
2238+351784359+352098966+352527227+352964285+353376342+353754449+354040031
2228+354194440+354262865+354274257+354190041+354038791+353961981+354058679
2218+354313658+354676839+355083745+355449634+355751345+356070388+356502747
2208+357064099+357680718+358241844+358687324+359046483+359375564+359729572
2198+360205204+360878744+361672480+362401587+362960721+363370259+363688024
2188+363988682+364388219+364973821+365671009+366223112+366407635+366339849
2178+366458729+367104410+368183465+369314854+370200437+370798408+371250919
2168+371738995+372400467+373355754+374728211+376548404+378670534+380897971
2158+383216015+385826786+388895555+392294760+395691408+398872253+401824737
2148+404500737+406775847+408748944+410827688+413357137+416310937+419410047
2138+422412158+425282156+428175727+431221750+434358720+437530880+440890947
2128+444529866+448182659+451472834+454251924+456521281+458238535+459280181
2118+459465456+458715332+457207453+455187398+452740510+449951345+447062211
2108+444252706+441466774+438603807+435735275+433030514+430529413+428075344
2098+425458145+422516451+419127773+415295721+411249971+407286331+403547104
2088+400066428+396913029+394163076+391792322+389662861+387630737+385675648
2078+383915760+382495894+381457857+380677280+379952045+379209817+378546465
2068+378013611+377509932+376927902+376290680+375743991+375447806+375410736
2058+375445663+375359944+375102784+374702721+374219870+373792060+373595807
2048+373711980+374043580+374399280+374695126+375005710+375422805+376044725
2038+377070280+378639817+380630999+382819448+385112679+387476554+389769672
2028+391702241+392896716+393132521+392585005+391632349+390446370+388954995
2018+387128110+385123244+383164696+381373791+379736467+378189337+376680518
2008+375197828+373801685+372563560+371452849+370418196+369539379+368896706
1998+368358551+367722608+366980342+366255220+365599952+365004876+364496760
1988+364114705+363851869+363657270+363444474+363112723+362636301+362144465
1978+361833768+361746770+361689285+361431299+360961381+360490975+360231973
1968+360195129+360179376+359968873+359562682+359169198+358983283+359017496
1958+359129007+359151903+359003961+358708341+358334369+357943479+357603382
1948+357408858+357418257+357535784+357511196+357187415+356746710+356501018
1938+356466654+356397026+356186975+356007602+356037491+356233331+356390973
1928+356378303+356289011+356296606+356406237+356524591+356680954+356899088
1918+356996877+356831979+356564330+356387025+356269837+356142837+356087119
1908+356208029+356446841+356617942+356597377+356423268+356208630+356036288
1898+355980721+356092119+356293072+356432479+356460075+356428005+356391010
1888+356387664+356418982+356444924+356467369+356526433+356603393+356655952
1878+356669450+356579068+356361836+356270138+356651779+357457207+358146124
1868+358211692+357734932+357191175+356897885+356869838+356964694+357026954
1858+357003757+356985222+357062257+357184408+357274376+357397015+357704667
1848+358307413+359179010+360006056+360291827+359987070+359625280+359596368
1838+359811495+359989063+360065459+360313181+360981006+361860951+362449184
1828+362632579+362720480+362813305+362800335+362795297+363029184+363476657
1818+363931047+364321937+364775650+365411406+366181192+366898344+367414505
1808+367773776+368176171+368826175+369801464+370987593+372129208+373026597
1798+373722131+374451163+375422542+376636004+377826720+378708017+379366744
1788+380152208+381288485+382778243+384512678+386363211+388167463+389746851
1778+391093066+392511917+394410686+396825241+399146181+400710567+401641116
1768+402421430+403323443+404587660+406401311+408540397+410520487+412244922
1758+413942889+415622584+417242163+419070175+421346751+423823791+425965132
1748+427611179+429055069+430588288+432350658+434348832+436358624+438058508
1738+439600149+441667313+444643596+447812410+449995897+451317298+452630616
1728+454336478+456477255+458985538+461716880+464593720+467740954+471244827
1718+474728435+477436693+479229666+480855373+482958516+485636471+488721972
1708+492135200+495863298+499740165+503610491+507538075+511467953+515117137
1698+518611761+522263200+525759704+528856258+532171322+536293280+541005089
1688+545851229+551067205+557148726+563374655+568323396+572237108+576238494
1678+580919962+586235682+591616406+596599848+601575320+607163012+613148850
1668+618659808+623503392+628276219+633280941+638210583+642824265+647494717
1658+652748967+658877258+666036818+673644979+679488365+682996561+686344297
1648+690573217+695049296+698878566+702318337+705886462+709376613+712492002
1638+715337600+717780164+719003325+718914447+718649694+718840007+719238604
1628+719384177+719036786+718175828+716865217+715471443+714569355+714013529
1618+712550051+709080052+704745186+701632127+699850132+698100621+695344578
1608+691718028+688241788+685666509+683919929+682567210+681403601+680556780
1598+680183748+680135474+679974938+679344596+678246706+676977150+675790081
1588+674549624+672946363+671177452+669888646+669375230+669455912+670005872
1578+670944579+671888024+672592505+673571516+675270197+677400711+679413999
1568+681384427+684077684+687930414+692633350+697721273+703343666+710286220
1558+718454643+726201310+733191010+740442606+748808711+758319551+767900472
1548+776157096+782930240+789334639+796153952+802713549+807059845+807899900
1538+807356782+808222326+810630302+813217085+814894938+816044712+817709707
1528+820335591+823963344+828574093+833733675+838424655+841969095+844953498
1518+848049638+850855233+852760018+853977465+855428461+858039156+861963470
1508+865972526+867965061+867861370+868075143+869705399+872420462+875753610
1498+879120444+881502402+882057175+881090646+879647019+878825237+879513026
1488+881625042+884006324+885820877+887127653+888262463+889610972+891665165
1478+894382107+896735041+897628858+897127999+896365995+896274184+896675864
1468+897114314+897923990+899899156+902824683+905222808+906024063+905060767
1458+902825961+901202774+902015007+904174921+905580876+905397556+904123414
1448+902894161+902602789+903306293+904349518+905021742+905270029+905844578
1438+907301063+908860261+909340367+909201411+909511732+910255163+910938290
1428+911628560+912380790+912555087+911769321+910720006+910261480+910378329
1418+910590147+910895656+911434187+911793007+911495319+910795800+910347500
1408+910123125+909405334+907900725+906221068+904982943+904181312+903778354
1398+903863923+903861818+902807689+900884182+899265054+898123176+896319751
1388+893083527+889414944+887456396+888332167+891325970+894941241+898204760
1378+900934486+903069661+904503965+905803973+908088482+911547427+915023216
1368+917503000+919250783+921003227+922814246+924261031+925124922+925522541
1358+925761655+925996031+925904897+925300798+925069580+926544036+929844550
1348+933671715+936635816+938037486+937777469+936462346+935356335+935590185
1338+937408347+940324777+943648600+946701354+949093088+950890046+952117118
1328+952527295+952337884+952413979+953228769+954413281+955475230+956213774
1318+956628312+957016006+957749061+958630171+958959290+958396471+957353321
1308+956396943+955654189+955028359+954675704+954908201+955841720+957259029
1298+958459332+958391433+956574775+953844523+951581444+950131050+948450339
1288+945478117+941654411+938516239+936562428+934619596+931869117+929026527
1278+926783751+924723016+922385497+920007974+917871671+915940343+914292191
1268+913250921+912845932+912364623+910685567+907331441+903078158+899222420
1258+896355017+894075546+891815625+889536456+887460532+885685079+884502220
1248+884458157+885470478+886447534+886434751+885756888+885515820+886255116
1238+887454216+888237800+888426309+888729787+889956257+892259414+895050647
1228+897335230+898309429+898052720+897539454+897790598+899199411+901582873
1218+904316058+906394463+907384301+908408352+910954908+914673645+917664590
1208+919046108+919807510+921009994+922699276+924683540+926948874+929218044
1198+931158019+932929712+934757123+936150071+936391590+935742525+935411602
1188+936384672+938803099+942266857+946293959+950472350+954291243+957094357
1178+958527758+958840410+958639870+958988690+961317713+966098849+971783803
1168+975861961+977200619+977005945+977215733+978236626+978733951+977917658
1158+977193852+978314150+980828749+982959563+984385745+986189697+988486913
1148+990356808+991825399+993840567+996423742+998789910+1000997346+1003599243
1138+1006025039+1007076009+1007159473+1007882302+1009422326+1010697446
1130+1011475241+1012256570+1012705697+1012338380+1011906171+1012241907
1121+1012937591+1013635682+1015160743+1018365461+1023085240+1028287907
1113+1032377570+1033696978+1031813323+1028044733+1024857460+1024896410
1104+1029253609+1035759969+1040088219+1039962947+1037379247+1035713650
1095+1035705981+1035617027+1035021350+1036031190+1039985129+1045346529
1087+1049707111+1051916803+1051836572+1049794034+1047093032+1046179590
1078+1049241367+1055782767+1062085806+1064405806+1062271683+1058139837
1070+1054646604+1052699109+1051600316+1050886060+1051949662+1056522289
1061+1063221744+1067222755+1065286013+1060355544+1058194652+1060424345
1053+1063819151+1065817100+1067192076+1068787217+1069572381+1069048738
1044+1068498777+1068599536+1067721058+1064326929+1060390734+1060119063
1035+1064613789+1069803974+1071300387+1069326049+1066632792+1064753272
1027+1064488593+1066813556+1070967508+1073741823+1072988316+1070520412
1018+1069297400+1069416280+1069237998+1068691722+1068756388+1068740447
1010+1066792050+1063146476+1060786850+1061996252+1065472943+1068029273
1001+1068340346+1067319453+1065952974+1064805305+1063962544+1062366276
993+1058877328+1054120630+1049715082+1046259821+1043410163+1041087080
984+1039672102+1039478179+1040100250+1040057014+1037933343+1034152722
975+1030536925+1028050072+1025830079+1022729503+1018992419+1015560768
967+1012441770+1008626034+1003422991+997556371+992624173+989476826+987504894
957+985496795+982832412+979529792+975866698+972403392+969807735+968443963
947+968026868+967471569+965694612+963100234+961383206+961422381+962383872
937+963080383+963253327+963166704+962650130+961154168+958611372+956002256
927+954913990+956209337+959007639+961150183+961011678+959005458+957008938
917+956233474+955963457+954946323+953554730+953260500+954163716+954678111
907+953835650+952176069+950176391+947751573+945392322+944130286+944413387
897+945816109+947428845+948189195+947323124+944773335+941238144+937784086
887+935204070+933729313+933461701+934593128+936847860+938990630+939494197
877+938109746+936139995+934768853+933919250+933037689+932350276+932824743
867+934946459+937763333+939264332+938266974+935814184+934053093+934187011
857+935875842+937858602+939084772+939576157+939778501+939514198+938807084
847+938917167+940772550+943216618+944275107+943259252+940678108+937190589
837+933580130+931100421+930898227+932845872+935339266+936623034+936255115
827+935060151+933994443+933380944+933108746+933395080+935014960+938264493
817+942120231+945341642+947649461+948886683+948387478+946567285+945492329
807+946081239+946695414+945877617+944347518+943184134+942254901+941198893
797+940115515+939240270+939435847+941916308+946239520+950112928+952171332
787+952898296+952399392+950167293+947215147+945817162+947067468+949892989
777+951943798+951490160+949349119+948182352+949136249+950451371+949928706
767+947401099+944351879+942429198+942347389+943363544+944123594+944121037
757+943848914+943952304+944761605+946213052+947757438+948420714+947396362
747+944941767+942250014+940030021+938404803+938375402+941424171+947140631
737+952925666+956689970+958346092+958455197+957330688+955514480+953798129
727+952484510+950956893+948610425+946106203+945065459+946472317+949791554
717+953047704+953427353+949378595+942614098+936766953+934588616+936749508
707+941481167+945129523+945189302+942559883+939156656+935233996+930633549
697+926625169+924652711+923958531+922101944+918016417+913015116+908476251
687+904419222+900964036+899204825+899217457+899216405+897983393+896473972
677+895919951+895694147+893625742+887391655+875855496+861037997+851522344
667+856795617+870848480+880666634+882257489+878667633+872831466+865155255
657+856621470+850190228+848859239+854239437+865412189+877471164+883342747
647+880303152+872465953+865572801+862224013+860751211+858125628+853995135
637+850446861+848858788+848295970+846009657+840917448+836514080+836818386
627+840475163+841629599+837404439+831268854+827445524+826797738+828250313
617+830409250+832174928+831662413+827712684+823012155+820299874+818802183
607+816953116+815977414+817994537+821624621+823653324+824364347
##END=
