##TITLE=<SNM>
##JCAMP-DX=4.24
##DATA TYPE=INFRARED SPECTRUM
##DATE=3/5/2025
##SAMPLING PROCEDURE=Instrument type and / or accessory
##ORIGIN=Admin
##XUNITS=1/CM
##YUNITS=ABSORBANCE
##RESOLUTION=4
##FIRSTX=4497.3318
##LASTX=599.83466
##DELTAX=-1.4281778
##MAXY=1.7210666
##MINY=0.17624974
##XFACTOR=1
##YFACTOR=1.6028682e-09
##NPOINTS=2730
##FIRSTY=0.19541645
##XYDATA=(X++(Y..Y))
4497+121916733+122454074+123378412+123704238+123308112+122763696+122550042
4487+122720987+123175589+123875081+124653975+125094632+124858899+124126943
4477+123603938+123962366+125113522+126166702+126396903+126029196+125700535
4467+125451806+124842695+123938586+123437901+123670891+124159853+124386950
4457+124329506+124047644+123474176+122798400+122396770+122265781+122074105
4447+121804932+121875884+122492041+123153807+123076172+122107916+120948115
4437+120354697+120445236+120793531+120863135+120394309+119640591+119104532
4427+118937427+118846227+118607668+118316574+118028483+117470541+116427922
4417+115394154+115326959+116431743+117687811+118020721+117439202+116637681
4407+116087371+115834532+115661625+115280764+114703243+114342583+114477011
4397+114827510+114981517+114983664+115139633+115445759+115629701+115605725
4387+115451839+115097845+114486875+113847532+113375583+112891501+112190959
4377+111504548+111253754+111455229+111669329+111627876+111665452+112310076
4367+113570810+114818976+115313432+114764015+113521399+112242034+111312927
4357+110756704+110651746+111203432+112289419+113328523+113725524+113246091
4347+112062341+110717789+109958976+110206311+111084966+111725304+111662598
4337+111248446+111103150+111451548+112094879+112745341+113223454+113462422
4327+113415539+112984318+112201102+111518028+111627634+112736091+114150274
4317+114941226+114939524+114656165+114403345+114081154+113763928+113890036
4307+114699441+115790578+116383903+116049524+115196230+114625078+114583829
4297+114634197+114496088+114501192+115041145+116012329+116943612+117424402
4287+117386388+117035378+116460312+115533184+114377287+113555945+113492915
4277+114049239+114865635+115707021+116351960+116638973+116755635+117066652
4267+117540191+117733894+117443637+116965264+116634204+116537891+116690188
4257+117045428+117407864+117676237+118000194+118509506+119183730+119943240
4247+120544653+120687848+120527771+120567839+120860206+120945995+120642620
4237+120238861+119990234+119936733+120033975+120145543+120128260+120079249
4227+120279590+120819088+121427046+121749655+121768713+121847194+122270959
4217+122827600+123065155+122936212+122860101+123025329+123015642+122454808
4207+121738034+121697613+122626283+123930879+124762800+124829661+124513374
4197+124274824+124166035+124067064+124063113+124224576+124302109+124055992
4187+123711610+123709444+124080907+124389153+124340597+124212872+124477266
4177+125150197+125828679+126267625+126548195+126759441+126889630+127021325
4167+127328512+127767625+127973005+127644855+126959234+126381815+126155592
4157+126199017+126377288+126601586+126758670+126763615+126646739+126521617
4147+126493969+126558477+126590039+126517461+126408747+126289342+126062989
4137+125778347+125805939+126515118+127767235+128906817+129393919+129325608
4127+129134415+128942292+128514716+127806782+127277288+127460867+128296637
4117+129117402+129401310+129323368+129417690+129858189+130266764+130212305
4107+129712986+129123306+128738540+128755627+129341124+130402280+131531524
4097+132347399+132659113+132397387+131715772+130968431+130373405+129993036
4087+130034052+130682562+131664623+132387179+132491022+132090080+131596219
4077+131394623+131553436+131807120+131889878+131837120+131847133+131902280
4067+131784846+131545171+131627529+132264502+132999181+133175537+132749857
4057+132300108+132334161+132795940+133204393+133216144+132997359+132938428
4047+133153123+133475258+133761230+133939147+133969063+133985742+134208059
4037+134534555+134612841+134481918+134668109+135398884+136148233+136265221
4027+135780257+135334096+135451223+136058772+136683334+136974911+136981363
4017+136971648+137037626+136963346+136580997+136102169+135868342+135925599
4007+136122928+136453374+137010554+137773941+138603185+139291075+139615506
3997+139546953+139340691+139203920+139032445+138705987+138388128+138294539
3987+138398679+138545890+138617214+138460864+137972488+137421341+137374868
3977+138055051+139058373+139896188+140461019+140757505+140612339+140000216
3967+139378797+139380043+140230697+141557112+142708481+143251512+143156222
3957+142630771+141994626+141682429+142144301+143532631+145286594+146244112
3947+145836170+144953043+144736256+145018677+144855280+144098670+143447800
3937+143474211+144445757+146394744+148657825+149909867+149465110+148188990
3927+147465494+147701190+148156033+148149898+148103108+148842408+150191608
3917+150852612+149848091+147671999+145651215+144686668+144932804+146459783
3907+149763874+154974057+160545560+163851268+163911491+161806694+158366781
3897+154168696+150890831+150333976+152313864+154201224+153991401+153588599
3887+155592352+158886867+160479089+160756313+161862641+162336728+159728615
3878+156242219+155743049+158702684+163035811+166920397+168744959+167318699
3868+164622064+163812948+164658321+164224376+161474435+158669811+158255110
3858+161419102+168687859+178601916+184080900+178813618+168566855+160477955
3848+156734918+157345014+161212960+166446998+171643534+176413896+179712483
3838+179470717+175937429+172181749+169914094+168458569+167226273+166764104
3828+167158501+167837280+169642951+174202430+179896109+181943621+180047346
3818+178378650+177299524+173980410+169076697+166253685+167480459+171990407
3808+176814950+179383460+181108325+184341092+187263671+186432800+183310197
3798+181132050+179370574+176548678+173811306+173064364+174362127+176660311
3788+179511306+182898898+186267730+189187389+192233649+195585003+197836946
3778+198168480+198381892+200974926+206924316+215339823+223828717+230180704
3768+234530657+238201944+241804268+246402384+253876354+264464876+275561976
3758+284578394+292455630+302267778+316076443+333099673+348725146+359259823
3748+367806523+378681602+390889585+398992765+402670373+407743097+417983779
3738+433513870+451232742+465906285+474231504+477286540+478219766+479471083
3728+481946980+485067315+487573519+488974064+489556364+489483739+489321607
3718+490684185+495442946+504742518+518117592+532120295+541865470+546602291
3708+549560791+553980339+561795214+572080854+580542881+584194682+584951831
3698+585414799+586256845+588423910+593784084+602876976+613034100+619471671
3688+620066205+617112018+613182027+609705522+607873579+608515079+612177775
3678+618674770+624309638+623679778+619422585+618543688+621793022+623538544
3668+620264333+615477013+613481376+614856672+617615036+620595588+624499214
3658+629286199+633098458+635823540+640948325+651347607+664483275+671192937
3648+666048295+655723014+647666615+643827879+644175273+648502710+655323188
3638+661692299+665191450+665875974+666187000+668645234+673358739+677651295
3628+679045184+678396359+677553347+678234301+682309170+689462613+695663121
3618+697673856+697699589+698947857+700943196+701836558+701867572+701896651
3608+701291780+699802917+699080388+700512877+703265179+705264460+705959323
3598+707156794+710371619+714336565+716531074+716782973+716843438+716738945
3588+714450950+710253292+707647280+708826382+712863543+717459317+720851669
3578+722099937+720863048+717960587+715583197+716449562+721739974+728782081
3568+731900520+729196782+725374557+723476869+721720117+718467882+714958840
3558+713276460+714088607+715892140+715943829+713768508+712656565+715558877
3548+721302366+725582800+725201344+721354130+717764318+716485558+716908291
3538+717996509+719441715+720751936+721406339+721563116+721349593+720350398
3528+718809921+718242980+719439261+721044740+721249636+719996832+718324864
3518+716453131+714438530+714019887+717154687+722934694+727927765+729715307
3508+728757167+726381412+723191353+719773194+717140779+715929772+715611458
3498+715189617+714860296+716113472+719661635+723921170+726258102+725576702
3488+723233076+721411173+721034774+721348105+721292177+721071142+721374136
3478+721504511+720446041+719152555+719271923+720015648+719096404+716576144
3468+715319992+717463705+721965694+725959794+727789209+727924120+727380458
3458+726644914+725951167+725466556+725377532+726130628+727781102+729336156
3448+729849699+729342850+728532859+728030473+727181139+724386593+719583990
3438+715065564+712822044+713059143+715589593+720202248+724938140+726302726
3428+722782379+717017842+713221573+713079819+714995951+716276794+715490603
3418+713337594+711642199+711680426+713066506+714309791+714487244+714191018
3408+714926562+717269518+719824064+720909010+720600662+720004864+719559521
3398+719171223+719214507+720161195+721403215+721418536+719147052+714802657
3388+709916385+707010801+708170268+712912183+718069171+720772909+720873683
3378+719870324+719224920+719740842+721101561+722440414+723603079+724939999
3368+726201356+726752084+726282274+725011099+723841294+723635580+724134099
3358+724763662+725447517+725715778+724623321+722356671+720353001+719533268
3348+719617309+720015722+720617396+721528161+722271514+722124108+721532995
3338+721716621+722820309+724228329+726024647+728056206+728783495+727152283
3328+724274737+722085732+721750832+723651867+727242125+730825837+732824003
3318+732940842+731603179+729540830+728097780+728362918+729723712+730513696
3308+729918493+728065503+725452946+723393795+723221474+724398418+725169884
3298+724922149+724143693+723163612+722197216+721373020+720504870+719780185
3288+720292760+722754192+726157402+728571012+729180346+728882856+728614967
3278+728237601+727587213+727490529+728476708+729280823+728295983+725490132
3268+722149915+719890033+719941573+722616305+726933553+730807690+732579912
3258+732531124+731796473+730392766+728010467+725720538+724881096+725211756
3248+725785688+726978400+729490331+732292686+733470820+732592184+730804046
3238+729198196+728364331+728700420+729999931+730945577+729916559+726985688
3228+724451446+724376032+726124232+726991266+725410330+722795915+721484653
3218+721962199+722774346+722416540+720815450+719072679+718231824+718443116
3208+718834018+718182515+716397203+715103345+716106258+719496454+723527294
3198+726016317+726047033+724599075+722916621+720562286+716407690+711277996
3188+707807107+707519806+709741089+712907721+715522434+716812871+717059118
3178+716633336+715259453+712771768+709958926+707985229+707485223+708168780
3168+708687975+707417990+704173490+700583307+698230385+697572337+698795765
3158+701862291+705204962+706287305+704308328+700896044+697855027+695546654
3148+693485569+691636446+690546369+690417109+690551798+689988426+688746703
3138+687876173+688179539+689349492+690510447+690967243+690243524+688150236
3128+685004726+681625538+679153248+678487316+679374357+680470087+680781485
3118+680369163+679695126+679422104+680198404+681547149+681996136+680888655
3108+678798863+676299650+673769200+671908252+671307843+671818410+672908488
3098+674235888+675433805+675804552+674633855+671924465+668720424+666508587
3088+666219426+667548909+669017617+669095336+667725841+666311276+665925060
3078+666111809+665746492+664709516+664100405+664859525+666741298+668474028
3068+668500505+666218311+662966076+660906107+660674660+661108698+661153991
3058+660544062+659194350+657494344+656323572+655775968+654991561+653749838
3048+652919469+653107037+653875974+654323175+653992887+653167427+652238961
3038+651071610+649376959+647415161+645852224+645082097+644887984+644690525
3028+644204204+643819177+643919878+643955502+642878217+640464309+637504433
3018+634834238+632936995+632132880+632229416+632312564+631845430+631420020
3008+631443373+631107507+629825325+628452558+627798824+627195291+625730153
2998+623849942+622681476+622534776+622778904+622699474+622111002+621346936
2988+620716518+619970859+618610735+616771541+615350952+615049334+615622783
2978+616227692+616260453+615697453+614778990+613767896+613029340+612763496
2968+612435662+611088219+608622622+606191088+604918277+604798723+605041326
2958+604900874+603998699+602370090+600420638+598525962+596708708+595023241
2948+593937589+593737676+593900142+593743811+593305348+592837583+592073777
2938+590790331+589458692+588671310+588477012+588709240+589448763+590599343
2928+591440272+591214775+589791434+587547728+584997570+582574886+580510789
2918+578858865+577648006+576851217+576152785+575051180+573445143+571828211
2908+570611737+569524783+568058269+566409171+565470330+565704083+566411216
2898+566447770+565379001+563548136+561487423+559633392+558147318+556910503
2888+556025471+556024987+557090038+558329010+558350689+556612009+554040915
2878+552222396+551887757+552293645+552259769+551530509+550699769+550238101
2868+550027702+549456893+547856397+545211377+542460785+540788371+540615826
2858+541405179+542230751+542344912+541421801+539651476+537616384+535814673
2848+534308222+532978590+531850099+530895194+529957134+529123269+528695256
2838+528671940+528691797+528400443+527548915+526066412+524318547+522901528
2828+522034642+521439290+520810248+520201472+519896730+519913910+519762005
2818+518878980+517265320+515479972+514069832+513164310+512520281+511821478
2808+510933507+509930892+508969553+508140858+507359240+506447731+505419606
2798+504439339+503521954+502624316+501850916+501171338+500265964+499083590
2788+498081272+497470637+496819543+495792013+494648759+493665109+492651226
2778+491380981+489978427+488621650+487335304+486196401+485274033+484365462
2768+483269248+482253469+481692366+481297336+480358793+478798049+477322945
2758+476371758+475539084+474406614+473325015+472750376+472351777+471514603
2748+470309731+469185777+468047209+466411088+464278048+462246266+460842337
2738+460078903+459558928+458822529+457700843+456461537+455577509+455225095
2728+454996065+454294695+453051893+451798754+450997019+450533492+449941896
2718+448975947+447812575+446681184+445527964+444264078+443051881+442009997
2708+440935203+439620632+438155271+436752866+435609798+434873324+434396560
2698+433732636+432711874+431709110+431063110+430637588+430180049+429640067
2688+428921220+427839249+426548998+425493615+424783990+424153386+423512258
2678+422939292+422227436+421100544+419766451+418707200+418061833+417546543
2668+416830039+415849624+414851545+414125409+413677426+413213454+412418449
2658+411257866+410074749+409271452+408815511+408277203+407429134+406507584
2648+405802607+405312084+404876149+404377742+403730292+402876645+401885297
2638+400916409+400085074+399464882+399096403+398827956+398320289+397410007
2628+396316732+395353013+394612821+394063691+393741770+393676211+393733143
2618+393684132+393389245+392822415+392038417+391224410+390590943+390089412
2608+389477475+388729065+388080611+387620282+387152591+386536973+385905290
2598+385446709+385119842+384687738+384037946+383359297+382901497+382634537
2588+382282830+381678367+380979861+380514996+380431401+380534072+380482867
2578+380109703+379487131+378758020+378040177+377454159+377079061+376871636
2568+376734270+376620703+376490589+376271450+375965928+375661373+375372547
2558+375040660+374704459+374496960+374461298+374487106+374428463+374240747
2548+373994239+373718875+373321652+372824397+372553198+372786951+373291456
2538+373531456+373317375+372924577+372615001+372402370+372293006+372355702
2528+372459005+372302637+371831264+371325792+370992640+370720214+370329089
2518+369887056+369657914+369766498+369998206+370005159+369675131+369212497
2508+368899947+368852200+368921180+368830037+368484428+368043585+367607725
2498+367091320+366528208+366173117+366132882+366173638+366046163+365806870
2488+365659724+365587471+365345351+364856278+364376129+364136910+364059711
2478+363949938+363756234+363556619+363452237+363448369+363357152+362981013
2468+362433036+362050910+361995652+362123944+362201775+362103789+361865909
2458+361623417+361451729+361280449+361027694+360755081+360550334+360308995
2448+359881763+359434821+359328915+359594573+359874288+359917870+359788276
2438+359570551+359217021+358733860+358284204+357996792+357790074+357534976
2428+357305239+357208890+357069776+356667607+356194226+356063033+356364837
2418+356826876+357169696+357289324+357242729+357179513+357194053+357237784
2408+357229231+357165233+357051369+356821595+356446721+356108065+356107433
2398+356502686+356969559+357152515+357022475+356800920+356673854+356636482
2388+356498112+356007774+355031710+353591263+351738161+349466788+346730141
2378+343488170+339807513+335928951+332134206+328612744+325554696+323124538
2368+321195985+319478055+317979523+316938495+316507320+317001079+318974255
2358+322527289+327109899+332462449+339111498+347226912+355422463+361535844
2348+364262004+363875453+361962147+360041329+358134790+355470136+351918849
2338+347883510+343603522+339162964+334858285+331250141+328795588+327458594
2328+326772211+326266478+325793617+325573921+325989031+327201414+328924513
2318+330616376+331880633+332683187+333273742+333967079+334940950+336140206
2308+337365418+338471077+339409174+340108052+340497392+340669416+340824892
2298+341050092+341313184+341632205+342060739+342526013+342842468+342923125
2288+342893488+342948189+343121254+343254343+343202617+343025313+342924576
2278+343002741+343154424+343214740+343126534+342940491+342728121+342524563
2268+342331232+342174194+342112800+342139946+342154449+342088480+341974430
2258+341873916+341834758+341893476+342039915+342197213+342264520+342210674
2248+342153668+342258458+342492843+342641068+342617157+342568555+342642890
2238+342836890+343072242+343297554+343515428+343734864+343908747+343990222
2228+344024284+344092744+344242382+344510680+344876407+345192081+345343541
2218+345423491+345590569+345868982+346203993+346566782+346920684+347218955
2208+347481564+347777864+348136190+348554015+349059004+349670681+350331108
2198+350945537+351477226+351960870+352443101+352947421+353499748+354140653
2188+354849571+355477461+355877845+356126473+356477585+357064310+357761515
2178+358364341+358790421+359093563+359388078+359799098+360404787+361183579
2168+362084006+363151103+364476383+366017641+367627954+369315243+371333154
2158+373928680+377079507+380540877+384085656+387612585+391070013+394405321
2148+397574631+400506654+403139552+405590237+408144299+410962384+413937730
2138+416915195+419921740+423113138+426571310+430225044+433973566+437808732
2128+441764567+445819504+449848485+453591689+456761965+459253629+461051621
2118+461929514+461554230+459938711+457568758+455096096+452983880+451321952
2108+449913189+448589061+447424202+446675866+446569476+447015823+447427437
2098+446932674+444873523+441118865+436018698+430152791+424038778+417978499
2088+412117910+406556187+401354352+396513707+392015845+387890106+384209783
2078+381021100+378338076+376226976+374777605+373881862+373149182+372242507
2068+371251047+370495497+369988240+369379166+368464980+367441168+366598490
2058+366037648+365720189+365576018+365504917+365410650+365332634+365496848
2048+366107855+367081205+368142649+369196545+370411605+372015150+374253502
2038+377450961+381813056+387181708+393118529+399188997+405085694+410482087
2028+414854929+417615821+418487207+417660445+415621040+412920612+409950435
2018+406738883+403072133+398920140+394613825+390562867+386957735+383748562
2008+380761317+377830112+374938770+372239904+369877796+367838317+366021881
1998+364420529+363200783+362556495+362346541+361971741+360924316+359389305
1988+357936885+356827656+355945041+355158143+354461273+353877783+353387743
1978+352956829+352611629+352383529+352146318+351772224+351525047+351847154
1968+352557523+352782909+352046175+350900876+350131046+349888071+349865276
1958+349845159+349801985+349737170+349611220+349374306+349063243+348845815
1948+348915093+349422277+350389082+351360981+351438403+350298533+348773191
1938+347791139+347407823+347205828+347009373+346906999+346943144+347033841
1928+347185598+347696761+348778174+349991338+350736661+351217071+351863777
1918+352120882+351152590+349458198+348359903+348396308+349056364+349530303
1908+349415286+348947185+348610241+348512069+348338632+347932447+347650278
1898+347970042+348789218+349425735+349636804+350102785+351189032+351931344
1888+351291889+349770749+348570488+348088480+347991647+347942933+347813079
1878+347619525+347458322+347456946+348017752+349915255+353412584+357004700
1868+358017133+355688307+352140517+349585599+348547470+348443572+348582983
1858+348577517+348400176+348253030+348303640+348647947+349415769+350791362
1848+353099773+356471859+359666640+360146863+357392292+354097405+352474970
1838+352364601+352567340+352712106+353776562+356706950+360575398+362906343
1828+362829739+361894617+360972584+359454827+357400139+355921167+355548152
1818+355792020+356117474+356672292+357966820+359971679+361737654+362278639
1808+361770712+361394908+362264917+364685258+367885432+370362705+371136737
1798+370892386+371442854+374114834+378373477+381358751+380476954+377231227
1788+375157797+375688965+377898757+380478107+382943666+384994116+386233905
1778+387217667+389566945+394485718+401188613+406414358+407298126+404917649
1768+401911699+399789294+399695845+402227113+405951427+408419478+409483041
1758+410686686+412223333+413815796+416704796+422045558+428316795+432134260
1748+432383371+431112642+430462627+431287715+433481071+436040006+437747263
1738+439384387+443614174+451010964+456865120+456286316+452119448+448756436
1728+447272185+447657731+449717663+452706396+456589793+462942504+472862232
1718+483739691+489431195+487775849+483308182+480312310+480291411+483405573
1708+489106187+495753748+501459271+506847520+514624130+524858045+532661764
1698+534940946+534087298+531644497+528703809+528088153+531237010+537053050
1688+544595907+555054278+568273503+577536894+577239590+573076069+571815196
1678+575406940+582769593+590844028+597239207+603271856+610689210+617010425
1668+618689719+618318712+621054243+627546701+633746986+636520782+638132806
1658+642739363+652735992+668544013+685660691+692788402+690755504+691531804
1648+697579626+702672654+701107113+696404838+694277413+696197934+701814098
1638+710493590+719085025+720910200+714766810+708214519+706192332+707976602
1628+710657804+712576466+713882000+713768731+710824473+707058845+706379378
1618+709078133+710248904+705606871+698006747+691757302+687638479+684439198
1608+681058225+677527614+674657803+672980331+672335150+672298410+672590991
1598+673016328+673269640+673013948+672145649+670812225+669140778+667218918
1588+665344880+663951735+663162048+662641292+662239234+662796061+665733253
1578+671211977+676181323+676525742+674144781+674546616+679113161+684215783
1568+686065873+685969486+687227050+691546827+700511464+716487789+737755866
1558+751437056+751387152+748672259+749980025+755411745+763454608+772367928
1548+781165523+790769614+802763962+817269572+832624441+843927646+843220735
1538+832973694+824711208+822603567+823764521+824208971+823937735+825807310
1528+830744974+837052727+843349697+850234135+857258542+861374241+861758598
1518+861184219+860872226+860252852+859988681+861801808+866928303+875683432
1508+885819287+889795686+882891688+873246097+868148161+868208031+871647312
1498+875526432+876613535+875019509+874680073+878300823+884579720+889122838
1488+888470963+883757384+878572729+875577452+875521375+877721834+881456448
1478+886648986+892941940+898987828+902632600+901588485+896286173+891067307
1468+889917806+893532903+899070009+902414763+903497031+906170053+912444785
1458+918753580+917650338+909110220+901029575+897131267+896766098+898289098
1448+899647214+898934279+896114818+893067480+891585906+892418432+895577626
1438+900024208+903035476+902712402+901043260+900588844+901280359+901701382
1428+901460341+901253362+901211044+901071893+901525714+903585683+906391385
1418+907154224+904837595+901196765+897828212+895195277+893236157+892100564
1408+892566805+894864691+897237843+897593418+896484301+895889172+896287809
1398+896867691+896781493+894942262+890727499+885906897+883297167+883403668
1388+883672971+881268732+877099410+874944691+876661802+880801301+885171130
1378+889127970+892994744+896337118+898190406+899020849+900643880+903642950
1368+906707022+908935817+911165578+914100688+916552229+916801823+915223118
1358+913961166+914402938+916065609+917704482+918772917+919472613+920067890
1348+920613710+921035179+921497255+922651219+925017751+928162517+930964649
1338+932625313+933097132+932864941+932656103+932885616+933269527+933437981
1328+933804860+935147581+937391920+939684526+941663355+943555391+945156035
1318+946005592+946365704+946828747+947317820+947412496+947181867+946962245
1308+946752515+946385710+945942599+945539202+944977541+944058297+943008009
1298+942148040+941474300+940933463+940607414+940383255+939888901+938780305
1288+936786304+933796010+930251492+927033469+924719592+922993332+920872378
1278+917857763+914665176+912206272+910367933+908622039+907070481+905864456
1268+904434868+902362107+900237434+898843917+897970263+896467642+893257130
1258+888260787+882604833+877895047+875154718+874307913+874464467+874572159
1248+873996739+872896324+872104331+872302162+873245428+873982087+873756441
1238+872745496+872113628+873031310+875320718+877485701+878369172+878189934
1228+877821790+877955735+878964152+880691601+882434967+883885230+885760681
1218+888839628+892700006+896008243+898106291+899643793+901239008+902423613
1208+902759108+903164735+904879913+907574652+909846805+911440310+913433195
1198+916042331+917949911+918571739+919394299+921901693+925610202+929115006
1188+931841650+933946837+935647141+937378681+939649050+942245617+944218421
1178+944830656+944393940+944182053+945416413+948186342+951334529+953709540
1168+955359048+957060467+959312689+962255534+965748735+969065227+971221137
1158+971963746+972005915+972293365+973327143+975000598+976967973+979245631
1148+981979117+984561255+985891333+985574060+984115392+982338410+981368965
1138+982438144+985603065+989122817+991336366+992873868+995374197+998197079
1128+998670385+996179874+994010875+996064894+1002763921+1010699019+1015988241
1118+1017299280+1015781709+1013122744+1010697234+1009858907+1011473088
1110+1014945614+1018308737+1020165967+1021273820+1023469816+1027634824
1101+1032843055+1036808967+1037371298+1034589990+1030811942+1028203402
1093+1027744746+1030011174+1034522980+1038969711+1041066718+1040120700
1084+1036212054+1030771186+1027732772+1030481951+1037752382+1044828478
1075+1048652265+1049585417+1048347710+1044387821+1038431106+1034060607
1067+1034736429+1040498586+1048402745+1055077899+1058774881+1060045089
1058+1060471987+1060437403+1059058091+1056596808+1054817224+1054606006
1050+1055491484+1057244965+1059705429+1061874131+1062986520+1063503335
1041+1064227872+1065554751+1067352632+1068765858+1068537757+1066478160
1033+1064462442+1064475458+1065485138+1063926812+1059074453+1055607431
1024+1058157812+1065763663+1072614336+1073741823+1069775018+1064630004
1015+1060752966+1058573108+1057805882+1058059864+1059127258+1060800192
1007+1062115916+1061358507+1057839201+1053216505+1049864834+1048428181
998+1047805088+1047002088+1046076448+1045234478+1043888410+1041505218
990+1038562224+1036121096+1034989816+1035210033+1036059070+1036502107
981+1035657235+1032779615+1027729426+1021593324+1015991365+1011916274
973+1009338598+1007512009+1005646227+1003378535+1000526797+996792257+992283797
963+988124813+985663009+984690738+983207676+979441528+973989355+969104273
953+965692584+962402345+957933079+952958304+949316060+948122605+948946726
943+950578161+952101459+953138062+953738546+954271276+954891170+954882171
933+953285245+950570873+948353755+947275651+946753556+946597151+946918663
923+946709825+944806782+942145660+940957188+941941359+943589825+943949937
913+942425449+940129050+938640262+938499698+939293401+940723435+942638675
903+944486311+945534071+945154027+942914969+939225648+935552688+933266478
893+932545362+932898111+933970934+934991845+934488938+931829006+928520398
883+926993456+928024631+929848095+930171021+928810004+927584123+927811702
873+928703280+928459412+926585895+924506292+923812991+924536264+925345064
863+924960112+923149589+920612818+918336350+917326744+918349812+921140044
853+924414367+927109849+928851876+929494380+929057218+927926980+926461544
843+924758489+923254900+922762852+923592105+925174603+926419375+926474559
833+925513667+924434076+923875836+924117844+925489496+927880051+930317237
823+931846782+932125901+931091231+929160596+927546788+927380044+928842282
813+931495074+934757795+937738644+939291690+939201997+938959840+939772880
803+940240906+938266466+934889360+933305970+934476221+936431548+937502586
793+937834064+937879729+937465251+936702115+936661210+938249658+940749019
783+942276407+941936450+940968641+941279369+943088926+944515168+943638316
773+940269912+935550829+931090413+928491616+928378198+929807265+931647240
763+933971529+936999456+939879382+941753866+943158613+945232267+947383119
753+947085927+943660330+940524117+941255347+945217467+948849298+949631920
743+947233779+942841415+939213376+938842704+940585846+940589937+937715291
733+934888616+934325988+934718675+934376041+934447439+936405146+938512044
723+938179152+936601191+937276791+940407055+941854715+938773835+934356035
713+933707358+936797758+938796890+936709106+932811170+930701148+931278799
703+932941544+933482530+932033605+929856351+928465734+927398489+924965765
693+920560236+915052954+909573040+904815879+901165156+898453684+895930598
683+892831348+888787716+884108199+880005441+878259323+879736287+882756776
673+882662175+874640210+859451638+847715362+851354333+865000494+875607647
663+879124499+877834062+874703203+872154086+871579559+871409692+868852543
653+864749562+862559143+863363705+865438548+866929493+866570349+863335666
643+857818046+852924188+851485526+853138901+854563208+853919515+852786375
633+851787627+848358684+841211339+833210050+828792027+829681745+832863995
623+832260759+824763195+815951692+814142878+820537648+828163728+829683604
613+825738292+822788605+824398026+827767471+828101924+824149919+818263114
603+813551840+812263188+814760021
##END=
