##TITLE=<SNM>
##JCAMP-DX=4.24
##DATA TYPE=INFRARED SPECTRUM
##DATE=2/5/2025
##SAMPLING PROCEDURE=Instrument type and / or accessory
##ORIGIN=Admin
##XUNITS=1/CM
##YUNITS=ABSORBANCE
##RESOLUTION=4
##FIRSTX=4497.3318
##LASTX=599.83466
##DELTAX=-1.4281778
##MAXY=1.761958
##MINY=0.19113532
##XFACTOR=1
##YFACTOR=1.6409513e-09
##NPOINTS=2730
##FIRSTY=0.20804483
##XYDATA=(X++(Y..Y))
4497+126783063+126990232+127877391+128974815+129485456+129062118+128148716
4487+127378028+126975603+126958168+127428426+128301782+129057060+129163487
4477+128740040+128493914+128860097+129461683+129666873+129388864+129000577
4467+128734582+128518832+128289360+128179082+128264542+128272070+127868083
4457+127230120+126913626+127129695+127537287+127717568+127562396+127319602
4447+127384357+127827038+128164898+127924529+127290516+126824280+126718970
4437+126676345+126387648+125909489+125611611+125781332+126241456+126519846
4427+126432489+126171016+125796932+125141389+124260187+123468396+122872459
4417+122351820+121997895+122110706+122759185+123728797+124792722+125692794
4407+126024770+125519714+124381816+123129845+122208061+121822291+121949703
4397+122364869+122724796+122724487+122258360+121524785+120915463+120677401
4387+120707022+120745852+120645518+120391065+120084061+119909192+119883112
4377+119728320+119216644+118451177+117676112+117131663+117062322+117389831
4367+117573953+117355687+117237500+117632751+118087872+117981073+117477651
4357+117225486+117576269+118429728+119318240+119540484+118798082+117683223
4347+117007874+116842140+116708534+116478363+116544362+117166534+118046319
4337+118636517+118724500+118582649+118516114+118471664+118274401+118022536
4327+117991643+118266710+118623549+118742017+118525004+118192165+117990581
4317+117909889+117847358+117882501+118096917+118255313+118023844+117475708
4307+117074863+117136031+117541290+117979647+118283355+118519819+118794495
4297+118951221+118650664+117946366+117526043+117992506+119110208+120121855
4287+120577294+120517587+120101569+119469944+118814664+118228089+117611148
4277+116964577+116561443+116637668+117146002+117903459+118719215+119399123
4267+119861953+120163454+120315276+120268574+120090862+119932348+119811092
4257+119618633+119347208+119186269+119368684+119975209+120905229+121919619
4247+122713481+123143811+123424290+123814565+124121396+123915053+123263088
4237+122815404+123065716+123783264+124211178+123722486+122412561+121091640
4227+120602793+121148704+122214400+123009116+123061294+122581410+122198654
4217+122248516+122551062+122866211+123109549+123148007+122910235+122621928
4207+122547320+122768665+123375454+124332825+125178720+125496848+125504421
4197+125622971+125823121+125854614+125750175+125745989+125925989+126145962
4187+126248094+126228498+126140904+125972710+125759429+125664135+125829133
4177+126319197+127176035+128269818+129225346+129776423+130040920+130231127
4167+130305063+130132600+129840062+129734388+129946952+130311819+130495115
4157+130216779+129557412+128995901+128897374+129110446+129283554+129285451
4147+129119872+128775610+128316130+127910408+127757978+127987741+128447347
4137+128704125+128523653+128197362+128179082+128577112+129091694+129275944
4127+128856483+127915321+126782781+125847104+125466990+125775692+126494811
4117+127237412+127978097+128876352+129774208+130300413+130340859+130021869
4107+129447253+128829840+128646072+129230821+130316259+131243173+131567404
4097+131351072+130962540+130677348+130459164+130140364+129805073+129861002
4087+130622954+131918495+133213936+134037692+134213115+133869642+133373894
4077+133139673+133332749+133707732+133790676+133315205+132500765+131839746
4067+131638752+131827596+132094145+132065513+131560738+130871115+130536160
4057+130693222+130921894+130786572+130270120+129697847+129471899+129797963
4047+130505058+131176193+131461040+131244726+130660631+130030014+129666900
4037+129658346+129902111+130321472+130929731+131652164+132189112+132287811
4027+132137542+132159690+132430507+132701678+132903635+133195538+133578139
4017+133771370+133529176+132991774+132568626+132366923+132025321+131367889
4007+130777264+130608398+130788933+131227836+132016232+133028197+133823703
3997+134107278+133951642+133562956+133184450+133196164+133825646+134679805
3987+135046642+134769251+134343016+134152900+134121235+134089607+134154680
3977+134543992+135263537+135952507+136217785+136028613+135607663+135166336
3967+134970182+135329845+136257141+137365744+138258878+138830732+139152102
3957+139264268+139186019+139070847+139258102+140024059+141134369+141801691
3947+141541852+140958147+140984591+141522302+141550525+140604604+139412912
3937+139063165+140258880+142964243+145995561+147425607+146543561+144967768
3927+144623896+145427702+145825487+145302351+145236124+146860009+149426063
3917+150641820+148878490+145000069+141549980+140399750+141587338+144278299
3907+148318341+153949821+160147436+164587805+165848384+164042121+159634624
3897+153997841+149884371+149433001+152045958+154382376+154022141+153049568
3887+154444943+157362988+158902039+159221557+160150287+160406021+158035076
3878+155242819+155333137+158413510+162731851+167091383+169912917+169347310
3868+166917159+165938883+166483060+165785236+162821025+159821707+159336429
3858+162799848+171038628+182590159+189217168+183418002+171911802+163007472
3848+158992611+159367685+162746816+167600617+173036042+178683905+183212576
3838+184186637+181251830+177133865+173811761+171043023+168479221+166846383
3828+166602927+167476718+170126280+175775540+182535638+185178389+183005569
3818+180506168+178652431+175026664+170136486+167201025+168239270+173088039
3808+179002514+182504291+184353234+187733709+191576779+191690762+188605449
3798+185918910+183934082+181607162+179925051+180295693+182456072+185527073
3788+189366820+193891586+198360015+202674633+208159622+215333949+222153381
3778+226766758+230795748+237320925+247884537+262054155+277511867+290982917
3768+301048719+308370828+313524730+317796995+323534031+331266411+338739188
3758+344544657+351018001+361755328+378487187+399424766+418523192+431365414
3748+441536717+454008442+467925722+477333474+481563496+486783507+496816527
3738+511153885+526299363+537446707+541965644+542112862+542543546+545888952
3728+551645638+557300220+560260164+559876518+556818320+551893581+546762235
3718+543638728+543843155+547678851+554078931+558845665+557023510+549683857
3708+542179006+538090391+538526197+542499813+546595329+547663269+546631725
3698+546604447+548895062+552837076+558171796+565924480+575404624+581212018
3688+579076358+573311680+569782297+569844483+572348243+576293672+581838194
3678+588726422+593091421+590472589+585346764+584249657+584555172+579281875
3668+569319176+561210851+557296043+555868468+555221950+555590232+557931445
3658+561371872+563200674+563249928+565296125+571811349+580277640+583967135
3648+579400615+571122770+564142681+559795081+557783283+557612782+558629541
3638+560362341+562996320+566740373+571271586+576673032+583449820+589553429
3628+590526964+586952977+584156561+586079875+593423996+602843880+608532134
3618+609084465+609148176+611625093+615112994+618080675+620634779+621499925
3608+618384119+613059134+610545494+613090081+618707105+624592267+629966288
3598+634500952+636343557+634609631+632349818+633947895+640384516+648451106
3588+653180172+652217098+648595018+646237713+645908116+646160200+645717928
3578+644701822+643639077+642424501+641278067+641638103+644945769+650961113
3568+656993893+659225955+656641412+651545772+646194416+641712057+639130275
3558+639637928+643154743+647404197+649113278+646731637+642520976+640501041
3548+641865123+644233470+645436132+645737470+645685455+644629030+642108053
3538+639065402+637076778+636578932+636596803+636934318+639018908+642958961
3528+646045055+646125765+644248145+642624933+641887208+640951304+638780628
3518+635692209+632727289+629943622+626508317+622760559+620423595+620366132
3508+621719753+623476417+625436419+627154144+627431799+625722646+623066473
3498+620661440+618193422+615087132+612795645+613514554+616973325+620294575
3488+621201929+620002900+617963423+615822750+614335895+614189803+614826041
3478+614915904+614322165+613942950+613671979+612391150+609951173+607810972
3468+607537132+609075747+610451053+609613222+606973976+605171254+605992232
3458+608469294+610317892+610412333+609190710+607369827+605517524+604591572
3448+605299149+606663848+606321538+603151356+598594426+594797123+592828041
3438+592734581+594270727+597018906+599647436+600029157+597539418+594380350
3428+593314554+594804206+597018906+598103372+597782711+596784040+595462819
3418+593671757+591633297+590096026+589437377+589151113+588487670+587332119
3408+586251430+585721184+585509347+584922400+583587376+581904739+580716388
3398+580589583+581388985+582640175+584091034+585382470+585549883+583903460
3388+581284628+579346312+578752137+578943524+579145481+578914138+578315495
3378+577840642+577715581+577510827+576883852+576229343+576116305+576627410
3368+577575809+578687227+579312096+578619811+576483896+573999025+572777293
3358+573506663+575223263+576312487+576314558+576172243+576609321+577243887
3348+577652015+578142851+578794163+578778471+577338328+574596941+571226836
3338+568394678+567755861+569984582+573479820+575838687+576295670+575549518
3328+574192845+572673554+571789119+571883959+572083919+571445138+570378216
3318+570063803+570949217+572426483+573711090+574435739+574576164+574307845
3308+573835679+573388431+573335835+573770878+574154488+573963137+573345461
3298+572615545+571844803+571333771+571420184+571543284+570689397+568941996
3288+567437670+566917848+567348133+568543131+570303136+572165646+573600704
3278+574441332+574888980+575142407+575170085+574924867+574696794+574937980
3268+575581373+575971339+575614936+574578162+573213535+572144833+572075165
3258+572795927+573129301+572520524+571596788+570735310+569668388+568748502
3248+568814501+569559418+569720076+569045408+568498380+568459515+568200748
3238+567265134+566039770+564901872+563971017+563659001+564345437+565415483
3228+565713261+565009135+563928918+562635303+560832727+558899132+557711145
3218+557493823+557893378+558781227+560028894+560876423+560481372+558949004
3208+557144975+555771085+555079636+554964782+554887995+554137157+552521101
3198+550639557+549189171+548161260+547209192+546549272+546607243+546981591
3188+546802154+546027815+545314173+544775354+543828408+542088053+539951557
3178+538451553+538400955+539426396+540204476+539811567+538452062+536946500
3168+535947103+535530875+535242868+534484839+532855197+530285728+527181836
3158+524392103+522808229+522906919+524387127+526015061+526345348+525153075
3148+523706975+523138008+523150575+522748949+521570878+519981991+518317007
3138+516573202+514696562+512883053+511547847+510932713+510826323+510824397
3128+510635553+510009740+508945034+508094998+508140329+508662076+508519434
3118+507373473+505957957+504933823+504334781+503995958+503772534+503368656
3108+502486364+501216069+500017039+499335288+499363766+499923216+500385138
3098+500000040+498589245+496746387+495265852+494582467+494580759+494656748
3088+494146443+492907675+491406109+490258005+489824959+490108172+490794644
3078+491390127+491395358+490586803+489266853+488021947+487148410+486523650
3068+485955628+485355459+484706436+484133655+483762177+483378822+482679672
3058+481857387+481389326+481322128+481219406+480668927+479567135+478158774
3048+476962832+476383658+476302185+476187331+475587780+474517335+473433813
3038+472662634+471925927+470834741+469623869+468869182+468673763+468607546
3028+468278348+467644363+466843617+465898487+464763858+463689744+463083727
3018+462785114+462134093+461058417+460318876+460351312+460609098+460357814
3008+459511411+458405078+457265073+456228735+455489194+455080921+454752995
2998+454247303+453513901+452582065+451506897+450491264+449729384+449126418
2988+448415972+447537786+446704422+446083513+445591224+445017717+444286058
2978+443556796+443013946+442616715+442212910+441797299+441453173+441123649
2968+440633648+439907366+439055985+438273002+437644646+437056973+436367631
2958+435629434+435032244+434621392+434198335+433566492+432784998+432036522
2948+431330108+430588170+429938638+429596291+429476461+429184531+428427628
2938+427312904+426208533+425396454+424954909+424868932+424925270+424530690
2928+423180992+421256188+419791926+419271160+419122307+418607316+417778965
2918+417212359+417086681+417004917+416640959+416113255+415642724+415172846
2908+414496544+413659584+413057890+412979759+413169620+413076197+412415005
2898+411296105+409979751+408688751+407558154+406681675+406124513+405782784
2888+405430957+405067579+404880115+404798279+404521133+403934803+403098643
2878+402040402+400935558+400142041+399731879+399322734+398588932+397676929
2868+396995469+396752248+396744148+396575463+396095815+395546463+395178690
2858+394854905+394253610+393381271+392539190+391842692+391176778+390561536
2848+390145162+389888321+389598098+389190770+388687802+388098131+387454265
2838+386820025+386207180+385595025+385002847+384407546+383663065+382708926
2828+381802153+381257922+380956222+380427719+379492396+378491436+377808451
2818+377446308+377143227+376681232+375998355+375162485+374341108+373690087
2808+373175351+372613539+371961465+371397946+371042560+370790440+370479077
2798+370019371+369359777+368486349+367435155+366247349+365009817+363912964
2788+363124714+362656980+362443798+362404969+362345145+361977808+361165039
2778+360039346+358890624+358035939+357676339+357679099+357581462+357004359
2768+356022978+355031608+354302492+353733634+353026167+352090771+351176878
2758+350508422+349952205+349250694+348421943+347684582+347128836+346673089
2748+346213455+345668316+344996881+344271688+343626188+343080213+342505471
2738+341788777+340986542+340322300+339996117+339930808+339785406+339299982
2728+338500072+337536998+336588272+335889231+335477944+334970108+334015461
2718+332843892+331946236+331436367+331090788+330726575+330242205+329577526
2708+328836786+328266475+328031900+328063429+328069858+327719593+326920264
2698+325880875+324863171+323994029+323316092+322848212+322545022+322260829
2688+321799815+321090640+320336171+319840758+319653585+319541092+319261039
2678+318685897+317795651+316774279+315973715+315599222+315523452+315469367
2668+315277653+314981546+314684277+314402989+314096131+313790544+313479108
2658+312979192+312204635+311435382+310964923+310688504+310375361+310058695
2648+309836324+309584350+309126750+308459565+307714903+307096681+306787752
2638+306720336+306555465+306070260+305431007+304919830+304536911+304082707
2628+303540892+303106520+302833079+302549776+302175465+301802498+301447730
2618+301049954+300685468+300449694+300217208+299831382+299401406+299130308
2608+298980420+298729699+298284503+297795175+297470245+297321702+297144862
2598+296779105+296314095+295962232+295801466+295707824+295483873+295037933
2588+294491359+294062237+293796024+293542288+293240805+293011515+292887507
2578+292716697+292412799+292057594+291710126+291347911+290991798+290683014
2568+290376065+290006331+289608737+289284788+289107985+289097088+289223075
2558+289387546+289425214+289232228+288917451+288697260+288607069+288468841
2548+288164144+287773869+287449412+287295547+287334649+287451119+287423259
2538+287101145+286528019+285897357+285443825+285299131+285354270+285330969
2528+285081137+284752340+284596713+284692951+284908130+285046503+284979650
2518+284710804+284367095+284083393+283901068+283811132+283817725+283891552
2508+283939789+283893005+283766763+283597334+283353241+282958299+282412107
2498+281855871+281475458+281351523+281424060+281555478+281604514+281503663
2488+281298346+281078790+280878722+280661200+280372321+279995686+279583599
2478+279232408+278992021+278790536+278478556+277977985+277370225+276824178
2468+276503099+276534337+276892357+277268029+277293074+276961280+276580086
2458+276309550+276045644+275731230+275471083+275332310+275258338+275179662
2448+275083859+274992670+274914629+274801065+274579784+274278265+274045905
2438+273972260+273949267+273823680+273615675+273447625+273328249+273192981
2428+273099067+273152844+273267789+273236605+273043184+272876224+272833944
2418+272833363+272809953+272806774+272862512+272968831+273125838+273319332
2408+273463262+273450041+273260542+273006698+272853323+272865255+272945820
2398+272975895+272958951+272980236+273116448+273441541+274024765+274878506
2388+275961683+277231761+278683527+280375808+282418354+284926128+288034270
2378+291908506+296588481+301838513+307341173+313024923+318968964+324965711
2368+330418336+334746394+337700126+339197115+339121091+337603470+335277548
2358+332759114+330005559+326699855+323204289+320660174+320007119+321323291
2348+324236559+328469776+333754588+339263768+343539811+345452737+344996300
2338+342986790+340253503+337281464+334311532+331382173+328323648+324988232
2328+321539450+318328223+315494611+312894232+310370240+307850824+305224255
2318+302387593+299419477+296528784+293837632+291309971+288903830+286721712
2308+284929324+283535657+282335101+281077537+279642788+278094274+276636623
2298+275468686+274607081+273886737+273166374+272467497+271864387+271335847
2288+270825796+270367198+270024088+269764577+269497474+269178357+268810184
2278+268413190+268036027+267731312+267521836+267424181+267427995+267410178
2268+267191894+266753908+266307332+266092826+266148164+266291895+266326166
2258+266234341+266140772+266112767+266095568+266027008+265916077+265820202
2248+265814263+265935528+266113385+266231907+266282415+266350212+266458419
2238+266569187+266732205+267056354+267507888+267908297+268181847+268459157
2228+268883376+269431311+269987584+270522715+271122612+271855542+272684710
2218+273547060+274444770+275409661+276467756+277674922+279073748+280594729
2208+282112149+283583186+285057509+286609292+288275620+289975474+291526385
2198+292850930+294117884+295580293+297295803+299070247+300681854+302100585
2188+303432176+304727935+305954752+307065443+308001566+308727703+309323913
2178+309914020+310460212+310773863+310786794+310654941+310497153+310200646
2168+309625214+308831261+307960884+307049643+306036225+304830076+303374840
2158+301701683+299862439+297879681+295812726+293690087+291430910+289071625
2148+286828884+284806134+283199830+282810936+284490830+288037122+292416559
2138+296970529+301682178+306544096+311393247+316162341+320892824+325686872
2128+330684948+335879025+341097728+346317267+351721400+357403261+363301753
2118+369369185+375535125+381671825+387877068+394670092+402822840+413158397
2108+426462541+443431990+464652818+490269156+519238963+549207769+577619833
2098+602750529+623827445+641083375+655384410+667136064+676115601+681985144
2088+684074238+681645304+674678800+663335419+647486070+627442914+603966522
2078+577881796+550484566+523277089+497204386+472922563+451055618+431737182
2068+414727596+399921196+387166622+376128792+366656130+358682020+351925573
2058+346211457+341562120+337738338+334411603+331705014+329909920+329023270
2048+328990361+329995170+332411028+336731567+343413733+352864165+365891962
2038+383729573+407052281+435250619+466793418+499764229+532059464+561865614
2028+588166282+610668557+629598915+645465264+658630980+669271870+677658903
2018+684120151+688702617+690915718+690037568+685847102+678718960+669098535
2008+657332716+643640966+627955870+610247498+590959719+570752055+550085701
1998+529358324+509219928+490358983+472836695+456002587+439442791+423624280
1988+409244351+396527153+385367133+375597456+366998658+359343321+352418152
1978+345994934+339994700+334590967+329935600+326005282+322846360+320536384
1968+318676526+316413589+313357280+310051576+307210191+304971191+303122394
1958+301567778+300270185+299066470+297797227+296482817+295321981+294568619
1948+294387584+294845329+295865830+296852133+296698395+294963779+292615210
1938+290862306+289972405+289570525+289372218+289320221+289382879+289448442
1928+289498314+289870191+290869316+292046334+292683643+292986815+293542342
1918+293847875+292927281+291187671+290064757+290229210+291103619+291691202
1908+291544129+291011231+290648743+290608679+290710947+290865738+291239105
1898+292034293+293074390+293814331+294196596+294990822+296483707+297536590
1888+297034657+295550726+294358889+293904558+293973336+294326688+294736305
1878+294988352+295068318+295226087+296095211+298578431+302808634+306894506
1868+307842760+305071807+301164663+298532627+297587479+297569262+297724944
1858+297725652+297607184+297561562+297734043+298274641+299403495+301300094
1848+304166614+308022633+311568615+312160539+309222898+305639503+303872450
1838+303809520+304110731+304331194+305575828+308903944+313236614+315765365
1828+315549605+314442981+313536499+312124760+310095600+308549937+308076864
1818+308208862+308446707+309034489+310545136+312853186+314792447+315268245
1808+314560233+313950438+314557291+316790152+320075079+322837860+323692836
1798+323141050+323316164+325927078+330430904+333495640+332055424+327770264
1788+324639420+324275243+325702346+327628930+329651807+331361033+332124075
1778+332502890+334403212+339229043+346056284+351135833+351213601+347606196
1768+343425792+340392839+339657585+341754815+345112534+347090334+347483714
1758+347890317+348538141+349299948+351714172+357129819+363880237+368039973
1748+367992716+365824220+364102026+364091529+365781721+367917854+369019501
1738+369987951+373812133+381093305+386648362+385159545+379653344+374665148
1728+371279278+369769903+370331859+372356007+375718449+381926706+392103711
1718+403437793+408979373+405931963+399276931+394060443+392317073+394543942
1708+400212145+407194777+412860546+417628914+424596145+434070913+441051983
1698+442352827+440182078+435709962+430278369+427474724+429058235+433868012
1688+440891071+451164297+463917672+471430296+468287611+461392990+457853727
1678+459482170+465105623+471547184+476339344+480839864+486692553+491266083
1668+491338512+489944208+492083792+498061360+503763307+506115382+507276926
1658+511344982+520894649+536381638+552279079+555797565+549421930+547065606
1648+550880054+553738328+549603474+542460584+538302228+538651294+543370590
1638+552110721+561792096+565131871+559852653+553481341+551827944+554965617
1628+560181742+565294454+570045496+573865500+575316177+575655218+578617959
1618+585456642+592079274+593380408+591259931+590543891+592563208+595747665
1608+598178706+599326847+599947393+600863538+602225368+603837066+605753806
1598+608128910+610691731+612889795+614533929+615901862+617188358+618239189
1588+618900562+619383952+620139548+621421903+623263272+626131790+631136041
1578+638506169+645150559+646483694+644328855+644670511+649178442+654421918
1568+656960766+658194738+661020104+666660883+676766441+694504308+718815225
1558+735256062+736043550+734066186+737330772+745511199+755906761+765802588
1548+774204296+782847916+793630248+805874735+817122222+822865505+817061344
1538+804005033+794560994+791033646+789097037+785241762+781641113+781914336
1528+785820391+790425522+794226675+798262113+802342156+804078624+803325426
1518+802132571+800400752+797271215+794317265+794384318+799357985+809474657
1508+821342908+825096623+815484626+803451612+797730486+798592945+803424661
1498+808212062+808754731+805105772+802182915+803683282+808669008+812437325
1488+811018830+805632241+800213687+797229952+796786155+797746977+799656489
1478+803407371+809728266+817632709+824012302+824841634+819807671+813952294
1468+811632548+813074798+815397886+816007971+816347012+819963280+828007058
1458+836544397+837385715+829309173+820540092+816138880+816316718+819160028
1448+821538473+821189261+818951823+817316987+817728893+820482193+825470970
1438+831232270+833857858+830906451+825842266+822831434+822016850+821201829
1428+819431072+817893437+817579386+818282023+819834259+822320148+824277535
1418+822835139+817823188+812297408+808477585+806334660+804724742+803333271
1408+803251835+804791140+805934305+805049253+803915387+805084051+808210754
1398+810989990+812128941+811513625+809155885+806150283+804624489+805396285
1388+806814707+806715182+805788649+806894037+810961875+816134012+820673762
1378+824883261+829589516+834168785+837106317+838209235+838943764+840308573
1368+841940357+843511337+845510204+847875790+849219387+848581551+846819148
1358+845226883+844204747+843506760+842711136+841413089+839552832+837674485
1348+836462234+836035145+836245674+837565806+840754477+845233348+848669744
1338+849277576+847956428+846984273+847580265+849373906+851316762+852673798
1328+853378687+853837086+854700126+856646106+859931978+864009987+867697157
1318+870009203+871075581+871994195+873630121+875954734+878601390+881388980
1308+883990377+885799419+886639793+887114319+887838968+888816571+889889486
1298+891149394+892437924+893013284+892243522+890241676+887491136+884324478
1288+881011727+877893596+875153081+872645906+870195251+868065620+866878650
1278+866798666+867065351+866788205+865965484+865238075+864994128+865247519
1268+866080556+867717862+870211814+873197801+875900685+877546128+877985421
1258+877772930+877539371+877395822+876829543+875188895+872594618+870115994
1248+868560633+867649138+866940545+866644510+866790239+866725729+866223379
1238+866124797+867437737+870374833+874285682+878213458+881554541+883992265
1228+884904414+883905308+881911090+880407671+880042114+880766400+882627747
1218+885644100+889287974+892498221+894380345+895211856+896330757+898409898
1208+900437897+901188988+901118521+901928675+904685462+908959762+913490503
1198+917317663+920372156+923105842+925702299+927865783+929432622+930784354
1188+932184615+933223968+933783418+934950847+937917437+942305501+946343554
1178+948772997+949979073+950976727+952158539+953556693+955428211+957788421
1168+960023172+961617035+962766229+963821128+964572002+964676322+964652857
1158+965569002+967545058+969731571+971689175+973634502+975741975+977976653
1148+980324296+982512697+983963883+984636734+985531957+988040366+992341981
1138+996513122+998325142+997745860+996220211+994612182+993720447+995047044
1128+999076525+1004189382+1008555507+1011970180+1014766197+1016637715
1120+1017725450+1019061782+1020547329+1020194485+1017266688+1014157493
1111+1013027985+1012937032+1012355497+1012500427+1015588846+1021272268
1103+1026715231+1029575249+1030376249+1031279172+1032589932+1032589133
1094+1031052152+1030457323+1032528037+1035820447+1038193516+1039906374
1085+1042381003+1045092750+1046047833+1044841320+1042816882+1041245466
1077+1040980089+1042439120+1044950072+1047328226+1049277113+1050840828
1068+1051376087+1050661391+1050111821+1051481134+1054753202+1057901700
1060+1058836006+1057187149+1054026447+1051067921+1050044259+1051834195
1051+1055900726+1061007336+1066349029+1071066690+1073741823+1073547348
1043+1071152849+1067978780+1064608130+1061010968+1057914122+1056757663
1034+1058109469+1060469171+1061235663+1059064842+1055099871+1051852647
1025+1050908897+1051449678+1051295667+1049972267+1049413398+1050765275
1017+1052623717+1053339285+1053142994+1053125123+1053697432+1054746156
1008+1056008969+1056493012+1055296453+1053657040+1053622388+1054665155
1000+1054425349+1052625170+1051361267+1051318914+1050744498+1048687732
991+1046113069+1043744141+1041350077+1038638476+1035526084+1032534721
983+1030910128+1031028324+1031405649+1030541375+1028468553+1025973002
974+1023604728+1021604263+1019986717+1018549334+1016788166+1013498880
965+1007636747+1000248457+994199550+991494342+991613700+992372129+991603093
955+988250823+982771246+976841116+972194576+969447378+968086637+967216623
945+966267134+965205988+964327256+963976592+964169250+964332777+963801659
935+962656969+961418492+960066977+958152308+955984755+954832728+955396755
925+957112301+959188682+961047632+961774024+960672122+958354773+956179375
915+954934723+954501678+954408327+954544685+955148813+956317331+957682212
905+958205267+956653321+953366868+950798888+950784432+952413020+953884910
895+954855321+955245214+953941283+950636814+946953857+944285189+942487625
885+940916646+939369131+938424655+939267935+942288937+945841785+947421991
875+946111594+943170720+940647636+939794621+940165990+940177032+938930928
865+937130167+935726057+934530950+933203118+932776393+934599092+937932620
855+940367947+941026923+941289540+941858144+941422846+939049196+935849120
845+933479901+932537313+932765859+933879529+935868880+938608450+941038111
835+941570827+939707300+936599485+933893114+932525399+932572038+933610592
825+934868756+935447894+935140381+934999520+936656585+940797288+946292556
815+950799324+952553518+951985641+951351292+952462129+954914382+956587285
805+956102370+954389003+953155757+952768987+952383525+951618413+950783415
795+950072424+949573778+949230088+948607581+947666155+947903636+951171347
785+956822805+961432586+962385198+960417497+957359008+953815242+950541720
776+949598769+952115896+956376974+959656380+960897690+960588797+959332740
766+957521954+955653923+954260928+953352702+952305285+950967646+950373471
756+951369599+953154086+954126895+953934309+953852509+954803669+955699473
746+954623288+951593786+948800094+947898188+948662283+950269368+952782718
736+956763743+961030996+962348367+959395070+955158983+953257607+953413579
726+952627617+950020699+947964078+948796825+952252253+955838591+957264786
716+956426083+954492742+951842091+948525490+946065391+946597308+949960040
706+952917913+951995521+946939327+940964956+937658670+937914168+939494301
696+939025078+934759859+928528755+924630619+925121491+927107935+926692834
686+924336183+922948054+922484425+920669934+917804903+916513976+917150213
676+917457217+916507438+914671734+910059120+899938816+887592042+882840892
666+886976073+892185114+895426236+898172998+899664721+896795912+889859120
656+883594889+881796962+883145789+883430926+881410992+879900527+881005697
646+883593582+884931439+882725747+877169819+872253616+872682230+878034457
636+881430679+876173328+864432062+855328154+854128398+857711757+859571579
626+856669062+850983896+846854381+847670492+853179781+860221474+866848719
616+872801224+876334457+876194540+874783892+874491780+873301831+868620494
606+863192423+861378151+862257391+861650793+858849836
##END=
