##TITLE=<SNM>
##JCAMP-DX=4.24
##DATA TYPE=INFRARED SPECTRUM
##DATE=3/5/2025
##SAMPLING PROCEDURE=Instrument type and / or accessory
##ORIGIN=Admin
##XUNITS=1/CM
##YUNITS=ABSORBANCE
##RESOLUTION=4
##FIRSTX=4497.3318
##LASTX=599.83466
##DELTAX=-1.4281778
##MAXY=1.7809794
##MINY=0.21841443
##XFACTOR=1
##YFACTOR=1.6586663e-09
##NPOINTS=2730
##FIRSTY=0.23993461
##XYDATA=(X++(Y..Y))
4497+144655140+144559184+144369320+144364199+144624847+144894882+144947806
4487+144731215+144259528+143889233+144343177+145757509+147090348+147252677
4477+146501216+145996433+146299557+146952689+147228582+146697881+145334020
4467+143628415+142438140+142304514+143064555+144237895+145350712+145914654
4457+145785718+145429222+145207735+144865047+144271818+143908126+144139091
4447+144768237+145406241+145594551+144902941+143544910+142441320+142320613
4437+143136856+144206524+144549805+143634255+142082039+141052556+140941103
4427+141256201+141516588+141697747+141998759+142471622+142767621+142359423
4417+141216663+140020045+139485472+139682344+140158531+140505971+140648410
4407+140670977+140544916+140198042+139805934+139783600+140375490+141319914
4397+142042887+142199269+141884539+141347171+140767086+140267684+139840728
4387+139360579+138883053+138685005+138804436+138830138+138343045+137369162
4377+136365023+135836523+135845902+135926837+135692018+135277684+134951688
4367+134692397+134455188+134432495+134686522+134890679+134815511+134788659
4357+135290872+136241468+137011472+137137838+136772421+136314974+135863420
4347+135281269+134577296+133934531+133521617+133417144+133537159+133619873
4337+133438238+132949060+132256443+131682610+131680751+132303725+133030570
4327+133386158+133316237+132913636+132392485+132214884+132598412+133107903
4317+133235437+133048906+132900799+132895723+132926106+133011919+133357868
4307+133981489+134512388+134648412+134613807+134847844+135469372+136278571
4297+136940715+137092290+136704674+136266156+136205937+136369937+136399593
4287+136299243+136229286+136027959+135396127+134461216+133828091+134075227
4277+135293513+136952008+138178470+138447068+137998668+137367815+136738292
4267+136093118+135630497+135514255+135445340+135052729+134653946+135003642
4257+136215658+137566447+138414789+138640238+138275360+137531195+137017796
4247+137180871+137757605+138306750+138823032+139431965+139974947+140202462
4237+140026622+139485607+138747748+138167276+138068364+138403137+138792218
4227+138956720+138945203+138903186+138896259+139059477+139547002+140135847
4217+140234112+139615360+138860899+138670774+138939049+138969406+138487001
4207+137991580+138120354+138905171+139686180+139800903+139365493+139150061
4197+139615729+140379758+140777903+140627657+140231417+139888522+139722393
4187+139882773+140503168+141377645+142014561+142099063+141665010+140936099
4177+140312568+140309711+141119405+142316337+143260033+143728594+143966216
4167+144201996+144427400+144627533+144790706+144611452+143752050+142583354
4157+142024336+142402573+143073826+143335569+143123830+142684395+142214613
4147+142003080+142298522+142833670+142963019+142459925+141830663+141699140
4137+142114129+142581710+142678798+142480148+142331286+142404504+142658477
4127+143014640+143313092+143261300+142699901+141898221+141398478+141504640
4117+142033248+142621455+143076225+143300254+143167563+142714239+142230137
4107+142007590+142166469+142698608+143459816+144165297+144574501+144666172
4097+144566101+144347543+143968623+143435362+142937263+142676400+142636925
4087+142723178+142991525+143439926+143755860+143625235+143128196+142598043
4077+142308925+142434941+142996565+143678635+143959729+143595606+142852905
4067+142193411+141864945+141864999+142135583+142582977+142957144+142993277
4057+142756751+142593093+142668170+142775428+142627716+142224064+141928703
4047+142197634+143112052+144100614+144261613+143190912+141511980+140421568
4037+140585523+141553566+142391684+142778824+143169288+143912564+144738860
4027+145293324+145663331+146075572+146487750+146715651+146633746+146227255
4017+145712769+145351126+144995672+144335514+143598679+143329389+143542808
4007+143777538+143840891+143926894+144183292+144592936+145095752+145601792
3997+146035360+146371391+146489582+146221559+145766277+145673348+146093540
3987+146479835+146381570+146067585+146038630+146376413+146862645+147427026
3977+148188144+149095519+149712510+149574617+148780106+147936993+147490973
3967+147462827+147838108+148707885+149871632+150776707+151116331+151116079
3957+151061224+150990791+151013538+151492573+152621067+153905268+154391976
3947+153820443+153233997+153677223+154656981+154777849+153685165+152329937
3937+151709137+152323667+154160319+156408179+157631757+157048474+155524979
3927+154734134+155455157+156840750+157632656+157944915+158828510+160344422
3917+161074519+159848839+157349054+155219296+154219486+154095420+154974792
3907+157885604+163348378+169807027+174261097+175083710+172952927+169043689
3897+164522204+161242175+161028666+163868991+166900958+167103436+165783030
3887+166192099+168451278+170234495+171209204+172531263+172798765+170222475
3878+167135472+166937325+169797576+173892294+177891801+180285791+179575279
3868+177613518+177661150+179295145+179041676+175677900+172031403+171204262
3858+174512231+182134266+192158558+197289505+191539986+181086573+173052917
3848+169361645+169661255+172755211+177116102+181752508+186407259+190227647
3838+191260140+189028612+185703592+183054282+181044619+179399537+178565623
3828+178700668+179531905+181902250+187035498+192917852+194594790+191881425
3818+189195029+187171603+183420085+178641860+176003186+177190362+181695173
3808+187047572+190637884+193208443+197002796+200868660+201515746+199583578
3798+197911743+196540686+194598330+193086353+193469369+195934458+200024665
3788+205404968+211389163+216890801+221981304+228424716+237322669+247149819
3778+255801796+263926368+273841757+286747699+301908598+316637931+327617742
3768+333889455+336601706+336733050+335853893+336206598+338334865+340732899
3758+342706680+346199697+353781288+366227257+381284177+394177326+403121977
3748+412019122+423912659+436599719+445089573+449911693+456272634+467312276
3738+483607993+503707747+522950445+535156295+538987392+539685579+543186753
3728+551402853+561812406+570348725+575676706+578905671+580271032+579364385
3718+576753111+573748850+571656697+570683786+568731889+563432405+556021363
3708+549334921+545139944+544406073+546754947+549761976+550694317+549455771
3698+548330099+549808260+555115614+563751726+573689700+581054349+581500989
3688+575788033+569749828+566791312+566819018+569206486+573691138+580276027
3678+588361717+594040822+592105096+585036733+579277349+575851207+571684260
3668+565746529+560137067+556827859+556143615+556883091+557984687+559682019
3658+561868106+563022131+563395391+566460240+574446425+583841705+585682203
3648+576406911+563762147+555287026+552592526+553868624+556318117+557894023
3638+558215464+557778455+557091768+557434698+560966382+567824595+573128714
3628+571914928+567446699+565166102+566959022+572699827+580968464+588525007
3618+592704496+594343325+595038241+594764522+594173890+595526458+599434025
3608+603198390+604344510+603831426+604004346+605642923+607873067+610010426
3598+612250272+614286221+614927594+614350905+615221904+619573739+625141552
3588+626472020+621828894+615588875+611650512+610553120+611657340+614205008
3578+617082921+619168964+619779289+619019976+618441059+620323708+625369382
3568+631267943+634354281+633482922+630674436+627985183+625727369+623013105
3558+619157752+614775444+611446903+610173069+610647630+612343991+615018654
3548+617434009+617426822+614440168+610168110+606248145+603434700+602224004
3538+602247794+601751491+599439056+596600312+595869353+597936458+600601850
3528+601445790+600514347+599388890+598712624+597793687+595880744+593149842
3518+590570156+588871890+587781578+586677394+585918944+586570164+588507363
3508+589941396+589659161+588408505+587275429+585992971+583813568+580842547
3498+577575167+574597389+573163428+574186074+576302555+576878525+575232797
3488+573254057+572976600+574557501+576204415+575818039+573165872+570117230
3478+568322837+567521660+566502392+564856556+563169897+562048824+561767164
3468+562466069+563753702+564404203+563457919+561533692+560261691+560341000
3458+560782824+560244011+558539744+556469656+554742319+553526951+552490111
3448+550852720+548274974+545896453+545270029+546422079+547945807+548530222
3438+547731345+545992940+544415524+543730777+543476571+542715246+541151271
3428+539330538+538224522+538474380+539645044+540574366+540703086+540446041
3418+540230537+539848114+538687296+536401489+533477111+530858867+528935143
3408+527562523+526964596+527570501+529005720+530171532+530371440+529739447
3398+528610073+527011060+524928934+522879724+521816507+522169104+523189307
3388+523544599+522485407+520391853+518348465+517264764+517169931+517297034
3378+517149664+517212011+518014051+519084922+519673183+519831730+519938817
3368+519776964+518950309+517716183+516629321+515803851+515191945+515101460
3358+515697483+516365915+516255019+515334465+514442012+514343765+514937452
3348+515366950+515081912+514463932+514035296+513556998+512469955+510960602
3338+510023517+510413990+511773278+512971540+513284968+512823127+511922517
3328+510775104+509624492+508859358+508746557+508975213+508594802+507023999
3318+505006233+503692080+503208642+503142593+503556963+504452147+505135816
3308+504921066+503826693+502440741+501669247+502265197+503962600+505516766
3298+505998155+505485861+504432850+503218093+502273498+501787402+501465601
3288+501152461+501180419+501776226+502728942+503769915+504731651+505300651
3278+505237944+504885778+504928900+505518994+505910257+505282539+503843691
3268+502629186+502268971+502555914+503094440+503590742+503597893+502695127
3258+500992693+499201571+498144067+498088511+498492711+498505001+497755966
3248+496656778+496058599+496416478+497108233+497039201+495987627+494627009
3238+493452752+492606548+492307386+492474989+492347634+491302205+489746351
3228+488562283+487912609+487205582+486086737+484797810+483639473+482724991
3218+482171085+481843643+481118720+479720945+478442009+478196247+478734342
3208+478930944+478109823+476680389+475506348+474891064+474405147+473598364
3198+472413254+470934337+469338415+468048231+467316121+466828444+466248951
3188+465770832+465610022+465433508+464805934+463700349+462227721+460434047
3178+458552979+456984296+455882556+455036101+454125932+452951710+451577186
3168+450419926+449958445+450119112+450166474+449474433+448251232+447144856
3158+446292471+445327501+444228097+443372118+442697577+441650064+440182000
3148+439040084+438723494+438815632+438677353+438196360+437459435+436282590
3138+434649727+433162222+432387313+432023576+431297648+430063702+428980109
3128+428550718+428412296+427812680+426628612+425568341+425291388+425681825
3118+426160160+426323701+426018898+425134207+423733342+422208931+420941135
3108+419921112+418956716+418116693+417750513+418091826+418882187+419409573
3098+419109118+418144651+417093724+416167024+415244997+414487589+414201364
3088+414191303+413847582+412889008+411694303+410939986+411029213+411690422
3078+412104936+411639107+410411306+408955065+407558512+406267572+405291894
3068+404890496+404839576+404456398+403342692+401843184+400646971+400153615
3058+400226887+400332537+399951371+399046737+398061463+397339811+396713027
3048+395819820+394688757+393798999+393564018+393834072+393991900+393593162
3038+392754864+391823529+390973300+390265303+389727316+389207584+388454848
3028+387465298+386535328+385855864+385199147+384222210+383034082+382118020
3018+381639290+381261969+380723587+380090515+379407170+378640778+377972310
3008+377641382+377553700+377397848+376992786+376265024+375164291+373884276
2998+372856742+372233660+371696608+371028930+370453858+370153906+369960358
2988+369723868+369479616+369126660+368434115+367435545+366447433+365692325
2978+365123505+364580882+364026329+363575701+363268706+362949600+362461815
2968+361798881+361024942+360248165+359609595+359093636+358527440+357884666
2958+357302838+356714469+355803294+354475018+353124067+352264854+352030880
2948+352156581+352342475+352456677+352376505+351885522+350957313+350003627
2938+349495286+349296888+348745964+347560531+346265746+345484118+345215250
2928+345004310+344462729+343563485+342681453+342218571+342046585+341640839
2918+340869740+340186179+339957774+340077870+340240585+340206626+339833331
2908+339131838+338264396+337389408+336624741+336120138+335953650+336007804
2898+336080717+335999359+335590559+334771666+333720703+332771436+332123451
2888+331735242+331415131+330972444+330357448+329666736+329003694+328393369
2878+327840720+327420960+327250016+327313262+327383875+327227125+326801220
2868+326145042+325277672+324349464+323637298+323291493+323247508+323275322
2858+323003184+322175631+321023761+320107232+319760851+319894279+320196387
2848+320332689+320107124+319585307+318959494+318300477+317568691+316824184
2838+316255724+315945423+315692330+315176228+314320537+313440805+312954529
2828+312918665+312940586+312632980+312047127+311486752+311041622+310562964
2818+309990910+309479335+309232388+309290747+309407932+309186139+308466212
2808+307492330+306594810+305863599+305221975+304644566+304165154+303770369
2798+303425893+303151815+302946480+302657417+302061394+301133635+300165305
2788+299516332+299243314+299039471+298594089+297947290+297389161+297064144
2778+296824653+296435438+295768138+294838097+293817966+292992137+292545138
2768+292362767+292112460+291549839+290725483+289876997+289147853+288482619
2758+287803244+287181887+286752676+286497068+286200962+285651493+284865481
2748+284087033+283525562+283146265+282773957+282327372+281856745+281397349
2738+280887283+280237519+279458604+278725830+278275525+278165024+278152949
2728+277922892+277426643+276865191+276328910+275678697+274847065+274003826
2718+273300213+272686169+272105131+271646758+271383299+271234096+271073914
2708+270845276+270529764+270130110+269715740+269387435+269125323+268744086
2698+268109163+267350174+266728458+266333206+266045957+265757702+265474406
2688+265231520+265016663+264777891+264480221+264149706+263824851+263456335
2678+262926361+262205392+261446672+260882236+260626701+260587693+260561011
2668+260397955+260089432+259722892+259378758+259054406+258687291+258245826
2658+257776673+257378906+257135246+257021817+256897535+256660128+256360248
2648+256060692+255696991+255228754+254781234+254477419+254282147+254116701
2638+253954758+253768416+253559901+253411974+253354980+253271305+253046727
2628+252698820+252298699+251897373+251562439+251353583+251216454+251014012
2618+250725667+250498143+250400884+250278740+249982382+249581470+249206378
2608+248870562+248590411+248482587+248600760+248804082+248885529+248797344
2598+248707758+248804459+249040608+249138747+248879798+248337355+247793905
2588+247475824+247401977+247439386+247449034+247393317+247340151+247346188
2578+247353590+247270993+247116615+246996681+246997921+247135661+247311025
2568+247338174+247130756+246821550+246639089+246757388+247230728+247906023
2558+248449706+248627316+248512377+248324077+248137572+247844412+247352225
2548+246735557+246168139+245776463+245580705+245478002+245267960+244825705
2538+244252968+243746478+243398014+243235425+243299785+243528998+243695971
2528+243595299+243246780+242879162+242733481+242844557+242999114+242952632
2518+242666156+242307468+242090688+242122455+242314332+242457749+242456761
2508+242401546+242365036+242296148+242173573+242060269+241955087+241787772
2498+241587253+241471541+241462917+241470769+241447986+241411242+241320990
2488+241112746+240836798+240595924+240374383+240092920+239749648+239367369
2478+238951472+238587304+238366445+238200694+237939606+237600036+237265011
2468+236915810+236553133+236299789+236231620+236243317+236158689+235898895
2458+235535338+235213412+235012426+234881891+234719140+234485776+234238092
2448+234056691+233956090+233878470+233772712+233643597+233514320+233376669
2438+233205474+233014675+232866065+232793925+232749024+232661090+232525560
2428+232387245+232264652+232131153+231972444+231840867+231823780+231941558
2418+232095056+232148509+232069667+231974511+232014974+232207443+232395403
2408+232429056+232355820+232347357+232462763+232616009+232775867+233013148
2398+233308698+233518847+233627606+233845787+234367657+235225468+236477022
2388+238343591+241068186+244801934+249660653+255695230+262779188+270725144
2378+279537159+289348515+300051462+311142348+321976082+332015538+340871465
2368+348396816+354702489+359703674+362682924+362871693+360576937+356945713
2358+352415855+346332514+338356211+329558211+322050360+317686810+317119464
2348+320077980+325982004+333887586+342078567+348402530+351457209+351492533
2338+350019546+348260981+346328417+344035926+341645331+339346623+336801578
2328+333734071+330309941+326618058+322466563+317884347+313271873+308923057
2318+304747485+300514003+296177890+291900711+287789139+283765717+279766210
2308+275883996+272223538+268772241+265467597+262295068+259333174+256729034
2298+254549595+252661932+250864090+249109316+247481556+245977305+244472443
2288+242949021+241600747+240606363+239900361+239276632+238646345+238080257
2278+237621597+237176538+236645055+236078176+235619714+235336436+235153561
2268+234922875+234561150+234154830+233877266+233787140+233778911+233703447
2258+233477109+233129327+232767836+232451444+232155391+231883433+231684962
2248+231564669+231500291+231491954+231500488+231439614+231298370+231175040
2238+231158852+231247037+231380932+231521600+231679105+231888410+232183995
2228+232583542+233045077+233463705+233791920+234128777+234592216+235152807
2218+235716811+236307336+237011056+237819924+238680825+239620048+240688098
2208+241870477+243110747+244336590+245496850+246636663+247827343+249017502
2198+250107311+251128538+252198942+253350632+254503526+255578638+256584826
2188+257563559+258485640+259299449+260012207+260606900+261006806+261234582
2178+261448199+261754296+262099886+262334992+262327661+262051553+261562258
2168+260920723+260191866+259414639+258534153+257495013+256367076+255280537
2158+254334522+253584301+252992878+252444021+251866559+251304172+250918676
2148+250889856+251244537+252064760+253920242+257534505+262933961+269456719
2138+276511551+283874224+291525457+299562077+307991938+316594306+325225961
2128+333997189+342994414+352167254+361457675+370780941+379992268+388885819
2118+397090024+404143258+409763501+413936270+416912322+419236185+421610896
2108+424706685+429031173+434722244+441375446+448103538+453886064+458164267
2098+461061370+462844371+463543887+463164446+461675935+458828064+454324618
2088+447932989+439473068+429008642+416744217+402795182+387529191+371757770
2078+356323098+341927459+329141290+318119471+308645026+300558976+293793602
2068+288208989+283626217+279721453+276079969+272692188+269896135+267732616
2058+265991928+264657058+263730323+263084225+262769522+262983085+263833278
2048+265480300+268166893+272065494+277426859+284580801+293611141+304498993
2038+317440079+332448773+348907780+365768220+381792697+395792761+407238723
2028+416405671+423778621+429699066+434347475+437757159+439973539+440947780
2018+440229578+437366003+432533606+426286436+419017411+410923348+402083915
2008+392470041+382082695+371116181+359982424+349149697+338890065+329249635
1998+320312170+312387111+305797119+300404868+295494635+290434569+285335892
1988+280672498+276612889+273130976+270292250+268051218+266136334+264350566
1978+262728555+261364254+260256927+259315332+258509591+258014223+257980534
1968+258108607+257780429+256801210+255668781+254920339+254571893+254370260
1958+254261574+254321262+254444969+254413975+254191410+253991358+254085203
1948+254643476+255774144+257446051+259057101+259469602+258231129+256330817
1938+255017688+254582979+254638391+254853015+255111551+255373429+255634248
1928+256022241+256881759+258389873+260028630+261129579+261921179+262929919
1918+263615941+263048829+261696530+261000068+261621281+263027447+264257979
1908+264761342+264717825+264665773+264870460+265203113+265538982+266021593
1898+266842391+267813721+268438726+268721375+269398000+270693737+271517122
1888+270873665+269379008+268227947+267713246+267487339+267351540+267314814
1878+267365123+267434856+267545644+268145512+270071050+273532714+276963366
1868+277796507+275453132+272085061+269813107+269047847+269089640+269213275
1858+269141890+268976461+268916899+269048080+269440422+270300749+271903983
1848+274558307+278290096+281790031+282476467+279740462+276279733+274486239
1838+274398629+274854378+275364515+276795099+280046218+284153261+286612403
1828+286599376+285738187+284880987+283331152+281151982+279600135+279349630
1818+279921307+280649841+281537281+283034722+285114225+286853385+287354520
1808+286890506+286593824+287429912+289697986+292813413+295378276+296245089
1798+295899428+296198158+298645045+302813556+305825975+304962306+301585360
1788+299181163+299192393+300709940+302509903+304315184+305989660+307049463
1778+307820383+309877714+314578085+321214254+326330109+326763057+323609700
1768+319809687+317135743+316792273+319236448+322803168+324848030+325239113
1758+325706667+326602714+327707688+330274006+335519084+341988441+346174579
1748+346733264+345701311+345324889+346410925+348724582+351252162+352791845
1738+354000529+357410643+363644517+368311181+366838301+361799204+357128515
1728+353900521+352488983+352972169+354569636+357118849+362132432+370710184
1718+380294268+384734072+381717880+375682226+370920190+369021873+370385724
1708+374732672+380411669+385170147+389298680+395396574+403532897+409214409
1698+409886507+407490127+402649285+396542982+392838629+393389732+397163584
1688+403178611+412208286+423245952+429124174+425296707+418336294+414648399
1678+415730303+420323659+425381478+428717027+431744072+435992089+439019242
1668+437909344+435397792+435975451+440014541+444050720+445429413+445990327
1658+449406838+458105836+472713889+488752560+494599626+490985040+490223212
1648+495070666+499581802+498121392+493889761+492392517+495269244+502496585
1638+513748281+526130394+532542075+530365475+526824520+527895679+533841316
1628+542008399+550336509+558950628+567784060+575206385+581238230+588766528
1618+599415339+609924612+615265170+616550216+618058851+621066922+624448001
1608+627076595+628851511+630365249+632289367+635026917+638738026+643521372
1598+649450047+656403811+663818410+670842537+677072637+682833135+688515653
1588+694076494+699157312+703330189+706486170+709272160+712973423+718878596
1578+727300964+736024757+741302500+744097188+749444358+759566034+771812850
1568+781861649+789690223+798528937+810319950+825930381+846852838+871252464
1558+886772051+887639672+884197503+882244205+882078687+882974698+883459465
1548+882879757+882893124+884864606+887924280+890905040+891757568+885191114
1538+872033913+860715664+854487576+850558556+845629888+840598086+838208462
1528+838577948+840019744+842265555+846228426+850338776+851107647+848674900
1518+845751781+842599969+839083054+837214348+838855656+844203832+852735444
1508+861737592+863052823+852884647+841444146+836040342+836009797+838453037
1498+840312904+839169587+835725837+833856771+836056585+840889449+844080143
1488+842534854+837338684+831506244+827368799+825957548+827021089+829698052
1478+833342537+837697031+842475992+846079942+845079575+838819864+832266419
1468+829897780+831701803+834143534+834147990+833559945+836596117+844423397
1458+852639784+853137919+845257527+836369150+830176926+826826032+825946408
1448+826348668+826091371+824404066+822158470+820489923+820333389+822331247
1438+825625650+827076429+824557510+820491360+817916669+816968625+816213265
1428+815042996+813995555+813253491+812567487+812497916+813863529+815538760
1418+814824510+811489356+807920192+805403788+803636059+802091489+800767777
1408+800237516+800894772+801968950+802270519+802109097+802809979+804673942
1398+806814966+808328704+808441685+806622425+803887463+802330099+802626206
1388+803081506+801670040+799252602+798923794+802281658+808242891+814726838
1378+820486904+825379062+829369747+831960106+833183128+834388613+836675965
1368+839473815+841860061+844207498+846936495+848774297+848135152+845492615
1358+842629292+840568044+839265606+838543091+838553728+839281417+840176637
1348+840655295+840618282+840406838+840666866+842060940+844569869+847129036
1338+848421629+848296143+848028065+849014992+851555473+854962353+858577299
1328+862248016+865929011+869471296+872881411+876290375+879681876+882997912
1318+886414782+890219610+894484697+899033960+903578049+907761778+911285592
1308+914054478+916116660+917670501+919198326+921116911+923148261+924545784
1298+925038456+925129804+925461630+926195788+926941373+927115731+926422037
1288+924954871+922944148+920638397+918470277+916972566+916192052+915352029
1278+913690597+911697339+910613243+910708903+911139551+911475834+912279059
1268+913982895+916051545+917629607+918574346+919586140+921435226+924055914
1258+926443957+927752720+928300590+928949150+929859103+930645223+931257560
1248+931706823+931458870+929983008+927443533+924434384+921570558+919275587
1238+917499665+915903707+914383501+912904045+911037711+908366641+905264995
1228+902640857+901013419+900341070+900434502+900962607+901279556+900935440
1218+900323965+900177852+900590461+901319516+902693250+905180259+908289739
1208+910856453+912480872+913994034+916246602+919055088+921795800+924463204
1198+927111707+928868726+929020014+928442750+928446918+929095909+930004210
1188+931637037+934435246+937695367+940419764+942618213+945135911+948440735
1178+951904753+954324707+955273757+955665596+956654678+958350465+959994073
1168+961195245+962307011+963520689+964387017+964807819+965969104+969128462
1158+973482741+976514960+977080869+977125357+979051057+982586873+985921020
1148+988555724+990930830+992323179+991739302+990486239+991254176+994612759
1138+998270828+999852196+999154332+997804100+997678255+999396536+1001872046
1128+1003872995+1005960763+1009495213+1013680524+1015435531+1013336695
1120+1010153045+1009872462+1013637761+1019442531+1024477639+1027270673
1111+1028088057+1027775205+1026665811+1024864375+1023323542+1023714877
1103+1026648705+1030776088+1034374288+1036753635+1037360007+1035493457
1094+1032334817+1030950015+1032939464+1037133543+1041810305+1045926260
1085+1048552267+1049252933+1048734100+1047905360+1047192835+1047781743
1077+1050873758+1054875368+1056417423+1054984395+1053432997+1053518667
1068+1054017664+1053788469+1053909356+1055313635+1057159343+1058996929
1060+1061401000+1063845677+1065437754+1066472115+1066339226+1063163697
1051+1057961274+1054849207+1055738246+1058337517+1060119044+1061357949
1043+1062998467+1064347046+1064275247+1063370613+1063610445+1065624905
1034+1067740415+1068275060+1067252486+1065599750+1064432357+1065201012
1025+1068409961+1072111942+1073741823+1072948444+1071145427+1069401272
1017+1068333203+1068553199+1069107393+1067017972+1061001184+1054159465
1008+1050646719+1051158581+1052704589+1052360185+1050234901+1047944098
1000+1046333191+1046106727+1048015610+1051048763+1053100668+1053582416
991+1052565520+1049049468+1043108862+1037521572+1034901243+1035031185
983+1035928993+1036325574+1036520990+1037064763+1037613423+1037786128
974+1038256233+1039333358+1039522018+1037549314+1034431569+1031892957
965+1029580737+1025437183+1018851180+1011805708+1006229630+1001882324+997636642
955+993388516+989973011+988232665+987957689+987198232+984179597+979787514
945+976512732+975306025+975080855+974857768+974539382+973634819+971021102
935+966720870+962777332+961138899+961477122+962317432+963390819+965180468
925+967019277+967769677+967928439+968845867+970264808+970529867+968821359
915+966087619+963909006+962986691+962798965+962585653+962419057+962753255
905+963347841+963543041+963178729+962343018+960676843+957967897+955217770
895+954149989+955472048+958032509+959879583+959884111+958103661+955468455
885+953669247+953927837+955230060+955255359+953390461+951057471+949302607
875+947974151+946997574+946972707+948327611+950311167+951137462+949758410
865+947213114+945789574+946701827+948707447+949435567+947981482+945676593
855+944276411+944290641+945586252+947800225+949653766+949571618+947278875
845+943866245+940800534+938914507+937708519+936273982+935011935+935578778
835+938947064+943724517+946798924+946523156+944747522+944439629+946235171
825+948463159+949482355+949545026+950709114+953916697+956805894+956800145
815+955040322+954062163+953667738+952367743+951227516+952874430+957329327
805+961296798+961972885+959848032+956999442+954406567+951782501+949252872
795+948057737+949076646+951346750+952811759+952620224+952029304+952679877
785+955127070+959182366+963590188+965888896+964816731+962253252+961083774
776+961506876+961322169+959444478+957282468+956576196+957462360+959023604
766+960505647+961618347+962217317+961852574+960224130+958081884+956495845
756+956018193+956825730+958812952+961634159+964459678+965964936+965420372
746+963641073+962136175+961598799+961671460+961999836+962803277+964211437
736+965781450+966914849+966849662+964834340+961364644+958462583+957931028
726+959334085+960428746+960200485+960312603+962303993+964510922+964029246
716+961444492+960318568+962370473+965764273+967990967+968583755+967863037
706+964718269+957968832+949773000+944271955+942938037+943050442+940918690
696+936043709+931183246+929190347+930324177+932231119+932567689+931331012
686+929770558+928455327+927841193+927963948+926688748+921482373+913688513
676+907905735+907048535+909426804+910387498+907043216+903269077+906228204
666+912862504+915314872+912607004+908135577+904199226+901711498+901789981
656+903851660+904822703+902794588+898048471+890495593+881314344+875431522
646+877039626+883680826+887738494+885020781+878913579+874462779+873179817
636+874048804+876299072+880326267+886506920+893080059+896271399+894223807
626+888925652+882568557+875568723+869257697+866165681+866504263+867979910
616+870270281+875544646+883970249+891963909+895364033+892105638+882173413
606+868630482+857449650+852643737+852358842+852145243
##END=
