##TITLE=<SNM>
##JCAMP-DX=4.24
##DATA TYPE=INFRARED SPECTRUM
##DATE=3/5/2025
##SAMPLING PROCEDURE=Instrument type and / or accessory
##ORIGIN=Admin
##XUNITS=1/CM
##YUNITS=ABSORBANCE
##RESOLUTION=4
##FIRSTX=4497.3318
##LASTX=599.83466
##DELTAX=-1.4281778
##MAXY=1.7089875
##MINY=0.17772388
##XFACTOR=1
##YFACTOR=1.5916186e-09
##NPOINTS=2730
##FIRSTY=0.19966669
##XYDATA=(X++(Y..Y))
4497+125448830+126319119+127293394+127722794+127095916+125717499+124593625
4487+124427192+125011285+125732329+126294112+126684912+126806650+126593958
4477+126338190+126452325+126910805+127244336+127127270+126745130+126501917
4467+126490046+126453598+126322611+126399101+126751515+126944865+126731124
4457+126517533+126791689+127414776+127680121+126985497+125533400+124303535
4447+124050295+124453368+124564386+123963291+123081646+122472771+122245914
4437+122306151+122644082+123109967+123368516+123377700+123491985+123893617
4427+124293686+124255787+123578792+122502506+121573825+121047956+120615756
4417+120060583+119750476+120021448+120553590+120774896+120453021+119704751
4407+118836737+118208408+117918701+117703809+117354962+117073036+117171714
4397+117556541+117774251+117596227+117318702+117365934+117813217+118447941
4387+119045179+119365818+119104910+118144154+116774857+115488509+114601153
4377+114196076+114305718+114900877+115695949+116249446+116406405+116465715
4367+116770120+117238214+117385436+116718421+115113607+113075525+111662356
4357+111758048+113213647+114950226+115999043+116213271+116055076+116043252
4347+116367739+116754344+116715556+116044750+115091212+114503748+114575164
4337+114831877+114557151+113775392+113280840+113634368+114638359+115848732
4327+117072811+118142975+118636797+118248693+117339636+116688490+116594549
4317+116680738+116706924+116933613+117435356+117753364+117587146+117275785
4307+117301456+117709296+118179759+118426408+118451059+118496953+118716919
4297+118853861+118460243+117570350+116917313+117275504+118687849+120405816
4287+121450290+121267782+120057231+118570905+117538153+117189081+117297131
4277+117617030+118117725+118749416+119268816+119541922+119793664+120294124
4267+120994225+121656569+122126695+122323640+122212416+121988339+122009170
4257+122312508+122528542+122418077+122126189+121911110+121987927+122432794
4247+122945912+123108563+123095128+123496460+124339551+125040121+125288492
4237+125246811+125027210+124632637+124227064+123944155+123637784+123258940
4227+123252423+124031561+125134342+125551413+125028109+124416387+124548386
4217+125284785+125861866+125815513+125389080+125138509+125274870+125508178
4207+125541283+125503487+125738873+126312453+126894730+127178172+127237773
4197+127289471+127281017+127035623+126666178+126556040+126955865+127706925
4187+128333795+128446301+128090675+127596928+127175813+126928649+127068241
4177+127696374+128456197+128852951+128880308+128931622+129172495+129412890
4167+129562705+129786997+130122166+130293926+130117691+129821515+129699834
4157+129668264+129529787+129482152+129857270+130479430+130847555+130903204
4147+131046746+131412427+131663429+131521488+131050894+130423182+129794374
4137+129429461+129642340+130471322+131490387+132122359+132221467+132152271
4127+132191415+132208182+132106948+132128163+132458998+132917065+133227893
4117+133343535+133357860+133271465+132969354+132443110+131904508+131536028
4107+131333747+131442836+132293529+133966697+135720700+136583545+136296320
4097+135464492+134912942+134986473+135382235+135556645+135278829+134811361
4087+134580226+134754083+135142121+135395117+135301710+135009757+134982709
4077+135608530+136773262+137856701+138207449+137672283+136699609+135956179
4067+135843027+136265097+136730551+136771090+136411963+136126854+136242459
4057+136589153+136796218+136734849+136654062+136937092+137636997+138383535
4047+138966888+139647778+140481938+140854453+140288363+139250088+138552000
4037+138322315+138079551+137644861+137532757+138322455+139800327+141013789
4027+141324280+141121465+141213140+141805893+142427183+142591856+142210100
4017+141537440+140925260+140525950+140256223+140083788+140142059+140481910
4007+140942655+141372252+141850205+142572935+143461171+144020725+143850613
3997+143215027+142789896+142885925+143221047+143401552+143320025+143136581
3987+143132564+143528776+144223419+144770334+144850878+144683228+144712588
3977+145049433+145466756+145707535+145591040+145118489+144598396+144425157
3967+144761262+145553385+146602399+147506467+147887829+147773956+147469776
3957+147124467+146738648+146517352+146916316+148178986+149809500+150770650
3947+150595912+150028999+150055784+150676727+151075195+150749762+149998759
3937+149439934+149601546+150733800+152450297+153635466+153451236+152493494
3927+152053421+152456214+152848352+152615625+152349063+152867068+153907262
3917+154268889+153122217+150980065+149186114+148677012+149464201+151209562
3907+153952688+157776023+161860538+164655587+165345230+164214942+161738529
3897+158718729+156681509+156813002+158552830+159647878+158844427+158122278
3887+159584177+162075964+163058740+162859342+163276319+163383423+161525518
3878+159344428+159405919+161632379+164413497+166946197+168553006+168244051
3868+167005891+166903468+167614663+166870681+164161484+161527166+160932606
3858+163380540+169393176+177630924+181980353+177536852+169432628+163515338
3848+161406992+162852283+166668512+171062712+174746353+177601545+179631023
3838+180152052+178992254+177187115+175467322+173644451+171770949+170596471
3828+170483861+171249339+173477653+177996090+182958916+184258624+181917232
3818+179753837+178286751+175387144+171549531+169479384+170773006+175097793
3808+180090897+183109180+184877432+187567942+189859245+188839675+186026669
3798+184539847+183961540+182550684+180571069+179374646+179460929+180693228
3788+182941914+185747955+188222234+190252591+192938477+196720084+200138829
3778+201857348+202872368+205160787+209850086+216841753+224539335+230767528
3768+235234098+239219860+243308493+247946880+254424671+263157346+272311828
3758+280121196+287809716+298119371+312352379+328750112+342479579+351086837
3748+358629044+368912822+380366621+388004398+391722192+396793845+406651228
3738+421531955+439290569+455931402+467515038+472936016+474448958+475154649
3728+476655346+478725793+480615473+482591024+485600169+489939843+495251245
3718+501212052+507988612+516618002+527749590+538969445+545955458+548525513
3708+550639513+555107300+561870079+568904401+574018222+577311269+580985098
3698+586275753+592476908+598311961+603404286+608777742+614960209+619268089
3688+618709274+615397165+612837483+611824149+612325892+615609164+623049472
3678+632596739+637012284+631692718+624138378+622584654+626185869+629131127
3668+629057801+628368064+628488800+628759856+628989045+630850713+636105193
3658+643756863+650232781+654088314+658094765+665003745+673878202+679109538
3648+676089570+668526205+662507914+659921831+659598046+660519668+662942099
3638+666539007+669280430+669965598+671079258+676845292+687717882+696627916
3628+695911216+690053956+687297479+689540604+694729473+699978934+702668227
3618+702313959+701362977+701779635+703060469+704674074+707630979+711746782
3608+714040987+712761801+710219234+708968060+708878257+708793772+708470212
3598+708154592+708314274+710543693+716355265+724743109+732976962+738533506
3588+739161002+734704712+729335638+727570963+729409114+731127876+730122369
3578+726821158+721844326+715903779+712100226+714285380+722978583+733814847
3568+739936123+738030190+732261160+728482324+728093602+728960249+729073270
3558+728489963+728298823+728459555+727330615+724299112+721839083+723080295
3548+727688553+731776120+732656922+732110615+733112977+735686328+737602896
3538+737249377+734519789+730165135+725656117+723056702+723791528+727320279
3528+731304936+733786985+735031793+736057073+736358089+734890684+732236893
3518+729935573+728561491+728106036+729071772+730997179+731506636+729340432
3508+726940021+727910776+732507875+737127967+738503547+736995173+734799833
3498+732960409+731338115+729604748+728010540+727583921+728695110+729651933
3488+728475283+725685777+723090706+721214582+720145111+720893643+723712136
3478+726754349+728108582+728012338+728134272+729496969+731532326+732839224
3468+732806718+732197347+731880303+731438779+729971973+728086337+727141797
3458+727247029+727925082+729141203+730332083+730690097+731127202+733467245
3448+737515340+740756108+740738507+736759468+730308940+724974694+724025884
3438+727180894+731162629+733477057+733986664+733277453+732103575+731729009
3428+732799678+734787550+736924768+738563016+738693413+736544735+732854578
3418+729603849+728392072+728618114+727825842+724988849+722162043+721542112
3408+722813957+724859425+727701361+730879963+732394853+731233033+729273848
3398+729335414+731910412+734525481+734800507+733616892+733692314+735133055
3388+735038159+732175627+728828204+727066674+725870026+723191818+719800954
3378+718989583+722199567+727113710+730640214+732437620+733886225+734895403
3368+734201846+731948685+729671182+728018405+726672635+725862686+726059144
3358+727038737+728604408+731260221+734809120+737555336+738205152+737508000
3348+737217545+737919790+738466547+737846840+736905145+737216647+738517028
3338+738672741+736710185+733994453+732136380+731709760+732639546+734131742
3328+734815262+734469682+734711079+736451861+737799729+736022920+731345156
3318+727377202+727178047+729836183+731903821+731853115+731388147+732295838
3308+734481516+737539008+741444422+744674705+744584452+740532462+734622249
3298+729751248+727697167+728418735+730784094+733780694+736516424+737542828
3288+736163054+734191810+734192559+736415087+738796024+739715399+739326078
3278+738153323+736066211+733577196+732513867+733601088+734952775+734858179
3268+734386021+735212297+736649443+736782836+735323521+733808556+733492111
3258+734388268+736005993+738014012+740120523+741561713+741363532+739897776
3248+739249457+740440263+741589949+740239686+736438380+732494168+730232169
3238+729735744+730576102+732364070+733770508+733133724+730771661+729000245
3228+729605197+732424888+735890425+738025247+737767298+736165376+735318353
3218+736194511+738267093+740366264+741114196+739649488+736739171+734309475
3208+733606705+734234502+734806948+734319886+732886335+731156038+729486708
3198+727924932+726729932+726798613+729017995+732600524+734598806+732547646
3188+727673124+723923798+723784113+726045513+727698515+727447306+726571372
3178+726452584+726838609+726355890+723840511+719461666+714640397+711248859
3168+710518677+712244854+714805173+716044587+714703536+711402700+708031159
3158+706223268+706601728+708780740+711294996+712232571+711143252+709792314
3148+710087188+711669187+712195646+710073407+706350894+703454808+702669276
3138+703532327+704828365+705053134+702713765+698098691+694344047+694590836
3128+698289157+701754320+702302050+700508389+698555720+698006342+698874486
3118+699617326+698323685+694668955+690371000+687464352+686675225+687467123
3108+689047849+690883228+692306218+692370930+690683849+688101511+686101356
3098+685327059+684975861+683885868+682109209+680963492+681681915+684348439
3088+687683279+689750918+689592808+687937783+685733531+683079365+680247391
3078+678178929+677332056+677262550+677439160+677586784+677445376+677045046
3068+676663889+675902549+674046349+671712073+670752328+672031064+674219513
3058+675196634+674251794+672573027+671720387+671910328+671728850+669789362
3048+666727526+664697112+664859866+666256716+667081719+666414826+664777178
3038+663463615+663403097+664495936+665782237+666165640+665326631+663913603
3028+662455935+660578912+657891642+654880961+652340116+650825301+650786953
3018+651941133+652735129+651842118+649636218+647226669+645188466+643717691
3008+642813221+642180631+641760228+641815428+641965149+641225979+639765241
2998+639315777+640806025+642794197+643205463+641826812+640125201+639078350
2988+638188784+636604614+634481701+632828099+632271681+632493754+632797316
2978+632751478+632190491+631071288+629642906+628452624+627784570+627268297
2968+626486735+625646153+625078762+624576345+623914845+623414413+623133545
2958+622253342+620207536+617743874+615971859+614954030+613980130+612686863
2948+611293907+610131413+609462273+609560877+610480851+611695886+612297505
2938+611699406+610067038+608147698+606772980+606235137+605959437+605131887
2928+603800647+602824275+602573291+602454615+601912352+600911638+599213622
2918+596408387+592935285+590077172+588763158+588954785+590005157+591101029
2908+591540269+591015308+589682121+587935047+586161047+584636383+583529762
2898+582823810+582213615+581328468+580057035+578520162+576943556+575643849
2888+574781059+574170677+573571042+572842396+571869656+570799212+570139696
2878+570117264+570131832+569422846+568175080+567276190+567036516+566785794
2868+565821256+564293671+562667370+560855471+558752631+557073938+556605226
2858+556976983+557063977+556366900+555246274+553995962+552536758+551036548
2848+550043024+549697482+549334263+548212214+546353017+544404392+542879653
2838+541747530+540730076+539830999+539299671+539029813+538429392+537175597
2828+535760509+534932398+534790466+534703434+534068972+532932242+531746867
2818+530708704+529650505+528488648+527372515+526417676+525606380+524908965
2808+524187996+523116877+521610114+520197010+519506562+519523788+519706914
2798+519564196+518858730+517610702+516117308+514684769+513389368+512338434
2788+511786173+511658322+511388726+510537958+509255402+508006363+507102717
2778+506465483+505643663+504245165+502441018+500752739+499373602+498138532
2768+497068499+496316222+495621392+494507956+493076952+492008942+491643701
2758+491480760+490781286+489447350+487997659+486703082+485270468+483614919
2748+482318882+481846087+481772949+481210951+479735757+477752491+476081364
2738+475169891+474742672+474329533+473786746+473021662+471768728+470057830
2728+468386852+467102985+466065084+465063696+464116234+463212551+462156562
2718+460853147+459515653+458386713+457427642+456454079+455419436+454432465
2708+453604279+452908026+452111896+450996887+449721447+448680063+447931381
2698+447110909+445949052+444568641+443278371+442331359+441841337+441678209
2688+441439359+440722172+439461598+437908660+436387928+435220041+434625088
2678+434409269+433988491+433023354+431781542+430654587+429659490+428633161
2668+427617130+426819465+426349479+426161747+426164218+426186875+425888369
2658+424955624+423495110+422034971+421048974+420569701+420216481+419514985
2648+418330059+417053458+416195537+415786368+415383266+414653609+413688471
2638+412726180+411867734+411157326+410693519+410533237+410585179+410615587
2628+410347115+409683779+408830839+408024111+407242175+406388897+405566965
2618+404920482+404401250+403878311+403317736+402751768+402169323+401493816
2608+400684504+399852536+399184220+398723446+398346821+397977386+397679141
2598+397472273+397173579+396571622+395728719+394932701+394341567+393856714
2588+393356132+392867984+392490497+392264305+392122223+391929061+391599546
2578+391136825+390529364+389748026+388934932+388420195+388418060+388775774
2568+389044770+388787420+387940996+386943503+386350422+386284511+386428990
2558+386509580+386502465+386409029+386162839+385798647+385471454+385262339
2548+385086665+384798195+384351278+383872267+383571813+383564211+383731945
2538+383774674+383496577+383063891+382816764+382820622+382828523+382666182
2528+382372169+382018388+381699659+381618132+381879976+382285774+382534773
2518+382510019+382221025+381702917+381153501+380903866+381025725+381167395
2508+380991347+380605434+380322993+380166606+379904949+379466083+379000142
2498+378600860+378240263+377922283+377685193+377506448+377339762+377183188
2488+377040544+376859178+376543370+376064809+375566399+375251602+375155096
2478+375159739+375209846+375315490+375402971+375360204+375189024+374991181
2468+374858349+374817155+374806744+374703984+374432291+374035743+373611220
2458+373222611+372948409+372935751+373231412+373535423+373352222+372544895
2448+371569497+370996975+370956006+371155085+371277656+371216090+371041465
2438+370875003+370749961+370589417+370348544+370070859+369761755+369385092
2428+369044680+368945552+369102389+369281283+369233386+368852903+368217505
2418+367629741+367472193+367852826+368484929+369012024+369328881+369500285
2408+369542266+369451452+369308134+369170396+368963977+368617723+368210314
2398+367877317+367668576+367563681+367532561+367537692+367541736+367512526
2388+367373066+367000335+366313294+365262099+363687402+361335264+358133780
2378+354385015+350574085+346963919+343442245+339876195+336556109+333944860
2368+331935006+329945374+327954057+326694420+326621918+327535152+329349559
2358+332422069+336956403+342773592+349771888+357749440+365592849+371514933
2348+374174866+373470749+370830252+368311951+366556863+364499336+361273173
2338+357188939+352896414+348580783+344333121+340704269+338290488+336981531
2328+336153682+335480909+335109639+335203936+335715790+336561577+337750473
2318+339257386+340896345+342426102+343743898+344885271+345886359+346777834
2308+347655641+348602578+349567903+350417323+351063769+351509188+351816458
2298+352061262+352281425+352503686+352794740+353170766+353485525+353561959
2288+353435494+353358049+353522750+353807213+353857133+353503726+353022655
2278+352831328+353018536+353331535+353497659+353397932+353059655+352615696
2268+352193195+351834321+351611012+351667186+351964569+352177766+352072310
2258+351810765+351688045+351756801+351861172+351839676+351621348+351320257
2248+351228507+351515068+351997000+352379093+352591616+352731900+352848741
2238+352960602+353136013+353405010+353701831+353974573+354229901+354428830
2228+354479873+354367751+354192077+354111637+354288509+354760929+355334424
2218+355743031+355902976+355904548+355890056+356042923+356484934+357092096
2208+357609193+357949118+358194035+358410416+358650127+358979005+359369487
2198+359736375+360133186+360713609+361481053+362258982+362909960+363440351
2188+363895657+364274604+364576032+364863790+365231241+365707668+366239295
2178+366758826+367245065+367722278+368222635+368747784+369283755+369884475
2168+370699892+371856506+373332412+375000319+376777989+378691562+380809082
2158+383174216+385835122+388859285+392206184+395630827+398846991+401749931
2148+404357734+406658343+408731674+410869492+413273048+415768580+418147270
2138+420644861+423698422+427264697+430745626+433719682+436480764+439583645
2128+443036150+446346012+449306211+452185334+455018880+457262567+458345332
2118+458149623+456855720+454717528+452082611+449327969+446640923+443944477
2108+441087150+438074560+435045454+432045071+428971289+425794184+422669246
2098+419726910+416855464+413818869+410558665+407255694+404074207+400978180
2088+397892189+394926447+392273929+389947742+387796256+385758651+383950348
2078+382510581+381482679+380796911+380263861+379673064+379002501+378427171
2068+378044591+377715676+377250109+376638940+376021068+375502398+375106637
2058+374845579+374711736+374616054+374460977+374260999+374081094+373911824
2048+373736974+373655335+373794196+374132436+374531194+374947890+375511199
2038+376359420+377537681+379060435+380872633+382739994+384411009+385864370
2028+387158685+388137754+388538534+388301219+387607999+386684580+385612637
2018+384283008+382573458+380594237+378661003+377018187+375688370+374570029
2008+373577478+372662860+371793966+370989448+370323453+369793324+369229566
1998+368492980+367747069+367312173+367190501+366982210+366414893+365681154
1988+365045606+364460763+363785819+363085371+362527792+362174834+361962798
1978+361793228+361617143+361430571+361192133+360886436+360695671+360833446
1968+361114688+361015411+360333988+359468053+358893097+358708361+358763598
1958+358899838+358961105+358803294+358401765+357888900+357501227+357470182
1948+357898712+358766107+359927253+360885126+360873479+359690800+358100150
1938+356977951+356578370+356704423+357050003+357330909+357402661+357289940
1928+357161826+357376222+358171865+359158573+359700836+359852730+360037616
1918+360015184+359266914+358159282+357594513+357847406+358412026+358661886
1908+358391092+357849691+357407342+357212120+357157744+357119209+357154336
1898+357410451+357794940+357977917+357974995+358284287+358996569+359350762
1888+358782398+357796064+357157445+357005401+357065545+357076854+356903166
1878+356611325+356426476+356548710+357257434+359013983+361841762+364464733
1868+364920451+362873971+360085925+358182800+357423183+357298253+357329636
1858+357277544+357140593+357104042+357298553+357710305+358369484+359482508
1848+361409900+364256965+366943525+367351532+365025945+362170715+360702262
1838+360654926+361101918+361592052+362750352+365316213+368537657+370359592
1828+370113364+369171183+368275551+366934986+365286178+364305350+364354932
1818+364885361+365343363+365841361+366892669+368550202+370017345+370493135
1808+370211368+370132613+371036821+373145840+375968864+378339016+379278239
1798+379156529+379524691+381674305+385240132+387809250+387258075+384870959
1788+383482347+384160962+386131232+388380087+390572693+392528396+393963631
1778+395272177+397682062+402141573+407994302+412524067+413362514+411463135
1768+409119946+407647935+407953407+410454968+413935747+416356867+417586583
1758+418933926+420595466+422315465+425082240+429887705+435564723+439321277
1748+440040037+439232672+438770588+439627311+441840626+444451426+446227448
1738+447735897+451302996+457612678+463011936+463502744+461087241+459065852
1728+458188046+458543213+460337473+463356954+467643937+474139517+483260801
1718+492619175+497475646+496512343+493376620+491328343+491571462+494449760
1708+499762586+506178249+511883166+517138956+524066137+532623849+538946564
1698+541002256+540897511+539615629+537829458+537906304+541199425+546944937
1688+554393970+564364262+576395901+584733750+585120899+582622072+582762169
1678+586953319+594100063+601569656+607543383+613306159+620183307+625973158
1668+627987844+628544449+631655419+637749132+643885463+647814919+650979666
1658+656142695+664976258+677930866+692044524+699220366+699389111+701052974
1648+706490055+711585900+712046299+709741983+708792499+711057419+717011672
1638+725991811+734473801+736392243+731224345+725658289+723733407+724712400
1628+726048359+726305110+725880063+724756066+722182116+719318236+718500647
1618+719408788+718208470+712738208+706298016+701850489+698937176+696036221
1608+692713289+689585767+687114653+685162807+683388769+681714346+680482871
1598+680068385+680258925+680307085+679692770+678511477+677051862+675372645
1588+673432034+671473298+670027688+669378321+669381542+670185349+672562317
1578+676710326+680597840+681378054+680375767+681349368+684892724+688142630
1568+689027402+689399421+691628165+696469207+705055381+719567572+738594173
1558+750973414+751600686+750425085+753418689+760168211+768404086+776324341
1548+783815204+792379134+803178998+815454355+826906881+833553118+831227830
1538+824091235+820499345+822212190+825659977+826817453+826226881+827350878
1528+831400845+837088835+843556740+851312443+859226856+863773548+864207658
1518+863368274+862300676+860636439+859762453+861774517+867261780+875393921
1508+884021214+888385754+885697061+881243467+879895225+881753673+884848015
1498+886679275+885522473+882684582+882002859+885744396+892202339+896481945
1488+895405359+891376213+888474733+888363884+890242629+892442687+894502012
1478+897442214+901741892+906257277+908968740+908084118+904245438+901172666
1468+901929212+906082614+909711804+909353791+907263084+908390076+914381629
1458+921727265+923691169+919261094+914193709+911517524+910855798+911064015
1448+910853252+909266909+906645998+904307079+903377143+904613262+908478831
1438+913991484+917493647+916073129+912472775+910856997+911799815+913226025
1428+913571905+913264748+913374473+914464691+916702123+919868143+922660571
1418+922956269+920443735+917083580+914428740+912548272+910726075+908733484
1408+907383595+907352288+907921738+907878597+907267054+907031424+907657198
1398+908905151+909876280+909168718+906305062+902993515+901178957+900476862
1388+898670169+894703713+890668500+889286629+890755307+893370676+895948595
1378+898759223+902458742+906882976+911097495+914490231+917242513+919397932
1368+920618173+921426399+923185382+926097872+928369008+928215766+926174717
1358+924353269+924105281+925161495+926644254+928174947+929642951+930933671
1348+932458896+934827401+937740489+940239990+941772631+942269655+941915986
1338+941453340+941770085+942798811+943627709+943833379+944232736+945952997
1328+948876346+951537103+952865272+953385889+954056752+954708141+954427048
1318+953013271+951371054+950374010+949956827+949742319+950002365+951222081
1308+952939421+953906506+953417796+951909422+950356409+949477554+949351126
1298+949593196+949908817+950196201+950049925+948789315+946350706+943643063
1288+941612124+940273245+938912645+936882007+933965922+930397400+926851497
1278+924113295+922455425+921344161+919840805+917506904+914826749+912429858
1268+910354580+908404981+906664723+905152829+903440882+901111025+898196139
1258+895134602+892697416+891521965+891285286+890866531+889559783+887626137
1248+885738704+884483636+884186065+884670207+885346312+885839592+886402002
1238+887447805+888750284+889529749+889459644+889098335+889137882+889761558
1228+890919109+892673598+894995741+897575607+900041704+902184915+903858888
1218+904969628+905758305+906796319+908488867+910740605+913026272+914547079
1208+914811619+914415558+914683843+916463048+919685092+923891747+928560373
1198+932876978+935839949+937135612+937787076+939195461+941429523+943322574
1188+944365680+945479041+947517169+949984015+951701879+952460597+953513291
1178+955953173+958980856+960820204+961190501+961476836+962552449+963978809
1168+965075243+965541110+965566275+966297731+969359118+974596895+979292560
1158+981347465+981853777+982845054+984621039+986555358+988331793+989419763
1148+989370780+988857877+988900420+989728868+991234471+993257619+995011434
1138+995581859+995181903+994998103+995973202+997993954+999963026+1001126269
1128+1002276255+1004666031+1008171938+1011572913+1014237265+1016654903
1120+1019393628+1021875304+1022357348+1019861068+1016277416+1015002575
1111+1017177093+1020701799+1022752286+1022258333+1020338319+1018994796
1103+1019139349+1020340865+1022915040+1028074399+1034467930+1037843964
1094+1036682743+1034723482+1036343304+1042150083+1049240616+1053732108
1085+1053476631+1050038206+1047506050+1048316148+1051093446+1053117644
1077+1053950062+1055349384+1058105486+1060579597+1060668351+1058253410
1068+1055599169+1055603663+1059432981+1065622639+1070995832+1072659395
1060+1069914827+1064672706+1060390778+1059684489+1062269748+1065647131
1051+1068029641+1069902469+1072129266+1073741823+1072748524+1068659759
1043+1063284319+1058760470+1056374740+1056809374+1059588170+1062375130
1034+1063090557+1062763477+1063975104+1066691136+1068140340+1066915681
1025+1064569121+1062797705+1061798639+1061710933+1063188224+1066185723
1017+1069478695+1071344932+1070330437+1066285637+1061180280+1057632804
1008+1056232733+1055339422+1053666722+1051876357+1051322110+1052300954
1000+1053845354+1054701964+1054188612+1052334808+1049907884+1048520695
991+1049580354+1052286649+1053688667+1051800335+1047653449+1043589251
983+1040886476+1039188011+1037084646+1033541964+1029312690+1026098735
974+1024209430+1022313982+1019616301+1016706582+1013873859+1010307060
965+1005606077+1000585355+995834565+990715426+984547189+977984688+972706241
955+969976204+969172472+968053044+965124901+961374001+959173793+959624605
945+961399616+962311052+961721229+960821702+960685388+961230646+961779050
935+961479533+959977975+958087770+956764694+955807196+954821162+954653016
925+956007774+957596288+957404774+955572990+954588978+956113230+958657895
915+959428072+957811171+955450307+953611557+952413037+951949717+952303161
905+952666417+951945822+950120704+948034117+946252964+944958424+944294377
895+944021298+943465779+942485961+941671594+941158317+940396153+939165127
885+937766779+936419511+935065951+933505598+931608128+929815142+929247414
875+930513567+932547576+933630154+933576377+933792084+935023709+936407227
865+937189988+937607695+937337537+935315063+931988686+929563109+929492555
855+931274008+933519679+934932258+934739246+933555555+933099950+933897915
845+934318842+933041230+931043621+929915655+930105672+931434964+933091112
835+933121745+930551540+927689607+927848091+931485595+936239905+939750681
825+941079599+940022861+936626454+932033100+928699384+928675416+932045608
815+937052400+941336874+943509594+944159336+945090544+947269631+950038766
805+952042141+952094870+950005735+947039619+944490760+942267259+940249952
795+939820860+942055222+945413655+947169567+946915363+946952437+948942631
785+951363040+950988699+946642359+940575983+936211668+935240464+936628252
776+938072513+938702481+939986011+943367213+947582705+949433813+947817736
766+945097660+943175324+941327661+939319043+939145803+941624108+944208768
756+944541092+943553934+942748554+941602163+939638408+938567140+939829324
746+941704848+941406379+938970317+936772281+936386256+937980463+941453715
736+945881469+948678316+947793619+944444098+941768961+941212243+941759224
726+942620179+944495703+947490131+949849423+949982367+948591284+947535445
716+947441747+947263564+945769871+942985232+939920025+937320386+935342850
706+933973936+933115229+932381227+930807692+927814837+924861228+924444270
696+926915010+929719497+929839858+926215087+920332512+914846222+911360612
686+909589346+908848678+908759924+908351654+906948587+905568588+905676966
676+907054268+907789019+906130998+901161506+893020976+885549286+884108321
666+886324707+886780088+885228348+883980320+883458205+882449102+881007088
656+879806920+877725950+873261196+867780749+864908255+866537664+869967475
646+869665336+863088680+854065849+848660674+848902670+851534741+852481004
636+851730150+852076330+854208305+855640433+854151982+850240950+845883526
626+842461954+839851154+837133699+834573606+833653407+834461558+835326107
616+835201402+833759088+829890374+823557586+818595958+819522373+826816255
606+836261211+841480339+839044726+831597678+823789995
##END=
