##TITLE=<SNM>
##JCAMP-DX=4.24
##DATA TYPE=INFRARED SPECTRUM
##DATE=2/5/2025
##SAMPLING PROCEDURE=Instrument type and / or accessory
##ORIGIN=Admin
##XUNITS=1/CM
##YUNITS=ABSORBANCE
##RESOLUTION=4
##FIRSTX=4497.3318
##LASTX=599.83466
##DELTAX=-1.4281778
##MAXY=1.8215417
##MINY=0.30212212
##XFACTOR=1
##YFACTOR=1.6964429e-09
##NPOINTS=2730
##FIRSTY=0.32020348
##XYDATA=(X++(Y..Y))
4497+188749935+188730189+188658637+188612979+188759720+189147067+189503389
4487+189296655+188353717+187431035+187508332+188453079+189143887+188994809
4477+188518711+188315385+188390310+188532800+188653841+188716065+188757946
4467+188881657+189012148+188942739+188728538+188671145+188813161+188848700
4457+188664241+188534188+188561471+188369932+187748269+187208226+187405492
4447+188286293+189202141+189601820+189323550+188518448+187585752+187003037
4437+186985013+187297469+187534473+187576599+187587843+187620501+187510089
4427+187211915+186979005+187125992+187748146+188565722+188885293+187994110
4417+186049541+184374688+184275888+185641658+187205310+188058442+188302437
4407+188283535+187934187+187063979+185852117+184798610+184277065+184205741
4397+184157447+183833643+183441359+183504497+184179108+184883900+184979134
4387+184703253+184756799+185050634+184725845+183427780+181766875+180475590
4377+179766406+179486345+179397400+179346753+179475312+180081164+181031743
4367+181701471+181759285+181533420+181396885+181375083+181530187+181956288
4357+182220697+181752715+180956098+180911669+181857470+182870520+183040380
4347+182196401+180681131+179142091+178251347+178091535+178169851+178253508
4337+178577822+179094677+179289922+178942717+178409701+178099528+178222817
4327+178881319+179800839+180265184+179947739+179458641+179505687+179953624
4317+180218858+180120744+179832232+179434134+178977273+178664395+178659546
4307+178912607+179338549+179974740+180791736+181515132+181865780+181949331
4297+182150216+182547734+182668142+182028209+180816383+179794075+179562043
4287+180041637+180653989+180963265+181054300+181199197+181288475+180950599
4277+180273529+179853120+179962126+180232298+180337668+180440930+180747132
4267+181102242+181287246+181344024+181367881+181285752+181119845+181161251
4257+181508421+181769141+181616356+181266551+181087608+181139872+181315178
4247+181514675+181574826+181395550+181116595+180915007+180809690+180813730
4237+181009819+181316970+181422885+181157738+180789118+180725928+181019552
4227+181412450+181741876+181976192+182087096+182224105+182643073+183158241
4217+183200122+182724270+182453554+182981793+184093291+184998405+184924991
4207+183683124+181954145+180766509+180521406+180791560+181056865+181283205
4197+181714418+182349537+182837212+182952104+183045703+183673181+184672001
4187+185101948+184441391+183311992+182503903+181967390+181449218+181361943
4177+182146316+183392487+184417201+185197358+186021978+186656061+186483442
4167+185353498+183896042+182938840+182802217+183260361+184005365+184817600
4157+185329729+185115247+184212451+183228406+182751184+182851213+183198963
4147+183456257+183483416+183359829+183285799+183338853+183372442+183271798
4137+183151302+183163529+183285395+183398249+183460736+183553352+183778744
4127+184112088+184406292+184502825+184246673+183647585+183171346+183427305
4117+184366747+185235690+185430742+185010053+184436789+184136085+184076619
4107+183716291+182781294+181960680+182210508+183543497+185027146+185780020
4097+185616660+184880896+183967665+183125232+182591214+182564845+182931005
4087+183346864+183664485+183950273+184207286+184361898+184290223+183801740
4077+183003225+182527092+182860436+183662447+184201366+184191774+183832184
4067+183366750+182971568+182735584+182561806+182374079+182427326+183075603
4057+184169147+184935338+184669471+183484312+182218729+181622961+181788465
4047+182384602+183150511+183898291+184322916+184252734+183929860+183683054
4037+183502336+183227475+182932709+182794365+182754574+182609501+182378155
4027+182398129+182943144+183847117+184693275+185236463+185437032+185356344
4017+185230420+185298617+185427369+185248093+184688303+184042362+183630931
4007+183638608+184088302+184849081+185802963+186853151+187628160+187604040
3997+186804981+185921878+185497763+185450137+185505299+185574006+185673157
3987+185949969+186646679+187667793+188467502+188654192+188411866+188173105
3977+188215882+188631653+189295706+189751742+189462510+188419507+187319130
3967+186924071+187413520+188477392+189694138+190600570+190836730+190551187
3957+190327974+190539452+191091565+191916185+193251212+194974008+196040744
3947+195575731+194352679+193893903+194361569+194479412+193426168+191756110
3937+190694451+191383520+194111214+197565922+199469558+198851374+197147112
3927+196376495+197058695+198126871+198581642+198848036+199896906+201463790
3917+201874905+199935520+196578047+193842922+192856189+193450692+195380978
3907+199228813+205437865+212532410+217397704+218285374+215868098+211205534
3897+205605706+201551838+201193636+204061677+206842337+206995509+206470257
3887+208216048+211404170+213147660+213513293+213967976+212868424+208815769
3878+205244622+205929598+210415539+216086199+221227936+223988815+222530639
3868+219094429+217705996+218377656+217730661+214365196+210763288+209824866
3858+212998441+220727525+231124116+236534566+230795480+220320766+212474208
3848+209374135+210756929+215158089+220490504+225503031+230082484+233272327
3838+232987505+229510485+225845510+223476581+221473179+219230138+217715834
3828+217559483+218358191+220748272+226204995+232903005+235351217+232922716
3818+230398911+228657546+224926184+219625548+216183594+216624960+220622383
3808+225690793+229074968+231672575+236097292+240988376+242288988+240424001
3798+238447829+236153069+232610066+229627520+229352588+231611264+235192459
3788+239722108+245112671+250496858+255474549+261336660+269091234+277283714
3778+283896135+289700783+297241666+308070295+321849463+336264962+348247990
3768+356603005+361664879+363813459+364855320+367335294+371118147+373517591
3758+373833490+375258604+381390096+393362864+408266284+419065189+422801242
3748+426010831+434942483+448185770+457806280+461609055+466376990+476962660
3738+492995743+510153183+522996703+529225274+531219013+533506096+539231251
3728+548735885+559807509+569185130+575279871+578700411+580155249+579893668
3718+578560784+577490675+578429273+581998224+585506039+584369631+578005193
3708+570588109+566285152+566392630+568761261+569476224+566870115+563146465
3698+561100866+562120662+566649537+574088651+582438572+588468488+589152990
3688+585422172+581667462+580532951+581754773+583664575+585334299+588112675
3678+593491258+598924756+599472301+596239734+593491539+590554387+584963238
3668+578512473+574079797+571233646+568376426+565549072+564338493+565881977
3658+569139560+571425518+572334919+575341849+583399059+594612840+601111212
3648+596498328+584898308+573812384+566317687+562218513+560861667+562266788
3638+566034920+570153347+572919005+575948597+582489553+591931190+597229559
3628+593145880+585683999+581929746+582945922+587272069+592688070+595954437
3618+595865194+595617913+597394624+599050961+598578465+598010050+599801517
3608+602470939+603073857+601886081+601685389+604242942+608856950+613700601
3598+617964382+621405863+622881465+621901619+620579205+621356814+623543410
3588+623977609+621742316+619359385+618122209+616615547+613948724+611686377
3578+611918409+614434361+616829730+617597361+618465198+622225704+628329440
3568+632035066+630107274+625947703+624310058+625040445+624896673+622265477
3558+618280176+614715512+612507132+611812863+612310938+613504547+614981274
3548+615988948+615246192+612360338+609005782+607237504+607150017+607142358
3538+606050079+604249196+602645279+601621443+601254141+601749897+603174133
3528+604858367+605671604+605034464+603342078+601310147+599250458+597141230
3518+595359741+594769401+595789583+597982644+600712569+603261830+603972050
3508+601131942+595785297+591401705+590048723+590493322+590489598+589529357
3498+588490729+587864235+587127207+585548201+583185684+580922423+579436947
3488+578493641+577386710+575740246+574006435+573266245+574042870+575343255
3478+575700684+574980415+574331119+574547269+575139331+574997315+573597568
3468+571559172+570106512+569793986+569799924+568882477+567102007+565782193
3458+565519734+565263353+563867929+561789900+560358497+560058690+560445140
3448+561168466+562016346+562141602+560521173+557540699+555049588+554211897
3438+554208173+553656377+552382344+551064076+549917759+548655672+547541855
3428+547447763+548293991+548342302+546252573+543334219+542093846+542858806
3418+543607219+543096214+542265270+542078351+541757743+540161522+537913685
3408+536755633+537154346+537913369+538129731+538218412+538613717+538794627
3398+538052188+536286334+533936465+531668813+530030113+529081395+528394997
3388+527574487+526738062+526382916+526741716+527378574+527492693+526500724
3378+524479614+522537664+522270707+524173869+527003999+529091128+529698543
3368+528953820+527528917+526613367+527016156+527974114+527945233+526564670
3358+524788381+523457289+522687409+522266456+521906322+521468785+521316052
3348+521884432+522698899+522599256+521269744+519787115+519330183+519968763
3338+520805961+520866288+520017917+519167508+519111081+519250391+518331925
3328+516455115+515172052+515452711+516574715+517125000+516433893+514908715
3318+513269699+511721929+510215196+509311803+509861281+511661215+513321699
3308+513837517+513578361+513340883+513330131+513449872+513816893+514428348
3298+514669761+513818685+512103601+510692682+510316385+510414763+510109159
3288+509532241+509476552+510203461+511317946+512454319+513441158+513961368
3278+513746587+513098170+512736665+513091424+513840117+514171862+513534055
3268+512132798+510653295+509501076+508677650+508405318+509011539+510027118
3258+510455063+510092715+509561754+509120423+508618061+508262846+508153294
3248+507619804+506145079+504378171+503329460+503040825+502745831+502012000
3238+501086999+500300079+499764866+499550191+499462458+498839478+497281835
3228+495336160+493851106+493081964+492820173+492835597+492842308+492456525
3218+491578324+490575217+489699089+488612291+487094913+485841609+485587442
3208+485808477+485419040+484365726+483459065+483157922+483330892+483644894
3198+483704554+483279700+482544745+481757684+480861740+479657028+478272425
3188+477223327+476789515+476466483+475581922+474445478+473952955+474001195
3178+473366234+471364132+468744707+466674373+465521802+464856168+464205923
3168+463422306+462422853+461108661+459645637+458415487+457598843+457119003
3158+456882263+456771834+456552239+455990640+455049758+453956601+453049343
3148+452377104+451558562+450295631+448843885+447674028+446840413+445989196
3138+444966590+444088915+443633424+443377817+442969196+442436548+441939352
3128+441333869+440379425+439212097+438355890+438138720+438110261+437498138
3118+436403294+435743773+435811760+435814149+434979129+433322264+431337800
3108+429599879+428615780+428590799+429225831+429809776+429685433+428799150
3098+427654696+426710019+426057596+425616334+425306689+425057652+424836195
3088+424681847+424659642+424699871+424558488+424177342+423858492+423677757
3078+423163590+422051741+420774229+419789428+419114343+418727822+418702771
3068+418813763+418545506+417604484+416143427+414512316+413061624+412114980
3058+411783164+411717005+411390951+410732977+410127600+409826668+409718346
3048+409547309+409099793+408384232+407691158+407168102+406512060+405470621
3038+404385123+403837613+403963854+404338850+404324269+403452673+401718722
3028+399634440+397920235+397037290+396922785+397117328+397174703+396926334
3018+396328124+395332923+394171674+393392378+393188594+393023740+392318439
3008+391147317+389960278+389033274+388402213+387942576+387404237+386675500
2998+386005088+385703980+385669583+385426238+384663279+383587971+382688513
2988+382240576+382066903+381735228+381047635+380306636+379917901+379801007
2978+379488726+378713576+377582438+376333632+375250101+374658181+374680667
2968+375000045+375059107+374561595+373687153+372792122+372071502+371538257
2958+371102055+370629031+370072878+369478639+368790764+367945274+367172408
2948+366766000+366580206+366213712+365591997+364942701+364374777+363874243
2938+363505114+363270341+362944885+362318076+361469247+360627060+359897304
2928+359257038+358687885+358184294+357688081+357112252+356451889+355841382
2918+355461044+355370255+355435571+355402931+355055234+354346595+353401602
2908+352429555+351688100+351363733+351297257+351034060+350365440+349550131
2898+348837099+348155655+347414445+346668984+345887932+344979093+344107391
2888+343609879+343573619+343774416+343963162+344003111+343873111+343689776
2878+343551871+343351004+342961426+342476492+341978663+341355648+340632111
2868+340100904+339856645+339602759+339130684+338615007+338248231+337884935
2858+337265363+336441129+335771666+335482926+335393542+335182626+334785108
2848+334364049+333980409+333471583+332696995+331802386+331135241+330915507
2838+331055906+331268579+331272901+330962763+330461913+329949046+329396477
2828+328631586+327680691+326850730+326400193+326260039+326102704+325626483
2818+324833028+324064308+323675960+323659727+323669776+323382266+322769756
2808+322071587+321522531+321099435+320631330+320130796+319752426+319451108
2798+319014906+318427272+317874878+317396163+316819385+316102560+315503226
2788+315260056+315219369+314979221+314372614+313577542+312763322+311947591
2778+311253182+310913004+310850709+310614075+309941519+309057380+308227349
2768+307428834+306656425+306125815+305934329+305819472+305417281+304611915
2758+303601079+302708016+302124176+301810244+301604037+301343651+300934854
2748+300415382+299903921+299434516+298937284+298377372+297813138+297325674
2738+296938310+296594408+296221414+295803587+295360956+294900897+294423815
2728+293926110+293400664+292892278+292513785+292338039+292269034+292078215
2718+291641082+291094328+290622148+290166340+289547665+288777978+288036154
2708+287431743+286957103+286568843+286225239+285930509+285726813+285555986
2698+285237522+284706508+284147316+283748919+283437060+283013331+282471882
2688+281998789+281730638+281655853+281669028+281618574+281388299+281001866
2678+280594879+280265224+279980191+279641629+279236891+278844169+278443611
2668+277904815+277287948+276899952+276867803+276902833+276670871+276188010
2658+275677392+275214663+274711054+274151756+273662132+273319617+273040434
2648+272727152+272426747+272234998+272100343+271852886+271449254+271077947
2638+270941184+270983328+270925619+270573688+270033293+269586990+269399334
2628+269407713+269473574+269516158+269467408+269235446+268818235+268374742
2618+268082419+267959235+267889562+267785843+267642545+267464164+267246748
2608+267022973+266833788+266662909+266457861+266201322+265922543+265674190
2598+265521581+265499411+265541959+265512464+265348892+265129245+264963039
2588+264894894+264917943+264958015+264870019+264607964+264344451+264253152
2578+264267206+264216963+264089511+263995296+263969788+263942787+263873237
2568+263818321+263833007+263843495+263703236+263404746+263173908+263278101
2558+263725142+264204156+264390987+264264852+264020804+263754287+263401496
2548+262935394+262435299+261981160+261620112+261412868+261373464+261381861
2538+261287945+261085216+260872824+260700452+260542730+260340669+260002950
2528+259498340+258995452+258757166+258842632+259021997+259022471+258796939
2518+258531195+258424929+258505476+258650900+258727705+258668468+258478071
2508+258227768+258020401+257913731+257892369+257933705+258036651+258126544
2498+258059190+257848468+257725073+257797873+257847466+257624956+257161366
2488+256660972+256282006+256075376+255969918+255820875+255564635+255273576
2478+255051979+254969131+255041948+255186775+255262034+255217114+255103470
2468+254953548+254784812+254675419+254662929+254609523+254329374+253829384
2458+253320154+253016517+252965167+253016025+252959264+252735910+252461154
2448+252214523+251939908+251621408+251405170+251432926+251638379+251784277
2438+251675868+251334091+250981089+250825265+250848261+250861770+250771034
2428+250684690+250735934+250899224+251040801+251076551+251027573+250954914
2418+250888754+250837791+250853233+251020388+251319826+251540176+251459506
2408+251135929+250889597+250937978+251182642+251432417+251688639+252067395
2398+252543476+252954257+253285265+253874884+255311873+258195356+263048652
2388+270403160+280812137+294724027+312386885+333862180+358998163+387256845
2378+417591343+448710232+479570596+509351119+536867187+560628159+579941417
2368+595472946+608223535+618329014+624960127+626959031+623650080+615076701
2358+601468957+583153360+560455505+533734333+506008685+483768816+472623549
2348+474587740+488353873+508682956+527147948+538224631+542815942+544207009
2338+544467114+544163653+543371357+542361505+541339285+540245952+538999254
2328+537158387+533435334+526579743+516968930+506500576+496608261+487095896
2318+477139600+466572903+455792760+445111170+434572932+424008624+413140432
2308+401860598+390389032+379098938+368309870+358212296+348825118+340046972
2298+331816967+324162335+317080650+310472234+304218227+298275480+292666359
2288+287421834+282611948+278422073+275068817+272564653+270631398+268901540
2278+267180940+265518173+264062580+262864280+261819346+260813358+259839133
2268+258919104+258017327+257124369+256347146+255801498+255449462+255130489
2258+254743792+254323190+253927868+253542717+253114842+252630084+252137472
2248+251719997+251412442+251144169+250827039+250478341+250171876+249913387
2238+249664964+249441207+249279111+249147390+248980375+248795038+248690651
2228+248715211+248799869+248844806+248816382+248758866+248757127+248861338
2218+249018409+249128628+249163657+249163288+249153925+249159599+249248983
2208+249484335+249827903+250141624+250314788+250393350+250521031+250747300
2198+250984743+251173577+251387040+251734473+252221445+252734083+253138383
2188+253377898+253491508+253574075+253712718+253909685+254066880+254083762
2178+253959630+253780511+253638917+253584528+253612443+253654939+253604748
2168+253424066+253241328+253231210+253359365+253376353+253124996+252728708
2158+252403164+252193056+251991978+251762318+251631879+251776372+252273322
2148+253041217+253892539+254752365+255863090+257624727+260200357+263415075
2138+267009850+270839872+274864471+279111441+283689207+288741420+294305076
2128+300256255+306502041+313145346+320302852+327854609+335504990+342957034
2118+349961492+356353300+362040227+366845511+370416499+372349455+372424679
2108+370797117+367907890+364122051+359545778+354191439+348175682+341775687
2098+335302120+328840570+322251900+315537623+308988515+302900064+297367660
2088+292377847+287913603+283936611+280345701+277034343+274039799+271537971
2078+269604417+268091132+266775376+265516364+264291608+263186557+262328102
2068+261789288+261513934+261273944+260813200+260135462+259491103+259065863
2058+258875079+258860235+258892700+258827840+258663689+258524958+258524589
2048+258707450+259006889+259271403+259424820+259499517+259538342+259636843
2038+259946927+260488658+261129433+261762673+262338256+262837279+263344331
2028+263975058+264702319+265393162+265972610+266512408+267195521+268059792
2018+268756169+268848697+268382683+267835928+267543657+267450813+267337889
2008+267066470+266620905+266050557+265454087+264996048+264802559+264761996
1998+264609562+264383293+264544826+265322559+266179204+266376927+265873740
1988+265161921+264564203+264161467+264023949+264124101+264259090+264257386
1978+264142020+264067270+264145674+264339778+264617889+265173498+266171141
1968+267244675+267674219+267239247+266498459+266080967+266109514+266403630
1958+266850600+267369844+267792220+268026501+268208782+268538893+269074615
1948+269832198+271008959+272756648+274521834+275113526+274080274+272453819
1938+271472707+271370868+271688103+272028878+272296396+272583994+272978087
1928+273504375+274358614+275758167+277365105+278627772+279778621+281251571
1918+282265042+281657416+280015730+279130027+279805201+281345698+282576954
1908+282924703+282715404+282608874+282859984+283271943+283716209+284387324
1898+285483889+286752792+287615763+288046378+288824637+290241582+291217547
1888+290712761+289309466+288202255+287690020+287434026+287238201+287110573
1878+287090757+287209021+287513519+288388523+290648236+294510687+298248426
1868+299020274+296278543+292499520+289954792+288972978+288798971+288764293
1858+288645027+288536020+288616690+288945397+289540866+290555057+292261006
1848+295050608+299037244+302811418+303491176+300377893+296473543+294446811
1838+294345429+294822897+295213459+296408121+299488835+303605120+306193028
1828+306324328+305580308+304766685+303168180+300928670+299356270+299042690
1818+299410413+299843383+300541447+302101479+304382729+306174899+306474566
1808+305742948+305281133+306064188+308408822+311768402+314617014+315557685
1798+315046997+315225448+317868730+322481051+325703183+324420929+320297793
1788+317343671+317145825+318660463+320528209+322425292+324175159+325260271
1778+326052883+328191871+333017146+339740840+344821898+345081336+341672952
1768+337564714+334549316+333919204+336204846+339711783+341757452+342237081
1758+342801210+343598530+344431583+346889527+352401658+359256194+363391979
1748+363265458+361253729+360012020+360562130+362663524+365113527+366534565
1738+367692196+371390408+378254958+383387068+381790636+376436683+371622897
1728+368281481+366589446+366713473+368185422+371136909+377161871+387171537
1718+398013905+402670075+398786490+391663697+386207150+384182667+385907975
1708+390825620+396893377+401572982+405285705+411079655+419388713+425580848
1698+426469273+423729651+418321063+411920261+408298187+409000431+412723203
1688+418620801+427914555+439791018+446418300+442394597+434648929+430248929
1678+430927774+435434585+440724275+444614114+448329684+452977667+455717676
1668+453820171+450716233+451209249+455435401+459448494+460373354+460365062
1658+463473708+472233233+487169680+503484054+509196349+505446067+504997251
1648+510351415+514871402+512552627+507205491+504934781+507518228+514882153
1638+526530132+539297199+545906598+543931691+540815737+542599299+549767275
1628+559867520+570465909+580971331+591108327+599618323+606808926+615550251
1618+627438836+639118367+645430523+647826665+651064573+656302369+661627722
1608+665307839+667627035+669852140+672427400+674798455+676657101+678595784
1598+681357892+685044967+689166803+693201785+697059897+700879290+704572900
1588+708014732+711356850+714677888+717680601+720262889+723336294+728615831
1578+736889719+745569698+749968398+751040791+754413828+762206788+771468534
1568+778466667+784063122+791393634+801855945+816262098+836724624+862168109
1558+879200257+879467776+873806602+869612247+867356365+865670865+863306556
1548+861018841+861578261+866648182+874976038+883072775+884648021+874130126
1538+858993515+850373335+848999484+849279299+846262110+841429983+839356452
1528+841115454+844284849+846909509+849350483+851182707+850398843+847569064
1518+844941593+842200987+838528810+835672750+836202587+841262530+850365676
1508+859729665+860007091+847958150+835408675+830188025+831530747+835859599
1498+838862031+837512563+833148436+830239111+831529622+835993323+839307403
1488+837434353+831292601+825057180+821629964+821252262+822598498+824637737
1478+827478689+831707968+837295991+842180960+842248631+836575651+830160901
1468+827386143+828260444+829863588+829778209+829401632+832116167+839197852
1458+847241957+848600138+841473059+832757523+826962274+824677721+824912845
1448+825462498+824452575+822310671+820514215+819691984+820272204+823003956
1438+827177090+829340075+827113284+823261637+821062533+820335448+819287017
1428+817748593+817384945+818893855+821088954+823136416+825629881+827892861
1418+826719561+821203565+814751922+810280914+807883296+806230051+805003275
1408+805490949+808146388+810684616+810655875+809245062+809354332+811487804
1398+813893010+815327927+815500861+813975929+811283739+809482013+809725569
1388+810435016+808973327+805739565+804291789+806894596+812555137+818910861
1378+824725364+830218171+835339178+838822469+839930770+839950797+840375720
1368+841352054+842972273+845997754+849963028+852385169+851644944+849131100
1358+846986947+845922143+845586392+845481479+845350917+845306225+845686387
1348+846578255+847629567+848590863+849803585+851704673+853937367+855415780
1338+855532640+855028170+855261397+856842827+859149585+861100354+862386017
1328+863712436+865777886+868413720+870989050+873407046+876202182+879695240
1318+883671617+887936453+892442104+896797940+900391766+903053810+905173931
1308+907388916+910212089+913486186+916518905+919061139+921412097+923419996
1298+924383540+924191773+923563347+922945321+922184857+921316599+920576022
1288+919480932+917075796+913598970+910829623+910120668+910777132+910880569
1278+909401172+906963219+904733337+903353231+902924232+903280361+904049819
1268+904864110+905687746+906777425+908351617+910419386+912740620+914822514
1258+916310343+917538876+919180246+921156454+922549981+922955721+923221904
1248+924284459+925897300+927031249+927020216+926087099+925121728+924579805
1238+923647952+921451588+918742323+917049234+916467819+915663928+913832337
1228+911649887+910428100+910791888+911998919+912607880+912034475+911142255
1218+911267406+912910674+915204081+916655651+916785791+916718051+917532763
1208+918629258+918718150+918090075+918583653+921136216+924623653+927493978
1198+929614871+931933575+934896446+937762273+939455222+940043383+941023370
1188+943613036+947140386+949958852+951665714+953420711+956315419+960078666
1178+963310320+964972701+965460165+965764083+966019164+965747289+965166647
1168+965218365+966457369+968571165+970682923+971946381+972303845+972567498
1158+973385724+974478355+975445693+976632837+978246029+979656140+980768587
1148+982799113+986235464+989709479+992227821+994557557+997321212+999678916
1138+1000765503+1000564952+998980149+996038149+992955538+991648443+993183846
1128+996857077+1000833876+1004381886+1008993223+1015817649+1022718107
1120+1026190015+1025980118+1025210800+1025940767+1026974230+1026112858
1111+1023361712+1020815895+1019831550+1020049950+1020743095+1021601093
1103+1022218346+1022487551+1023744684+1027244067+1031376444+1033210846
1094+1032824219+1032548339+1033207262+1034638805+1037418833+1041221151
1085+1043384487+1041893074+1038191032+1035038924+1033943974+1035214950
1077+1038020837+1040407633+1041349815+1042071911+1043992605+1047115902
1068+1051291214+1056701523+1062124130+1064778585+1063481468+1060095782
1060+1057580111+1057723603+1059784626+1061496547+1061581855+1060260776
1051+1057914527+1055077018+1053373951+1054319436+1056953582+1058674568
1043+1059068854+1060441441+1063254355+1065063600+1065528156+1067630358
1034+1071867718+1073741823+1070050532+1063970338+1060474398+1060540662
1025+1061586493+1061425785+1060547619+1060456971+1061418688+1062349416
1017+1061929271+1059731291+1056630199+1054439527+1054366727+1055463434
1008+1055687385+1054689197+1054017906+1054742954+1056474972+1058269672
1000+1059197449+1058503180+1056693231+1055607277+1056068389+1056959134
991+1057409706+1058142694+1059499821+1060047296+1058511050+1055472358
983+1052339926+1049675703+1047071632+1044407831+1042269862+1040874086
974+1039516116+1037572373+1035052345+1032163961+1029215215+1026621333
965+1024420261+1022185108+1019801826+1017558241+1015430461+1013081962
957+1010053530+1005834932+1000859876+996971758+995469312+995247891+994463044
947+993167122+992487258+992490490+992261972+991339465+990040381+988448973
937+985875821+982030779+978322272+976778437+977792014+979840950+981223516
927+981178262+979360584+975712228+971610278+969659509+971178539+974588046
917+976963669+976958329+975450612+973496751+971165117+968760473+967563280
907+968206744+969536677+970312740+970623967+970412664+968569268+964878117
897+961334956+960324190+962438970+966136656+968863559+968932564+966891568
887+964940939+964580945+964994204+964193546+961762058+959387489+958215243
877+957357174+955781577+953993342+952823836+952183956+951996827+952852014
867+954697238+955817836+954272525+950299451+946065605+943505804+943676982
857+946571128+950897380+955069810+958285161+959957029+959241749+956737461
847+955107545+955980371+957427374+956398267+953002041+950323624+950262138
837+951522222+951612238+949701312+947438894+946925360+947930996+948443827
827+948407919+950118716+954108304+958043573+960581801+963223466+967126551
817+970432902+970021681+965417862+960229044+958799469+961717436+965260317
807+965834354+964313567+964003114+965908137+968282847+969500909+969287288
797+967734810+965100030+962244744+960315125+960267974+961908642+963438493
787+963742130+964361421+966923962+970001443+970921701+969366272+967202513
777+965997240+965947418+966535860+967736988+969773136+971311911+970233476
767+966668812+962650343+959646505+958577274+960275001+963642206+965348717
757+963773611+961497350+962368349+967271870+973179411+976047065+975007840
747+972867060+972309326+973498508+975486028+978005002+980742165+981974001
737+979521362+973489654+967332864+965470635+969686422+977261333+982262319
727+980489895+973953366+968236117+966184369+966232083+966042283+966114942
717+968592878+973648815+978545099+980165528+978357618+975422083+972970779
707+970806950+967411356+962330684+958186362+957547957+959289392+960269590
697+959475467+957554914+953793634+948189379+943817663+943845349+948486622
687+954894557+958874587+958243421+954286931+949446372+944961309+939948448
677+932858471+925212376+921941863+925957029+934825614+944344127+951723546
667+953506159+947743234+937342409+926312174+919077301+918467496+921769772
657+923032948+920424520+917074602+914916676+912970474+910958991+909542626
647+908347612+906549539+903849760+900849787+899459773+901437526+904815061
637+904679018+900185383+895179337+891026442+886419250+882716013+883286045
627+888921219+897282242+904973169+908355903+904604040+895207727+885856597
617+880142861+876989137+874383801+872938906+874747730+880259931+886598298
607+888383512+883934990+878269389+875974928+877458542+880011034
##END=
