##TITLE=<SNM>
##JCAMP-DX=4.24
##DATA TYPE=INFRARED SPECTRUM
##DATE=2/5/2025
##SAMPLING PROCEDURE=Instrument type and / or accessory
##ORIGIN=Admin
##XUNITS=1/CM
##YUNITS=ABSORBANCE
##RESOLUTION=4
##FIRSTX=4497.3318
##LASTX=599.83466
##DELTAX=-1.4281778
##MAXY=1.8265927
##MINY=0.29625323
##XFACTOR=1
##YFACTOR=1.701147e-09
##NPOINTS=2730
##FIRSTY=0.31564111
##XYDATA=(X++(Y..Y))
4497+185546049+185717542+186465041+187283299+187789404+187951542+187681663
4487+187010354+186585782+187197088+188777649+190398538+191111489+190476199
4477+188741630+186915891+186187225+186811601+187782449+187923179+187040591
4467+185768067+184736989+184323681+184809885+186117237+187440444+187805995
4457+187157285+186320194+185791717+185245581+184433157+183800320+183801354
4447+184247702+184758765+185234422+185512710+185241797+184531369+184147861
4437+184576217+185324872+185548747+185047687+184338187+183940629+183934813
4427+184212331+184759132+185352517+185298541+184121180+182417479+181280025
4417+181010093+181122617+181437363+182253659+183371351+183840859+183088542
4407+181797500+181184302+181625779+182399084+182614900+182076507+181302379
4397+180955224+181183145+181414658+181056291+180402939+180344828+181146110
4387+182148860+182763898+183007307+182944186+182411067+181562361+181008306
4377+181097705+181470211+181465271+180827213+180008797+179718666+180115925
4367+180659521+180819084+180571646+180068852+179239610+178062616+177031713
4357+176857417+177619754+178680807+179532632+180130641+180326854+179840177
4347+178967313+178418198+178371896+178483264+178637974+178973724+179276925
4337+179067398+178314241+177482318+176873026+176422491+176090314+175963775
4327+176044187+176297634+176762709+177357478+177808171+177914020+177664708
4317+177159952+176661555+176458090+176436979+176180922+175680896+175427169
4307+175635943+176004997+176360334+176816335+177144255+176779317+175728881
4297+174826812+174858259+175825445+177140733+178270373+179022480+179344023
4287+179160179+178490674+177442795+176111319+174801760+174149109+174550450
4277+175665830+176831664+177699115+178233654+178432669+178268236+177780263
4267+177173581+176739900+176566602+176469687+176305990+176202803+176425592
4257+177068503+177903491+178547839+178750848+178519248+178101035+177848972
4247+177913022+178145533+178475888+179053331+179795294+180267867+180315554
4237+180311735+180468162+180344215+179455531+178106939+177165190+177106501
4227+177675219+178344514+178733119+178729493+178552411+178543599+178728249
4217+178800812+178640742+178525309+178731910+179237175+179901196+180589270
4207+180993818+180779228+180115785+179605003+179443671+179211299+178736658
4197+178553462+179099581+179991541+180471806+180221968+179504199+178783486
4187+178398367+178411138+178611327+178681245+178464098+178147793+178143413
4177+178677093+179534506+180277906+180622258+180561695+180287121+180054574
4167+180047093+180323963+180832328+181354043+181562483+181363100+181088876
4157+181120830+181356530+181287068+180644595+179771590+179198633+179039859
4147+179036775+179000178+178931977+178915579+179100982+179584400+180156762
4137+180427938+180328378+180189523+180267394+180483806+180657699+180736710
4127+180739320+180654055+180457808+180186790+179991681+180045797+180308003
4117+180505179+180507264+180548469+180905014+181506212+181967784+181906836
4107+181274367+180496893+180169814+180506090+181135143+181492793+181425468
4097+181290589+181344425+181273771+180675306+179741212+179005626+178706753
4087+178867630+179594299+180743822+181658330+181808397+181469020+181269041
4077+181351660+181457124+181491199+181472786+181239434+180723938+180206534
4067+179896325+179639024+179297387+179017469+178893085+178742860+178468425
4057+178388451+178892051+179800900+180410822+180262594+179631106+179219796
4047+179566286+180634031+181777248+182254552+181914019+181245180+180758170
4037+180481967+180167782+179898866+180184162+181177662+182090312+181949267
4027+180855751+179996867+180408545+181922480+183333983+183634696+183001858
4017+182360034+182153170+182049738+181725042+181331583+181131972+181135792
4007+181272930+181618036+182226172+182892961+183297228+183352956+183268550
3997+183268742+183327816+183175261+182661535+182091889+181937757+182313381
3987+183032517+183905994+184608978+184651408+183917399+182933307+182376502
3977+182560381+183344389+184261033+184887196+185285998+185814930+186437484
3967+186687146+186411696+185996496+185716141+185452638+185194023+185202660
3957+185529581+185916312+186274645+186866138+187914332+189097282+189598517
3947+189203447+189045741+190192970+191885424+192332420+191108195+189434609
3937+188497976+188796849+190352480+192450393+193550671+192653858+190840804
3927+190296332+191779890+193770149+194564581+194590439+195356017+196980463
3917+197837227+196465440+193337728+190284454+188699251+188912071+190988121
3907+195310030+201700963+208181453+211887939+211917143+209426070+205288355
3897+200300252+196561532+196296750+199380665+202548005+202890290+202217737
3887+203704501+206622757+208005984+208140284+209041477+209154982+206226408
3878+202859141+202968565+206701907+211791638+216504815+218863270+216958696
3868+213072326+211426700+212216823+211986694+209135886+206089585+205723719
3858+209446532+217774835+228891770+234733799+228486521+216910870+207995490
3848+203968705+204459411+208123693+213333499+219068277+224740653+228681192
3838+228497663+224569492+220149512+217083957+214892458+213158362+212501015
3828+213048307+214225529+216824168+222472613+229362697+231971988+229520735
3818+226569334+224059218+219655950+214101319+210746071+211545706+216118259
3808+221632562+224978262+227169744+230956011+234908883+235319878+233321491
3798+232102644+230980905+228321983+225358248+224261614+225617564+229046077
3788+234095285+239862526+245104356+249851836+255853375+264171341+273319619
3778+281324608+288851348+298209625+310804564+326110808+341158296+351954389
3768+357454851+359512277+359653690+359396687+360596350+363293008+365382495
3758+365900320+367227836+372809131+384355841+399626801+411650973+416640792
3748+420059792+427111979+436533008+443676398+448682476+455973971+467956728
3738+484065304+501217485+514632136+521263132+522949507+524824351+531028654
3728+542194958+555217885+565759147+572516384+576588701+578113061+577148957
3718+574994336+573286518+573639735+576714873+579519027+576594132+567438304
3708+557076016+550338050+549608000+553843768+558289554+558598659+555747659
3698+553533087+554222949+558338923+565461921+573743552+579357222+578807617
3688+573586582+568510745+565898178+565544260+567125626+570928116+577619587
3678+586906036+594635470+595067137+590825027+588875167+589198637+586379696
3668+579102216+571486515+566213239+562915996+560610220+559514199+560280058
3658+561923757+562427287+562352060+564796761+571107300+578438142+580817112
3648+575708829+567284733+559947198+554968380+551777022+549831121+549570859
3638+551380428+554133427+556235737+558305917+562975735+570842588+577100009
3628+576083559+570195333+565069251+563268407+565548674+570876820+575315493
3618+576088290+575814924+577784475+581595654+584969630+587067000+588407410
3608+589017000+588940337+589481182+591952056+595629215+598224754+599029855
3598+599876582+602057972+604539147+606003872+607119199+609536675+613103885
3588+614779328+612055200+606919273+603202591+602537851+604380916+607259981
3578+609181881+608557295+605946690+603982324+604854488+608492055+613059807
3568+616112941+615872791+613064853+610117604+608209158+606372681+603450309
3558+600352116+598985287+599355217+599429077+598172618+597330586+599208338
3548+603423890+606511361+605371087+600867874+596267816+593078245+590417045
3538+587447687+584770475+583414332+583503644+584465260+585991932+588117787
3528+590342344+591289069+589939829+587091001+584756495+583991862+583890427
3518+582921980+580621355+577611143+574679590+572414494+571238517+571253443
3508+572153181+573307611+573959211+573691731+572782497+571795339+570857269
3498+569798248+568837508+568377180+568226307+567946529+567725335+567747199
3488+567224223+565532347+563542824+562025962+559829926+555800426+551239575
3478+548225088+547104786+546936464+546933380+546693160+546211634+546257709
3468+547487120+549156011+549727444+548537346+546359915+544479009+543423527
3458+542929843+542908330+543563223+544416572+544224739+542508477+540199794
3448+538129649+535976183+533432255+531346413+530689137+531086642+531091898
3438+529855165+528119632+527233663+527617118+528557360+529065655+528426739
3428+526460411+524015045+522576598+522568469+522641839+521393613+519088223
3418+516913630+515386503+514265044+513437308+513188925+513556963+513883026
3408+513408858+512080220+510327063+508536485+507359141+507736394+509645365
3398+511582156+512219741+511590635+509966803+507255814+504269638+502825305
3388+503755106+505906329+507469616+507592564+506506073+504888548+503548803
3378+503066050+503185740+502972955+502042172+501107046+500787465+500736029
3368+500602465+500863917+501926477+503305149+504314241+504657262+504005802
3358+502102788+499688781+498276858+498536454+499724134+500782524+501082344
3348+500351138+499037706+498272618+498424858+498506496+497816249+497011358
3338+496810031+496887955+496678393+496312457+496235409+496401629+496281414
3328+495598840+494725240+494134781+493780407+493282203+492425036+491311075
3318+490327771+489941093+490145714+490156015+489174954+487574667+486627627
3308+486903410+487705183+488257976+488592553+488942582+489078004+488636561
3298+487731426+487107191+487658723+489433043+491166158+491414192+490083066
3288+488315193+487249375+487248464+487920631+488562000+488737996+488602960
3278+488586667+488883193+489323584+489586229+489511738+489386372+489731776
3268+490505974+490837608+490035064+488497460+487073099+485968914+484886663
3258+483863486+483401336+483762016+484371255+484175534+482775839+480948261
3248+479656729+479001344+478749947+479243632+480650053+481810474+481286132
3238+479435359+478018040+477842080+478038958+477589001+476499252+475236590
3228+473905115+472494558+471363534+470858883+470665544+470055499+468811373
3218+467543631+466971251+467107058+467278148+466849775+465805785+464615127
3208+463666826+462898269+461987914+460912635+460078523+459698291+459296967
3198+458282899+456849709+455804528+455622365+456012758+456259530+455711257
3188+454165139+452049829+450050286+448520635+447515853+447161375+447444341
3178+447780039+447379240+446057365+444362371+443045541+442408621+441905722
3168+440596846+438272361+435769042+433986383+433135732+433013555+433286080
3158+433381033+432795829+431672619+430616085+429963154+429568242+429073471
3148+428109893+426589984+424934968+423626021+422647693+421776230+421086929
3138+420734938+420543175+420134248+419278342+418038945+416742578+415757837
3128+415221371+414977192+414725515+414306041+413942382+413981275+414289888
3118+414248719+413412644+411922797+410344970+409275087+408887988+408767563
3108+408337087+407399017+406190804+405163458+404738378+404965388+405366818
3098+405352242+404833400+404240138+403876550+403574523+403153227+402771699
3088+402541430+402273881+401846944+401335811+400695107+399757282+398511860
3078+397152949+396040951+395567729+395688715+395772876+395305540+394469080
3068+393721686+393179579+392718796+392317612+391936119+391300776+390216458
3058+389007720+388210082+387874524+387632587+387346397+387123801+386794095
3048+386031144+384944583+383969338+383260381+382660146+382093653+381572114
3038+380981935+380259173+379615737+379265358+379061717+378634885+377762056
3028+376507804+375199488+374279567+373912825+373746606+373281687+372419229
3018+371505931+370989857+371072091+371454390+371458595+370669961+369410804
3008+368363836+367823411+367479829+366882538+365930593+364815791+363674957
2998+362564605+361638098+361000548+360504726+360018785+359700116+359666514
2988+359610348+359117715+358256378+357530813+357279731+357333094+357292345
2978+356964040+356401015+355681162+354865479+354107153+353562489+353175180
2968+352724172+352099341+351385828+350693374+350072537+349594235+349327491
2958+349170837+348798103+347934454+346773192+345928988+345746616+345788556
2948+345287304+344067354+342730097+341946299+341821213+341963888+341973138
2938+341725735+341261903+340596007+339748090+338884510+338294402+338135225
2928+338194614+338004043+337271049+336162730+335095090+334270998+333546659
2918+332808866+332239500+331946583+331637478+331064223+330476532+330244511
2908+330352883+330509292+330456420+330104499+329576548+329059739+328558416
2898+328000858+327493053+327145512+326786374+326163224+325313450+324534031
2888+324075911+323933762+323840351+323496243+322904278+322356530+321971148
2878+321477429+320673799+319811201+319259879+319087983+319186965+319461803
2868+319703109+319622732+319157603+318513852+317931802+317521753+317187141
2858+316670963+315843542+314936901+314332287+314112879+313966631+313598067
2848+313100599+312754985+312624364+312592479+312586558+312496335+312094380
2838+311292678+310333830+309575084+309175792+309040230+308993349+308932699
2828+308746472+308239193+307393658+306595039+306265893+306328436+306319046
2818+305988848+305510335+305098044+304703062+304163057+303461213+302748717
2808+302206926+301915340+301795861+301695092+301501087+301138129+300582708
2798+299970280+299459007+298928078+298129949+297164830+296439369+296164427
2788+296162990+296105879+295781287+295221206+294618834+294073189+293522954
2778+292974628+292530680+292105985+291433152+290477546+289549181+288896092
2768+288457470+288099435+287842449+287738649+287672585+287395348+286752998
2758+285860775+285025120+284474902+284160227+283791313+283131987+282327954
2748+281805907+281716788+281698060+281353322+280697307+279988122+279409734
2738+279003487+278664880+278212541+277612657+277025947+276548310+276076367
2728+275491952+274842384+274304797+274029960+273999599+274011022+273857906
2718+273545841+273236403+272934061+272402764+271535330+270599976+269912146
2708+269462890+269061110+268641706+268271058+268006399+267842737+267700185
2698+267450452+267037723+266576817+266264997+266151912+266036655+265687905
2688+265134341+264606582+264237633+263981646+263772382+263582144+263347074
2678+262989548+262526644+262070608+261725345+261523439+261417063+261300895
2668+261121431+260957611+260871488+260735156+260385092+259872505+259373372
2658+258945594+258525437+258073798+257636367+257314544+257182241+257184746
2648+257145907+256907789+256467082+255995717+255700032+255624157+255640940
2638+255625068+255525228+255313564+255009627+254705586+254451631+254206366
2628+253975413+253858702+253865184+253818426+253553417+253104511+252621180
2618+252201969+251883054+251702924+251708443+251895773+252133803+252184783
2608+251911592+251448584+251052480+250818550+250661667+250524249+250456695
2598+250490402+250546445+250517732+250379244+250183137+250008701+249938747
2588+249997997+250093492+250102410+250010838+249872771+249682393+249419310
2578+249165829+249025099+248961330+248875312+248799700+248854850+249033928
2568+249195821+249262183+249268157+249227723+249126709+249060662+249192002
2558+249502876+249748562+249741712+249551211+249348674+249186992+249004356
2548+248753257+248469187+248243053+248123713+248040954+247869321+247570132
2538+247217370+246887874+246601001+246380507+246270908+246230702+246116636
2528+245864994+245587284+245411516+245339741+245297117+245211292+245034315
2518+244774159+244500057+244276340+244119458+244035927+244045370+244115569
2508+244126168+244014327+243909073+243960578+244105320+244178164+244135961
2498+244022508+243884879+243801646+243798703+243748809+243523148+243158158
2488+242775456+242450059+242195596+242010386+241936999+242020476+242160733
2478+242154864+241945092+241671727+241484677+241420032+241383032+241197699
2468+240808830+240414216+240228725+240188834+240074190+239841048+239636759
2458+239534028+239442457+239268231+238999280+238656048+238301149+238049156
2448+237952084+237931727+237893220+237836476+237803068+237756695+237571590
2438+237178377+236697867+236357368+236264343+236298452+236229007+235954695
2428+235634957+235518298+235653176+235875720+236039679+236134334+236205461
2418+236251624+236213538+236075681+235950718+235974351+236132828+236283421
2408+236321630+236288746+236335119+236554544+236845359+237022493+237060965
2398+237102099+237256248+237589547+238320578+239869797+242685146+247147697
2388+253662630+262687188+274607034+289671218+308035483+329705943+354344430
2378+381176641+409156413+437207593+464291657+489402385+511768558+531161869
2368+547813953+561771762+572267580+577965691+578102304+573132176+564146212
2358+551654704+535235131+514293109+489175409+463340552+443116492+433503560
2348+436011189+449078789+467695695+484333029+494273916+498351068+499530900
2338+500068311+500902529+501818105+502048234+501026598+498800289+495676589
2328+491632092+486485373+480216740+472651493+463571172+453577062+443918335
2318+435124274+426623024+417793295+408637852+399305854+389627015+379410239
2308+368812742+358227892+348040443+338528700+329806817+321807451+314361719
2298+307284165+300437581+293835439+287653840+282053397+277036966+272511907
2288+268383424+264578324+261108292+258112533+255722001+253886540+252399075
2278+251057018+249769427+248553961+247457432+246486164+245634129+244924384
2268+244351076+243842063+243341161+242847599+242341266+241768676+241135471
2258+240537427+240066745+239711916+239380317+239024367+238682379+238357315
2248+237962333+237467632+237007742+236749075+236698375+236699146+236598482
2238+236392669+236202308+236119583+236122772+236136840+236103869+235976296
2228+235733133+235452059+235292654+235354566+235583468+235833849+235998370
2218+236087909+236196176+236359646+236494857+236549166+236644066+236949456
2208+237462114+238001557+238401585+238663669+238917852+239254251+239658728
2198+240111698+240628315+241183736+241703629+242124013+242410098+242583781
2188+242747881+242992288+243292598+243561391+243745113+243836965+243864557
2178+243890117+243979026+244117128+244167022+243993216+243640630+243282367
2168+243013346+242820339+242689210+242607397+242519767+242363428+242134595
2158+241925681+241865521+241961192+242068724+242085437+242093811+242280738
2148+242760302+243525145+244624845+246310256+248798824+251989552+255655779
2138+259766953+264393009+269500135+275027857+281001769+287480700+294455172
2128+301792077+309335775+317076456+325067554+333234296+341422622+349458182
2118+357054893+363875339+369632208+374017344+376787231+377962368+377693837
2108+376056060+373159195+369317813+365017189+360659173+356248951+351438771
2098+345887574+339425811+332097421+324251205+316316940+308484984+300875800
2088+293771793+287404230+281790893+276893906+272673081+269009552+265751937
2078+262810259+260187443+257922610+255961099+254192228+252662192+251545499
2068+250881881+250489911+250082999+249454243+248668623+247974102+247482485
2058+247128129+246842132+246543468+246159243+245783146+245578472+245558605
2048+245661774+245880183+246208769+246615927+247041217+247399445+247733303
2038+248253319+249068020+250065953+251108786+252108032+252986976+253777344
2028+254627977+255610457+256624245+257510213+258228385+258924711+259703815
2018+260333726+260418238+259906474+259180015+258599454+258160902+257625330
2008+256873574+256045050+255342925+254817847+254376299+253896508+253295170
1998+252622809+252195767+252434235+253295818+254026043+253883929+252988640
1988+251994054+251263408+250783547+250486040+250320626+250256541+250316509
1978+250466821+250577296+250589472+250589489+250747878+251292087+252307591
1968+253401720+253873698+253473828+252706182+252210045+252188164+252532937
1958+253132856+253846736+254431589+254719356+254785998+254883981+255255541
1948+256040741+257352438+259197517+261009397+261641534+260586717+258789062
1938+257522039+257156558+257346218+257711751+258087551+258463542+258866128
1928+259374265+260303033+261904861+263724836+265029735+265950777+266991613
1918+267604024+266835397+265215927+264339944+264972133+266499558+267735100
1908+268004630+267625239+267343955+267483931+267854860+268269043+268833679
1898+269751725+270901267+271810168+272407214+273339503+274770223+275553829
1888+274744243+273135652+272025668+271635434+271503218+271377099+271270338
1878+271250525+271371826+271689269+272603321+274970325+279024544+282967344
1868+283824704+280991030+277049720+274457527+273638183+273745242+273943416
1858+273956363+273913564+273976194+274194147+274720820+275854822+277788302
1848+280683029+284596344+288337885+289236783+286473448+282780994+280762565
1838+280583959+281044515+281543981+282958251+286332017+290727208+293408467
1828+293381751+292410044+291474900+289808829+287446976+285764455+285469331
1818+285949753+286473483+287205390+288776823+291079935+292925890+293289093
1808+292570413+292095737+292976274+295596918+299263145+302199182+302935890
1798+302099780+302004477+304487614+309085920+312427310+311275965+307236759
1788+304416697+304462141+306252473+308317048+310288071+311996905+312986796
1778+313735591+315922097+320829823+327619155+332750423+333048770+329644732
1768+325476131+322302922+321407563+323385418+326696256+328796604+329527075
1758+330355056+331318984+332237608+334766820+340370503+347361373+351726993
1748+351927094+350255961+349273603+349934803+351965916+354228875+355532461
1738+356776832+360733559+367935007+373312626+371644856+365927825+360665165
1728+356977775+355171850+355403661+357021117+359943944+365735607+375441179
1718+386052447+390622898+386763542+379658098+374063068+371633259+372731312
1708+377015608+382713824+387443557+391537493+397805460+406404606+412486942
1698+412992259+409835799+404035482+397366786+393734580+394648019+398584668
1688+404500435+413647714+425332543+431739051+427551424+419852087+415588534
1678+416225068+420393388+425168776+428604804+432148504+437008368+440069946
1668+438056982+434391561+434318542+438214933+442108697+442999816+442962536
1658+446064443+454932749+470233807+487240790+493533670+489718006+488835121
1648+493803007+498239262+496063863+490800327+488556709+491260130+498857752
1638+510835813+524165568+531592800+530247274+527361691+529210747+536368363
1628+546228908+556417794+566770131+577178529+585908997+592817563+600972708
1618+612480701+624321064+630957105+633088111+635422407+639675589+644500590
1608+648183846+650510994+652427568+654572309+656804365+659104113+662161942
1598+666620377+672226093+678076023+683518252+688562451+693405041+698056675
1588+702607960+707166953+711337796+714503192+716850662+719745985+724978828
1578+733245113+742151751+747292164+749358279+753637810+762473392+773367590
1568+782521947+790328464+799727876+811826188+826777847+846215411+869609106
1558+885861163+887335138+882608943+877996903+874684278+872685925+871450979
1548+871104734+873186827+878642721+886443633+893956953+895281737+884071496
1538+867140755+855786858+850809652+846981970+840670381+834228450+831615672
1528+833166801+836486223+840026524+844243547+848378722+849766223+848319298
1518+846135034+842999000+838202450+833847938+833311367+838713793+849909318
1508+862096626+863631708+850480016+836130238+828990211+828333671+831586871
1498+835533121+836095130+832304448+828465553+828538713+831995834+834691791
1488+833289504+828944942+824870243+822911904+822960536+824036411+825842895
1478+828829527+832890982+836975072+839377902+837996707+832903246+827844191
1468+826080593+827407759+828844804+828202489+827625695+830850654+838620452
1458+846370489+845874352+836951246+827971168+822959836+821306116+821176686
1448+820409075+817757826+814266018+811813153+810938187+811422901+813748368
1438+817882771+820858962+819528012+816136692+814496497+814465804+813426229
1428+810838329+808973260+809307872+811222694+814004355+817709334+820946837
1418+820387912+815537544+809830358+805900295+803997806+803149258+802484449
1408+801968550+801734427+801092883+799563478+798458662+799421925+802093916
1398+804614474+805689227+804818745+802077098+799252972+798710375+800488549
1388+802059299+801260714+799115273+798368685+800391494+804576492+809367297
1378+813684038+817683336+821690972+824874798+826359494+826973289+828188403
1368+830525573+833965315+838375747+842611131+844739334+844275782+842604964
1358+840846061+839094936+837385156+836139417+835715669+836015243+836645085
1348+837294267+837744154+837925510+838506229+840714949+844707870+848571010
1338+849960754+848721603+846760110+845800142+846228025+847512234+849150327
1328+851269490+854338181+858359903+862647493+866506639+869815199+872741495
1318+875483983+878537678+882357231+886555124+890249311+893212958+895996861
1308+899134156+902700245+906275724+909220520+911379136+913266208+915242487
1298+916979176+917967456+918097516+917551065+916607284+915650749+914923922
1288+914171518+912781634+910420849+907490979+904853254+903086923+902077551
1278+901341334+900663561+900279685+900431680+900911769+901224378+901209311
1268+901271118+901820583+902866815+904411917+906659249+909577206+912736996
1258+915771629+918481111+920522350+921730738+922606335+923797064+925221285
1248+926153154+926078593+925183374+924053121+923000792+921669912+919518374
1238+916719405+914136270+912471478+911859226+911954249+911938131+910957490
1228+909247780+908125025+908205402+908501052+907901974+906745722+906138375
1218+906431993+907135694+907821737+908462720+908970490+909067545+908906651
1208+909162147+910301090+912257256+914695755+917118697+918972904+920066367
1198+920858224+922112861+924290398+927342130+930625743+933254148+935069042
1188+936659413+938218600+939141429+939133370+939050891+939973789+941982233
1178+944341476+946407241+948090883+949914677+952579170+955914709+958603239
1168+959685560+959980789+961272077+964132082+967215979+969013774+969482932
1158+969853002+971563623+975001404+979022285+981603808+981672763+980578318
1148+980783080+983252202+986629927+988783497+988901295+988228287+988724564
1138+990902240+993342070+994594396+995106229+996305297+998220329+999578960
1128+1000271028+1002005475+1005731197+1010192505+1013795243+1016150072
1120+1017236177+1016792527+1015694438+1016422316+1020022532+1023892119
1111+1025115223+1025118026+1027788195+1033148576+1036290636+1033938331
1103+1028831414+1025278359+1023640968+1021628109+1018927177+1017672259
1094+1019455408+1023660309+1028461624+1033041500+1037960823+1042677277
1085+1045003444+1044429874+1043436339+1044440946+1046643780+1046797876
1077+1042802152+1036463163+1032330511+1033253830+1037816397+1042564105
1068+1045791517+1048013622+1050292978+1053560054+1058012462+1062468794
1060+1065181920+1065576938+1064677514+1063659663+1063200946+1063901635
1051+1065754790+1067964631+1070313854+1072821167+1073741823+1071334017
1043+1067282373+1063903317+1060536383+1056710313+1054559896+1055189807
1034+1056629305+1057091736+1057268677+1058280852+1059939898+1061013039
1025+1060607580+1059605496+1059323791+1059513206+1058664868+1056546265
1017+1055617760+1058204960+1062964931+1065564184+1063588886+1059662888
1008+1058233411+1060786273+1064570088+1065159846+1061306937+1056576258
1000+1054787642+1055579920+1055744458+1054037621+1051990916+1050292558
991+1047772841+1043988256+1040900294+1040662737+1042458711+1043194297
983+1041493556+1039438232+1039391281+1041288304+1043584619+1044836384
974+1044421955+1042578961+1039964642+1037352775+1035014415+1032115028
965+1027427095+1021023705+1014586820+1009618373+1006125584+1003445113
957+1001185308+998734055+995179178+990700562+986965800+985056865+983825352
947+981311942+977621889+975147091+975427465+976874110+976376922+972888057
937+968437961+965593653+965004385+965373965+965264717+964841179+965454062
927+967457951+969418812+970103734+970361893+971661379+973413836+973131290
917+969267519+963300632+958495042+956996540+958640519+962070310+966363716
907+970861253+973449154+971279816+964898851+958947661+957313563+959599297
897+962311862+962312633+959078423+954767218+952351353+953028426+955073589
887+955633355+953804306+951135187+949320504+948770198+949060382+949629958
877+949993862+949637036+948077008+945635356+943837771+943825928+944638877
867+944392841+942902258+941755607+941860791+942200519+941389601+939580384
857+938327848+939143671+942173540+945789733+947785492+947419206+945813839
847+944209733+942872756+941946914+942037663+943374429+944869427+944756745
837+942728050+940741330+940789122+942355737+943161889+942552019+942358680
827+943980585+946596236+948195716+948004900+947458939+948235519+950192387
817+951858860+952318978+951936084+951807285+952777344+954610738+956247710
807+957226249+958318100+959887939+960640483+959284726+956352823+953229263
797+950557272+948645533+948337690+950267578+953266544+954754744+953603118
787+951424951+950228897+950043966+950171294+951630343+955818916+961002355
777+963005122+960585824+957397654+956965987+958304155+957978372+955229788
767+952703625+952547776+954069402+955207434+955156138+954986134+956038463
757+958449632+961317416+963629568+964860029+965094994+965219588+966299807
747+968267677+969869330+970154048+970035830+971635802+975004136+976490515
737+973027858+966957819+962948080+962378854+963312194+963672594+962420269
727+959816041+957506342+957022748+958461685+960862904+963671403+966653971
717+968815249+969270952+968770471+968853230+970180677+972641109+975400626
707+976169217+972551482+965090859+957208870+951322009+946681658+942453282
697+940779591+943714437+949175517+952702293+952741325+951297133+949691415
687+947646392+945276077+943165113+941991413+941508310+939370366+934064995
677+928514989+926921465+929515742+932206444+930272701+923104014+917202998
667+920740637+929983639+934246632+929119604+917839217+907388178+903134434
657+905510636+909909646+909894019+903522234+895471853+891314744+891243407
647+891601494+891697638+893939294+898298992+902274254+904979671+906204667
637+902885315+892369666+878836131+870567113+871543479+878753301+885848899
627+888424957+885923810+878966261+869280590+861747018+861689626+871138721
617+886363466+897869007+897578753+887750687+877481985+871740602+867468640
607+859345169+848558887+842250941+844376201+852211870+861616677
##END=
