##TITLE=<SNM>
##JCAMP-DX=4.24
##DATA TYPE=INFRARED SPECTRUM
##DATE=2/5/2025
##SAMPLING PROCEDURE=Instrument type and / or accessory
##ORIGIN=Admin
##XUNITS=1/CM
##YUNITS=ABSORBANCE
##RESOLUTION=4
##FIRSTX=4497.3318
##LASTX=599.83466
##DELTAX=-1.4281778
##MAXY=1.7944963
##MINY=0.34006432
##XFACTOR=1
##YFACTOR=1.6712549e-09
##NPOINTS=2730
##FIRSTY=0.36021808
##XYDATA=(X++(Y..Y))
4497+215537483+214891169+215313759+216006901+216512946+216632725+215908484
4487+214179429+212384179+211823585+212707122+214121028+215165466+215472698
4477+214953208+213785103+212585631+212119298+212690342+213843486+214741342
4467+214944987+214738828+214641089+214825939+215094671+215200809+215108028
4457+214931363+214720924+214546257+214592015+214771942+214674525+214408716
4447+214810300+216140037+217312100+217127090+215832697+214827098+214955098
4437+215617764+215716591+215077124+214420165+214184867+214162934+214242198
4427+214677039+215397821+215660847+214788972+213153215+211978405+211957435
4417+212447502+212439691+211994936+212029531+212818307+213435679+212905489
4407+211447342+210205910+210090000+211152074+212747281+213988819+214275652
4397+213609936+212341132+210843700+209697993+209628643+210699437+211995239
4387+212625165+212670049+212705268+212812583+212551322+211700186+210613860
4377+209842345+209608225+209621867+209342220+208551340+207630444+207153395
4367+207366277+208089216+208777525+208732730+207782768+206714078+206549111
4357+207369914+208270695+208605604+208771159+209329132+209906506+209732266
4347+208868898+208006510+207469454+207226275+207343844+207829185+208438622
4337+208853259+208817024+208355506+207958897+208052517+208336603+208164076
4327+207370432+206351137+205580122+205197583+205019243+204958738+205132264
4317+205479780+205797605+206071758+206243626+206022809+205512145+205397697
4307+205951319+206502551+206335159+205577304+204876673+204573702+204553819
4297+204711600+205119407+205712455+206238277+206574326+206770107+206834089
4287+206717698+206411232+205959736+205485914+205139932+204949126+204807823
4277+204593407+204226115+203759497+203478425+203729521+204576787+205730502
4267+206823033+207706963+208422644+208891081+208867061+208335979+207754468
4257+207659582+208101806+208605532+208692590+208381291+208103179+208123115
4247+208222602+208071776+207693446+207391099+207396841+207714577+208170246
4237+208508293+208563306+208392668+208191520+208119442+208198225+208326225
4227+208478067+208789633+209160117+209049592+208191680+207167785+206711082
4217+206772193+206781948+206487305+206161758+206284712+207102893+208273513
4207+209113307+209366508+209343148+209234121+208911588+208517958+208531742
4197+208963659+209089037+208427156+207564162+207463427+208210547+208978834
4187+209149578+208930918+208760887+208568566+207979244+207056244+206413622
4177+206517780+207183299+207865117+208240808+208431721+208714060+209017690
4167+208888085+208196798+207592497+207734763+208328133+208512056+208087112
4157+207728130+207944186+208448055+208748102+208905204+209381220+210320590
4147+211254949+211580763+211271355+210896359+210794768+210576216+209840990
4137+209028140+208923340+209529691+210002515+209771141+209327580+209582636
4127+210583295+211297104+210803774+209309837+207733408+206711653+206405009
4117+206902744+208220266+209882949+210988820+210949999+210018600+208941546
4107+208221514+207806217+207442492+207154144+207177129+207537538+208054603
4097+208669782+209337495+209731107+209591677+209184101+208885482+208612327
4087+208118229+207528622+207210850+207349889+207798995+208175025+208221656
4077+208190628+208471344+208849514+208778987+208302419+207940709+207802740
4067+207568156+207194837+206942920+206797640+206448822+205887194+205600736
4057+205962001+206688078+207235156+207496898+207699865+207904776+208099880
4047+208459290+209059097+209557118+209503656+208919060+208308785+208072364
4037+208130587+208260049+208470167+208768538+208895450+208630997+208151344
4027+207896645+208176255+208824067+209244642+209060684+208663363+208846732
4017+209865955+211002657+211255395+210501784+209635633+209374158+209465888
4007+209394754+209231107+209311460+209635098+210010040+210405454+210863583
3997+211336585+211758818+212055691+212049253+211594208+210836603+210165966
3987+209959521+210398731+211299119+212153947+212559471+212506063+212239506
3977+212114198+212417472+212969543+213221531+213029869+212813421+212778773
3967+212715628+212685813+213178145+214375459+215744053+216554709+216579460
3957+216092567+215432094+214961036+215323032+217013855+219348942+220592745
3947+220036733+219165501+219470041+220182994+219553353+217555012+215651610
3937+214837137+215518706+218030261+221692641+224136576+223546024+221330182
3927+220451655+221765005+223390027+223695440+223634918+224900654+227196831
3917+228402847+226949051+223468649+219971182+218006348+217941795+219746192
3907+223901689+230764664+238887028+244935014+246505754+243842696+238306533
3897+231714520+226756605+225757657+228572825+231837848+232214430+231085681
3887+231992169+235160238+237795816+238988833+239962155+239719422+236731959
3878+233480863+233407126+236381108+240267088+244295173+247754229+248465578
3868+246883799+246319942+247354501+247016650+243807674+240108987+238860422
3858+241711683+249661323+261508659+269039044+263727906+251360902+240718727
3848+235075427+234757441+238513138+244186877+250260881+256299237+261030147
3838+261826466+258382941+253759560+250058912+246986424+244210273+242666870
3828+242971267+244576959+247665656+253489847+260593202+263721433+261695595
3818+258942002+256534088+251831104+245411582+241138124+241576835+246629225
3808+253170203+257144167+259095324+262551260+266932852+268061459+265873489
3798+263455839+260825467+256981982+253580471+252809883+254593238+257689086
3788+261719882+266716921+271779530+276236375+281206719+287643663+294060438
3778+298776761+303038967+309352208+319159118+332775614+348809243+363949759
3768+376232399+386476771+395271342+402846967+410359787+417711404+422256322
3758+423006278+423902208+429861550+442495486+458261916+469474083+473545019
3748+477027489+485393264+497002628+504686103+506755149+509602825+518075915
3738+532391473+548533487+560485159+565304374+565219065+564266891+564991845
3728+567866591+571627673+574103332+573877967+570833422+565686592+560074303
3718+556099590+555201484+557736381+562795762+567773934+569547535+566818908
3708+560609878+554189857+551439260+553544114+557488120+559076158+557614194
3698+555481914+555229587+558642119+566455164+577468501+587283329+589982997
3688+585326412+579641617+577065134+577564367+580170701+584606985+591827427
3678+602503912+612194484+612480443+605272341+599805456+597233504+591733451
3668+581690370+571777928+565493040+562934034+562370854+562609985+564044736
3658+566419571+567177979+565349098+564556630+568570040+576450990+581235931
3648+576728888+566335010+556950797+551283049+548159222+545571149+543338866
3638+542879506+544582205+546940812+549076873+552680032+559165604+564780354
3628+563255657+556655458+552283762+553622505+560142101+568849115+575157542
3618+576812023+577003470+579271917+582809204+584788804+584675354+583432051
3608+580621537+576236931+573247238+574948939+581077081+587549315+590965592
3598+592533372+594735341+596653597+596010422+594147517+595017947+599847041
3588+604874823+605817653+603866442+602851214+604005249+606182002+608093982
3578+609218344+609243523+607674994+604879888+603407510+606651277+615090307
3568+624021366+627362497+624998861+621180680+617968583+614942228+612058459
3558+610330723+610573528+612511043+614646140+615351443+614757485+614488574
3548+615070906+614721535+611810875+608111386+606962701+608825320+610904567
3538+610834093+609012987+606820185+604776817+603291386+603094518+604183572
3528+605346095+605301301+604210534+603284182+602620820+600839801+597570249
3518+594350591+592255081+590764551+589441750+588706596+588760771+589299449
3508+590127830+591039025+591535762+591280510+590409010+589147660+587384224
3498+584949045+582285683+580509265+580459085+581649355+582591186+582274128
3488+581114850+580332583+580510870+581088316+581258293+580735985+579350700
3478+576893552+573920550+571677247+570852646+570948726+570990596+570376095
3468+569066562+567575817+566472747+565700608+564689089+563114461+561314967
3458+559798972+558608024+557398495+556236364+556084361+557829929+560507200
3448+561396176+558968985+554910140+552029296+551337616+551847228+552166640
3438+551774936+551110575+550713200+550373352+549422249+547767161+546187576
3428+545515905+545811136+546455631+546731069+546072094+544164608+541367219
3418+538871589+537715271+537644334+537553033+537086968+537052730+537982292
3408+539019918+538714772+536737419+534392079+533232302+533436303+533946129
3398+534061753+534193356+534752113+535043029+534070919+532148026+530653251
3388+530219356+530143854+529701684+528976694+528249493+527746551+527820020
3378+528378670+528633458+528153733+527434271+527044314+527053445+527359554
3368+527858288+528433522+529138611+530055798+530917419+531126271+530220889
3358+528483132+527089323+527102983+528268288+529428993+529793663+529078909
3348+527243644+524928084+523443045+523609920+525003336+526493974+527098703
3338+526541087+525484487+525005726+525519653+526342043+526283624+524631497
3328+521861784+519414086+518395826+518571617+519023488+519537843+520616697
3318+522355596+523972415+524389441+523158228+521032653+519496543+519408166
3308+520305309+521207338+521665771+521881364+522257376+522848231+523057725
3298+522241933+520665486+519300102+518763029+519050807+520051199+521632211
3288+523293325+524288725+524292612+523780433+523567622+523952122+524387979
3278+524166110+523335517+522666342+522812959+523791667+525165967+526396075
3268+526892669+526123419+524052304+521442190+519460450+518778615+519117072
3258+519810712+520608423+521553071+522281521+522048345+520552715+518553250
3248+517499468+518150525+519589200+520168714+519388194+518183765+517547579
3238+517539234+517488590+516831541+515694661+514597475+513726688+512752580
3228+511310197+509539699+508144714+507680467+507776690+507594908+507028946
3218+506632962+506442157+505871095+504742667+503489555+502353067+501206700
3208+500137190+499458991+499177847+499027200+498955764+498990073+498825445
3198+498242864+497499507+496661603+495308987+493545372+492309308+492079272
3188+492199105+491854014+490920422+489708039+488603827+488024991+488036974
3178+488014327+487286341+486043501+484956515+484065399+482797630+481023316
3168+479447083+478830157+479128348+479485244+479049850+477722771+475941716
3158+474018752+472227996+471159520+471219508+471993680+472596982+472490452
3148+471752231+470812183+470056486+469502258+468808902+467651229+466010479
3138+464161020+462535534+461538530+461181064+460875418+460093543+459249576
3128+459148502+459604545+459601015+458783011+457723737+456840396+456147754
3118+455754516+455599945+455145115+454118616+453037515+452448585+452243656
3108+452031523+451629690+451004097+450145436+449090549+447823171+446330322
3098+444942684+444212951+444237203+444509002+444601374+444561750+444536108
3088+444482718+444288702+443855556+443211132+442622167+442230284+441673274
3078+440587608+439306357+438510323+438386424+438569241+438686720+438586253
3068+438225577+437676592+437102819+436500587+435639322+434481221+433417632
3058+432819394+432587823+432396269+432104425+431681728+431089411+430481650
3048+430125896+429969649+429657976+428994258+428077463+427088020+426213845
3038+425637113+425381933+425259068+424996648+424399729+423470346+422345876
3028+421087058+419763830+418723494+418310462+418308037+418152503+417672458
3018+417144479+416770785+416578553+416583475+416632407+416371663+415706696
3008+414995152+414505762+413959737+412907025+411410003+410077288+409403191
2998+409237030+409013306+408416173+407629020+406962948+406448878+405861411
2988+405055997+404189098+403551949+403248051+403127006+402983063+402721250
2978+402349874+401828101+400990696+399794220+398531550+397559369+397004927
2968+396914410+397318026+397958777+398354226+398193771+397367315+395921472
2958+394367101+393476521+393403194+393528698+393336608+392861520+392257290
2948+391568750+390934383+390493141+390118341+389578201+388827318+387949648
2938+387050044+386302728+385823681+385444031+384837020+383862413+382728100
2928+381929071+381883955+382386862+382695503+382409901+381837270+381292743
2918+380629025+379647392+378455124+377321525+376546248+376348095+376546676
2908+376529057+375895832+375017591+374578132+374675604+374767690+374419960
2898+373707024+372928466+372349094+372195772+372524350+372983996+372922581
2888+371951505+370425631+369164210+368635268+368659662+368892160+369163603
2878+369295455+369052758+368429091+367667509+366932996+366172805+365338610
2868+364567042+364029862+363713018+363479628+363265855+363085713+362919337
2858+362679457+362230868+361515258+360745794+360282475+360205867+360234613
2848+360102083+359763769+359230333+358446711+357417288+356344639+355521001
2838+355027616+354651676+354204763+353778428+353543113+353418858+353103761
2828+352405269+351470714+350660450+350221026+350117670+350119026+349958107
2818+349474210+348753713+348109575+347772937+347600926+347249024+346674039
2808+346209757+346025335+345874973+345581703+345314683+345148628+344838275
2798+344258083+343633239+343175983+342793694+342224523+341370891+340491508
2788+339927829+339630458+339261401+338733386+338200557+337602212+336763844
2778+335865738+335285332+335024731+334700575+334089997+333400030+332957468
2768+332822049+332769444+332511696+331884784+330989424+330190715+329782427
2758+329656709+329516262+329272922+328933752+328334872+327411194+326513373
2748+326060326+326031651+326045489+325767163+325095670+324137540+323135293
2738+322341791+321863672+321584953+321272852+320844877+320477460+320319894
2728+320221994+319941992+319505920+319156693+319007436+318881291+318512412
2718+317868416+317155338+316458808+315646012+314765310+314173420+314043173
2708+314099452+314016710+313746051+313370753+312960396+312580104+312206339
2698+311698653+311018886+310361480+309933113+309708140+309493475+309153734
2688+308714061+308299710+308008187+307822268+307655821+307443010+307077805
2678+306378136+305374356+304507171+304173172+304218074+304237868+304151239
2668+304089610+303995313+303703612+303216933+302670801+302188936+301841884
2658+301606569+301354313+300935682+300273747+299454602+298763815+298447363
2648+298373947+298164935+297710461+297289725+297120532+297071601+296908524
2638+296572706+296130216+295659229+295252207+294988235+294880082+294893670
2628+294929174+294780453+294291028+293574918+292928158+292542588+292415230
2618+292434542+292442032+292290992+291920758+291341601+290620373+289980193
2608+289754864+290018372+290376106+290375928+290028947+289681271+289505212
2598+289387252+289215455+288986060+288635959+288037739+287256060+286614774
2588+286371506+286448274+286595640+286683001+286696446+286591860+286323823
2578+285957922+285615078+285317403+285000113+284676492+284451556+284330884
2568+284163707+283826730+283334326+282764388+282223124+281853585+281735874
2558+281788640+281831545+281733645+281517767+281340193+281309540+281329423
2548+281213459+280935953+280651991+280491394+280459599+280508085+280554895
2538+280459831+280136174+279682146+279302496+279146267+279240493+279435793
2528+279439306+279113367+278699105+278561314+278786180+279137744+279304297
2518+279142612+278771201+278440144+278314034+278392978+278545194+278575170
2508+278391872+278121998+277937148+277829833+277669931+277412254+277155951
2498+277032373+277074297+277201049+277322629+277409704+277439645+277344349
2488+277078452+276718239+276426645+276289105+276237231+276176494+276098905
2478+275999740+275812608+275542591+275338304+275281490+275200068+274877749
2468+274429463+274254136+274554682+275069946+275345187+275136621+274548208
2458+273933244+273646108+273734574+273917266+273955177+273909224+273925772
2448+273968445+273927947+273842138+273829745+273890696+273909741+273821078
2438+273685000+273618076+273689119+273875984+274081751+274172892+274059764
2428+273815319+273639456+273598478+273530715+273357082+273278852+273447296
2418+273665010+273676708+273558034+273570285+273787857+274066594+274262446
2408+274346275+274367763+274365392+274302658+274146518+274025989+274159446
2398+274530715+274797914+274685410+274347363+274164939+274273876+274457085
2388+274432833+274083891+273415554+272392979+270845402+268539365+265380372
2378+261527650+257298452+253003810+248861954+244977116+241376007+238107525
2368+235273009+232947980+231173898+230077942+229931432+231001709+233405860
2358+237208117+242509660+249335812+257552099+266561673+274851215+280479553
2348+282275533+280634355+277515539+275037652+273614991+272364269+270774216
2338+268978788+267132360+265185269+263123284+261201640+259831709+259224055
2328+259220899+259416858+259385616+259028292+258798898+259274057+260421566
2318+261619772+262439968+263061495+263820599+264682523+265392801+265959869
2308+266679473+267702227+268795918+269580718+269887255+269833794+269643773
2298+269494748+269508978+269748609+270156505+270563848+270812591+270870225
2288+270833669+270834649+270922705+271010636+270935420+270605932+270110248
2278+269628633+269235466+268882244+268578471+268429090+268450328+268496906
2268+268424917+268238534+268068627+268046605+268153937+268204474+268057999
2258+267810755+267674248+267731704+267916839+268144807+268332849+268373292
2248+268240852+268083945+268064134+268133769+268110159+267946013+267792387
2238+267801179+267963934+268151120+268257472+268288714+268317798+268391820
2228+268494374+268545731+268450132+268225249+268032981+267980393+267975828
2218+267896474+267788036+267783739+267910740+268066541+268153598+268165921
2208+268126689+268027025+267906710+267893354+268035656+268198714+268231419
2198+268128580+267979234+267878268+267885151+267959850+267984120+267914556
2188+267838430+267855638+267991271+268205633+268417962+268550991+268591185
2178+268567914+268489167+268354782+268195469+268044732+267924293+267883189
2168+267967554+268134999+268287341+268396029+268526151+268741904+269029218
2158+269295436+269429357+269377215+269173196+268921065+268756384+268778068
2148+268974277+269237481+269454269+269566131+269587137+269599566+269691028
2138+269858687+270002915+270032802+269960938+269886381+269903447+270031322
2128+270205133+270327445+270363252+270393657+270542503+270851447+271241529
2118+271570410+271734967+271758737+271759825+271820686+271950381+272149461
2108+272391213+272577293+272653919+272731097+272960081+273345705+273770185
2098+274124602+274337502+274381138+274350573+274430497+274680916+274959011
2088+275124085+275189458+275217062+275225943+275251907+275352071+275517002
2078+275676726+275797611+275910436+276042074+276159553+276230026+276340301
2068+276645929+277136389+277576169+277757078+277686087+277493837+277330868
2058+277353176+277603167+277882706+277920743+277701922+277504786+277583177
2048+277908135+278287713+278653543+279058622+279412843+279485099+279265744
2038+279069321+279139991+279373415+279546585+279628524+279736445+279931210
2028+280181754+280435703+280624940+280708431+280837340+281337108+282305135
2018+283313177+283761570+283504607+282910328+282413502+282247786+282448917
2008+282862270+283225781+283393672+283437254+283524954+283783468+284214493
1998+284718505+285340300+286369741+287843652+289103094+289388286+288764227
1988+287900323+287252778+286946455+287013505+287326426+287603076+287712905
1978+287780401+287951430+288217025+288460400+288671962+289110084+290001735
1968+290997366+291333112+290776192+289940213+289451697+289339871+289383435
1958+289541126+289814282+290052040+290115291+290053930+290043338+290249746
1948+290821664+291977625+293806256+295661636+296212440+294912341+292889319
1938+291543587+291113722+291049026+290988592+290979747+291151473+291481959
1928+291963413+292948844+294765652+296817579+298073651+298651971+299368793
1918+299791883+298726420+296577396+295126150+295310732+296534902+297555641
1908+297568248+296734534+295827530+295393438+295412358+295680378+296234124
1898+297237744+298445918+299185228+299405599+300086579+301625257+302698905
1888+302041392+300410485+299279026+298993067+299143001+299461521+299821556
1878+300127772+300428317+300887143+301984970+304684531+309426996+314442866
1868+316222245+313498860+308959077+305709532+304607710+304782466+305142358
1858+305211904+305113434+305158585+305509347+306242361+307525467+309605248
1848+312876406+317539981+322141606+323347319+320070063+315622295+313179483
1838+312915102+313340652+313736743+315180482+318968491+324066211+327207870
1828+327069242+325713844+324426459+322351314+319470934+317397750+317022202
1818+317623186+318253273+319046346+320793341+323465155+325664698+326042743
1808+324953154+324004404+324619904+327285940+331175664+334308871+335120669
1798+334241215+334022770+336437406+341188395+344764092+343424673+338625429
1788+334909927+334320105+335762774+337594794+339359050+340858319+341528421
1778+341835707+343745119+348925938+356586695+362512440+362599711+358049942
1768+352605063+348550568+347307014+349386011+352863809+354677354+354669901
1758+354759811+355187144+355726607+358129866+363993698+371374024+375599638
1748+374818369+371712909+369354159+368971728+370377484+372281546+373056930
1738+373433905+376719899+384038739+389957351+388155790+381631699+375559943
1728+371234504+368920620+368813734+370218634+372986849+378885239+389332187
1718+401295807+406853672+402625597+394189313+387254438+384096230+385312536
1708+390516216+397569747+403368348+407828884+414187598+423198902+429917971
1698+430734869+427369521+420638576+412341527+407059421+406894721+410431081
1688+416476410+426240665+438987979+446139945+441391024+432212489+426492600
1678+426368130+430769463+436313419+440096114+443325901+447586287+449720600
1668+446212487+440880058+439493668+442413850+445286099+444913403+443563427
1658+445585717+453956235+469731010+487576116+492543090+485359846+481706222
1648+484836682+487090721+481621982+472920211+467868997+468248148+473819850
1638+484069715+495453571+499403961+492925058+484718918+481633430+483761216
1628+487966109+491952876+495845596+499209874+500121676+499510313+501337304
1618+506870952+511511737+510107658+505437199+502895918+503788710+506309128
1608+508288478+509133443+509715204+510859503+512404315+513693841+514651721
1598+515915603+517925410+520261121+522071527+523019350+523492833+523983435
1588+524679145+525637738+526913033+528345181+529736207+531751293+536082652
1578+543484342+550701395+552137038+549330591+549155513+553527316+557958857
1568+558094989+556041385+555637983+558446356+566415790+582536406+603438966
1558+611496100+601698106+589837806+582936669+580366678+580421637+581658557
1548+584313145+590662443+602194557+617554945+634047257+647310352+649080244
1538+640014159+632488928+632501339+637029174+640058597+640893434+644245550
1528+652482219+663355287+673951526+684407461+694795062+702006231+704843208
1518+706195610+706922454+705795809+704282917+706181272+714161941+728436627
1508+744968740+752120207+743110900+730485345+724584351+725749799+731088005
1498+736714453+738722798+736936358+736067783+740183478+748356379+754585986
1488+753655568+747740736+742331272+740105800+740634064+742633066+746076483
1478+752041816+760786563+770837276+778839772+779975903+773423816+765642798
1468+762663020+764994487+768648397+769502493+768946125+771906501+780568934
1458+790657238+792339038+783842517+774332408+769049838+767979329+769264824
1448+769860708+767527244+763407697+760238113+759285154+760718372+764834781
1438+770724362+774368714+772489974+768170705+765798082+765404987+764448676
1428+762365792+761354985+762635987+765086502+767919198+771788095+775466185
1418+774856463+769370605+763469968+760174630+759080511+758709528+758737204
1408+759948231+762204231+763480525+762473142+761219959+762480418+766104655
1398+769758779+771987389+772546039+771131367+768623360+767530668+769119384
1388+771470822+771612768+769971411+770023267+773580883+779492576+786069129
1378+792879072+799950007+806230187+809966911+810986348+811095624+811722537
1368+813135853+815672320+819575668+823501343+825009242+823351551+820362786
1358+818178614+817507121+817649922+817462469+816483191+815074653+813709483
1348+812576704+811792439+811766618+813219095+816472491+820607374+823695786
1338+824344668+822948399+821101186+820158357+820504232+821740296+823330438
1328+825049971+826896970+828859022+831079786+834021973+837848214+841784517
1318+844818362+846874355+848626771+850602305+853031421+855960769+859202681
1308+862466420+865433502+867802844+869589569+871046611+872098146+872470627
1298+872415204+872585467+873262667+874113268+874525907+874082097+872844892
1288+871098967+868869857+865981667+862546452+859140197+856394807+854503442
1278+853148115+851837727+850279326+848612077+847451551+847421165+848459932
1268+849858270+850991833+851754699+852463783+853504262+854770213+855606905
1258+855647134+855320518+855391419+856380541+858286101+860570490+862606154
1248+864112271+865079851+865701271+866402723+867465813+868828415+870526764
1238+872624698+874545879+875428792+875383783+875752841+877863757+881673736
1228+885768318+888835545+890816143+892252285+893310882+894219331+895719741
1218+898148643+900788537+902893034+904801447+907235485+909973813+912148070
1208+913479786+914433600+915609248+917510029+920366122+923898986+927570158
1198+930944030+933735641+935978017+938110618+940563986+943494118+946825192
1188+949978728+952028159+952843523+953205519+953566373+954042210+955291755
1178+957912319+961264578+963772870+964366543+963292824+961693837+960832252
1168+961853115+965526712+971083757+975806036+977537837+977261579+977496681
1158+978989173+980340647+980519755+980693228+982846870+986991668+990936387
1148+993001796+993643545+994231369+995714089+998167314+1000723611+1002371529
1138+1003080256+1003709237+1005041168+1007240033+1009800752+1011894621
1130+1012765978+1011941983+1009722717+1007775216+1008188997+1010843941
1121+1013474348+1015184752+1017395030+1020996156+1024781883+1026953643
1113+1027051293+1026054610+1025305582+1025153436+1024817547+1024049403
1104+1023973152+1025632055+1028770041+1032593715+1036663046+1040448130
1095+1043136528+1044402265+1044452410+1043360003+1041375410+1039359575
1087+1037905173+1036991160+1037058923+1039122834+1043210069+1048232358
1078+1053417136+1057999681+1060193981+1058997933+1056202541+1054375800
1070+1054322874+1055376335+1056373232+1056120370+1054592284+1053876282
1061+1056298978+1061436037+1066274297+1068595777+1069004993+1069251792
1053+1069274261+1067777275+1065540747+1065100646+1067362709+1070305610
1044+1071090017+1068891936+1065527837+1063388674+1063151504+1063907736
1035+1064896930+1066198902+1067967367+1069708442+1070516744+1069722208
1027+1067252648+1063811799+1060795429+1059506582+1060227007+1062250688
1018+1064660902+1066592425+1067225401+1066699348+1066592639+1068325654
1010+1071412996+1073741823+1072865330+1067989051+1062164023+1060490354
1001+1064403332+1069285031+1069520204+1064439710+1057029390+1049743325
993+1044192058+1041696891+1042178506+1044097618+1045875570+1046684942
984+1046045975+1043696962+1040037060+1036493996+1034635799+1034359398
975+1034065379+1032972972+1031727707+1030296700+1027524562+1023360006
967+1019617577+1017817299+1017574637+1017645895+1016860203+1013793832
958+1008248985+1002940808+1000551565+999810169+997281762+992321886+987315075
948+983840272+981093670+977777432+973958538+970803932+969228270+969170137
938+970004688+971092316+971823227+971720370+970627535+968566050+965672580
928+962266825+958876547+956425818+956152699+958670905+962923553+966456916
918+967150450+964950087+961679286+959201737+958198920+958236439+958559632
908+958791095+959087325+959676718+960228022+960077874+958993385+957084258
898+954595368+952337300+951370931+951941422+953117213+953369647+951792130
888+949213936+947581853+947862034+948965568+948838816+946207553+941808181
878+938254917+937798267+940140362+942965498+944325817+944053839+943225778
868+942753721+942348357+941084118+939017997+937297536+936641949+936698299
858+937066215+938140576+940196997+942148136+942234873+939962110+936739100
848+934208553+932765207+932289655+933146961+935868455+939932865+943273711
838+943595477+940569977+936733037+935246322+936687957+938946239+940255344
828+940823054+941137187+941187474+941382631+942225243+944070530+947421291
818+951884644+955682639+958050199+960190645+961974161+961031117+957424998
808+954930830+955741058+957605390+957333126+954925765+952841098+952546936
798+953298104+953886499+953841704+953014000+951865956+951418223+952308982
788+954035648+955378206+955837067+956095136+956983542+958598292+960090143
778+959846411+956753006+951884644+948014750+947073561+948967494+952687669
768+957071490+960520044+961954759+961816595+960757998+958727969+956263687
758+954867061+955071419+955417651+954387800+952488304+951387979+951734924
748+952834322+954296784+956346500+958127591+957787065+955617659+955332770
738+959919951+967709101+973786492+975036180+972523537+969109079+966477031
728+964555993+962471682+960004690+958431025+958955438+960814134+962044706
718+961664806+960306413+959479208+961028122+965681069+970675682+971536127
708+967447251+961621723+956523112+952147350+949068282+949519011+954088360
698+959379490+959983862+953678574+944326602+938089790+937341404+938856579
688+938025950+934251280+930327389+927663029+924819918+920036652+913658609
678+908215833+906145788+907677940+911210233+914185945+912819420+904459423
668+893545127+889595985+892311702+894465987+894180242+894217690+896082664
658+897536710+895768387+891014581+886364844+884902024+887276003+890671987
648+890412776+884463849+876095792+870890400+871778092+877255533+883421801
638+886856944+886443948+883606686+880493808+878301077+877854057+880053778
628+883597984+883926526+878196365+869828379+864391738+862768072+862213772
618+861800705+863172794+866952172+870326543+870365631+869064943+870340880
608+873848850+875483858+873344767+867683724+858358072+847593496+840023612
##END=
