##TITLE=<SNM>
##JCAMP-DX=4.24
##DATA TYPE=INFRARED SPECTRUM
##DATE=3/5/2025
##SAMPLING PROCEDURE=Instrument type and / or accessory
##ORIGIN=Admin
##XUNITS=1/CM
##YUNITS=ABSORBANCE
##RESOLUTION=4
##FIRSTX=4497.3318
##LASTX=599.83466
##DELTAX=-1.4281778
##MAXY=1.7086517
##MINY=0.18097161
##XFACTOR=1
##YFACTOR=1.5913059e-09
##NPOINTS=2730
##FIRSTY=0.19722413
##XYDATA=(X++(Y..Y))
4497+123938540+124933504+126355191+127391948+127398456+126423793+125133306
4487+124202935+123891560+124297466+125520887+127148397+128205530+128145927
4477+127333216+126368629+125624229+125388900+125724266+126190814+126243122
4467+125825080+125386634+125522226+126507742+127901103+128777817+128634518
4457+127863674+127115295+126452700+125498581+124280124+123402557+123288324
4447+123692769+124109613+124192522+123693696+122578955+121370751+120850023
4437+121265508+122188444+123094468+123676672+123714428+123185272+122470566
4427+121971543+121628452+121242145+120977402+121028849+121077318+120637439
4417+119839691+119394728+119747904+120610667+121389891+121710893+121411082
4407+120484111+119306658+118477045+118127221+117791058+117140965+116442271
4397+116053539+115859786+115530254+115116407+115041073+115579668+116570035
4387+117527871+118031960+118175193+118440665+118887174+118911193+118159246
4377+117097815+116272621+115637342+115004103+114602832+114781434+115453880
4367+116144174+116444865+116294964+115932592+115618623+115313484+114765534
4357+114050247+113725219+114199192+115176412+115931318+116024473+115671137
4347+115436650+115596608+115943267+116252648+116603100+117079208+117489909
4337+117570655+117315409+117006917+116895681+116857859+116581974+116110295
4327+115818106+115804575+115691719+115176637+114573925+114549644+115234151
4317+115936422+116082118+115990237+116201117+116562375+116606218+116348976
4307+116110173+115924408+115624719+115296507+115340368+116050458+117162952
4297+117958395+118018925+117731624+117773323+118328212+119099178+119800802
4287+120310715+120546719+120420603+119876005+119024770+118263450+118039207
4277+118475266+119384549+120481002+121392448+121806295+121794683+121659952
4267+121485153+121248840+121193451+121543753+122016388+122133701+121903288
4257+121733685+121817532+121970476+121987790+121978688+122358580+123343731
4247+124433686+124869828+124698353+124690009+125134542+125516102+125444682
4237+125118614+124820686+124558874+124198778+123634628+122947461+122475107
4227+122543784+123156786+124025954+124750820+125005739+124830911+124645933
4217+124687153+124710330+124553275+124508711+124740407+124875278+124606407
4207+124271846+124464400+125272691+126113101+126368760+126169267+126216668
4197+126736779+127164625+127060178+126674124+126413221+126361784+126459367
4187+126693976+127068830+127543684+127891430+127753609+127153941+126689003
4177+126827817+127387875+128028155+128732130+129509857+130154482+130473480
4167+130390710+129944061+129490164+129506111+129873521+129874120+129210701
4157+128452771+128226168+128607175+129402834+130368761+131099611+131258370
4147+130948858+130537193+130260062+130217877+130474238+130954748+131431381
4137+131694391+131644134+131292259+130815972+130592048+130971669+131848693
4127+132600322+132693785+132248503+131808380+131770437+132158251+132677416
4117+132973032+133053591+133271513+133722797+134010697+133779572+133159808
4107+132558913+132263719+132399583+133121097+134490607+136055575+136962629
4097+136805893+136025235+135210014+134478331+133797954+133399876+133535141
4087+134153284+135037949+135967374+136644633+136856412+136785704+136799263
4077+136987463+137235415+137459713+137484107+137131080+136599245+136248513
4067+136081953+135952513+135972037+136206065+136365386+136241115+136083049
4057+136250423+136753107+137318484+137761771+138102447+138331896+138357357
4047+138318608+138573696+139088806+139239325+138569669+137433335+136624014
4037+136630971+137350799+138265252+138890353+139239952+139697801+140357971
4027+140853023+140924743+140781107+140779056+141025632+141359022+141588733
4017+141700344+141754234+141671905+141393894+141119029+141057104+141181478
4007+141501928+142153932+142966465+143445579+143387943+143084022+142835424
3997+142686412+142654453+142818727+143075060+143158120+143074789+143193132
3987+143716024+144374265+144757032+144664178+144169266+143661965+143709142
3977+144516075+145603520+146236833+146099377+145456569+144794807+144414915
3967+144370922+144700688+145472506+146513149+147365217+147718244+147683616
3957+147528359+147394499+147378252+147675872+148444974+149376459+149642438
3947+148924866+148263751+148836497+150128744+150430315+149218777+147706418
3937+147149422+147987079+150108162+152741677+154334764+153863375+152279904
3927+151464459+151998007+152729925+152619260+152297902+153039568+154834883
3917+156080319+155217734+152498126+149619664+148016959+148095655+149861258
3907+153535266+158984269+164787844+168689662+169400323+167115387+162715754
3897+157864415+154858471+155186336+158100691+160535340+160204487+159102201
3887+160349238+163410590+165402242+166034769+166801652+166515223+163501721
3878+160061385+159472008+162053562+166262879+170606870+172994605+171625348
3868+168536690+167384249+168429509+168799222+166821672+164108609+163184540
3858+165794785+172908193+183159458+189105086+184013109+173843612+166002950
3848+162549017+163091367+166327791+170632827+175094675+179705637+183681132
3838+184852432+182647578+179366113+176785702+174606786+172399816+170948023
3828+170961077+172325128+175508288+181379940+187885804+190004921+187408534
3818+184712495+182789894+178988609+173683785+170262346+170818105+174921964
3808+179845350+182909548+185240219+189269651+193338431+193521949+190687658
3798+188134796+185793338+182537025+179493727+178372731+179229510+181256689
3788+184070173+187284422+190010371+192135106+194852589+198499516+201347591
3778+202185248+202499545+204585662+209568773+217058730+225059687+231427430
3768+236312892+240948538+245425724+250256537+257344456+267238236+277406216
3758+285410562+292761369+303037523+318254144+336672709+351964186+360100548
3748+366066384+375609609+387674252+396337214+401168645+407676326+418614354
3738+433019799+448387650+461553062+469852098+473592759+475608253+478030710
3728+480966059+483511448+485482031+487802083+490697915+493319041+495885444
3718+499947556+506509362+516022510+528737322+542266923+551255306+554159566
3708+555024397+557751750+563695787+571586285+578158428+581427963+583067843
3698+585459549+589154514+593880205+599774762+606862193+613501421+616756685
3688+616191468+614232758+612169957+610357927+609912271+612274910+618417166
3678+627625082+634626326+633148071+627645158+626583755+629490899+629713390
3668+625286040+620773251+619259899+620252120+622615995+626488803+632053519
3658+637885560+642288265+646111218+651854339+660541235+670215183+675531076
3648+672674273+665119310+658721976+655973123+655899259+656373757+656884064
3638+658939373+663067971+667332386+670652300+675394584+683844456+692760736
3628+695396770+691897890+687931328+686502215+687801654+691451858+697257156
3618+704779307+712215983+715793522+713485906+709330189+708587653+709986052
3608+708441873+704403994+703343303+707551683+713925944+718238378+719975308
3598+721471693+723031828+722421288+719708768+718892368+722928598+729518983
3588+732322897+727914349+720218176+714652824+713050737+714512812+717186976
3578+719402674+720754852+722371696+725587556+730066896+733532740+733214735
3568+728317006+721825506+718042256+718477201+721387341+723849352+723976030
3558+722371247+721763553+724546791+730284368+735798854+738608386+739120041
3548+738391439+736128546+732166629+727990086+725358247+724610467+724792580
3538+724874910+724350819+723055351+721448545+720563974+720935392+721704372
3528+721758609+721608034+722262098+722758471+721562862+720100113+721670661
3518+726714545+731685763+733467041+732778068+731797533+730924049+729260534
3508+726628620+724050493+723084117+724654216+727523829+729051901+728457168
3498+727170764+725833869+723642818+721033977+720119366+721930085+725449341
3488+729201278+732645247+735787317+737945482+737608824+734046567+729056546
3478+726265892+727883710+732002045+734348316+733570571+731912974+730613460
3468+728732323+726304921+725164298+726261547+728448478+729824852+728794576
3458+725538862+723380023+725517287+730146603+732060402+729427964+725462376
3448+723337697+723238363+724129751+725230296+725719477+725414432+725324612
3438+725903239+725658873+723611129+721942146+723360171+727317893+730871760
3428+731849448+730304145+727729165+725596021+725240335+726977789+729013621
3418+729383466+728459041+727599416+726529510+724658112+723602664+725387913
3408+729248548+732914933+735405262+736234697+734358130+730228783+726948123
3398+727168517+729920666+732106474+732517446+732602622+733728187+735518905
3388+736616004+736029061+734066719+732260420+732024819+733399769+734838846
3378+734445853+732218693+730275603+730187580+731450387+732950892+734466454
3368+736034305+737077542+737105859+736491798+735759899+734614931+732615507
3358+730376885+729143670+729125166+729223377+728540696+727357972+726777996
3348+727749616+729906283+731452559+731023533+729392755+728698537+729919317
3338+731733632+732201163+730918955+728797497+726592811+725081594+725677151
3328+729281359+734966198+740524133+744135083+745020329+742788300+738072385
3318+733218106+730314183+729733908+731075523+734106048+737730482+739492208
3308+737924582+734390567+731455855+730802390+732378407+734356706+734972191
3298+734320898+733518656+733174506+733627280+734902372+735903208+735775182
3288+736145850+739621733+745286569+748208995+745533407+740464727+737311794
3278+736145026+734742882+732785184+731671230+732038677+733417898+735238731
3268+737048251+738333456+738677081+738048787+736922997+736101952+736514871
3258+738479461+740670063+740910234+738773719+736120080+734708872+734752846
3248+735687983+737084134+738694237+739935992+739573189+736845911+732989472
3238+730166305+728978562+728656811+729267126+731642313+735132729+737124512
3228+735787243+732481862+730101206+729885382+730598328+730418312+729377922
3218+729049879+729585506+729059468+726622177+724187509+723754887+724942331
3208+726218397+727197883+728537699+730045621+730365124+729169739+728060130
3198+727977651+727608705+725693333+723118502+721528552+721399776+721939673
3188+721779734+720251437+718293514+717400778+717983075+719210747+720017559
3178+719967592+719482531+719456162+720360435+721645191+722276557+721952783
3168+721565409+721908135+722291539+721411388+719169396+716741469+715155789
3158+714444791+713781287+712348803+710499280+709746780+711020673+713308288
3148+714557984+713712442+711570159+709910464+709912862+710994903+711468652
3138+710689633+709510505+708122070+705319954+701130451+697838106+696939451
3128+697352670+697546245+697533884+698129367+699758797+702030754+703524142
3118+702860939+700165199+696527280+692916180+690343298+689616268+690053535
3108+689605781+687140623+683865132+682011114+682832309+685879465+689330176
3098+691040512+690223662+688160337+686506261+685491940+684527137+683694930
3088+683472814+683528399+683220807+682928272+683366587+683864308+682891265
3078+680380860+678037510+677064093+676768561+675685995+673467151+671287486
3068+670529817+671405249+672826496+673318374+672074746+669408896+666488343
3058+664485622+663959959+664973830+667032360+668993579+669848110+669467478
3048+668391205+667490003+667394339+667354411+665586167+661769581+657941833
3038+656140853+656494592+657787962+658629084+658210396+657093520+656581341
3028+656869006+656990365+656596024+656438856+656641271+655931397+653649176
3018+651255335+650468451+651009097+651667581+652238042+652565262+651558583
3008+648935808+646111218+644195472+642700211+640795476+638518574+636400638
2998+634926577+634463016+635100450+636425733+637606285+637964369+637519836
2988+636850864+636375242+635927788+635108166+633745276+631944745+629902396
2978+627847685+626191287+625444218+625653825+626100605+625867813+624744982
2968+623467979+622884408+622876617+622385189+620630729+618092119+616028120
2958+615312852+615802033+616485538+616395455+615568155+614720965+613952696
2948+612603815+610683237+609346341+609244909+609376194+608498440+606906542
2938+605689732+604980270+604208704+603379307+602871173+602512939+601798570
2928+600703082+599650219+598809734+597782416+596029605+593613515+591397892
2918+590337276+590509538+590842713+590140592+588472694+586860532+585722830
2908+584753195+584092614+584193259+584692366+584676073+583818320+582468091
2898+581059991+579749240+578213751+576040866+573568404+571719517+570980352
2888+571219249+572181505+573454986+574297943+574034587+572532322+570296697
2878+568189885+566829879+566149296+565602844+564763370+563768902+563271256
2868+563609150+563939478+562938755+560562069+558213588+557027905+556748180
2858+556415904+555573359+554475211+553415232+552289104+550894151+549360572
2848+548035214+547077902+546378628+545724377+544931799+544050111+543425900
2838+543202360+542878474+541850145+540214685+538547761+537145392+535867416
2828+534448566+532813668+531268290+530348098+530374055+531150340+531994196
2818+532093830+531218136+530036798+529287070+528842986+528013813+526478062
2808+524575013+522885428+521658580+520590584+519308226+517999610+517160586
2798+516803964+516391755+515487108+514100096+512486435+510912815+509552585
2788+508436720+507497425+506654768+505853313+505077964+504365580+503775230
2778+503331670+502937741+502306188+501162493+499633035+498190737+497094874
2768+496146852+495098634+494004269+493063663+492296555+491405392+489992048
2758+488056000+486181717+484975246+484404634+483912831+483090438+482024128
2748+480966171+479907952+478684849+477302782+475886404+474532354+473446417
2738+472859999+472612300+472224963+471475010+470487621+469357148+468110973
2728+466875472+465722301+464557743+463395769+462473442+461868146+461251988
2718+460303666+459163230+458155165+457249393+456162819+454854241+453597391
2708+452643001+451944663+451166730+450043374+448784613+447827339+447109037
2698+446059246+444457796+442820837+441750520+441269017+440968841+440575436
2688+440125847+439644719+438923195+437816358+436569171+435543277+434760137
2678+434054196+433495496+433205396+432906044+432164631+431011235+429833567
2668+428751039+427576330+426315884+425261785+424574984+424058946+423349933
2658+422236728+420909160+419867197+419355841+418996559+418282565+417268844
2648+416392288+415809279+415324593+414784958+414171047+413468439+412756392
2638+412267323+412109070+412045469+411718924+411031036+410207969+409518770
2628+408957336+408222815+407069344+405634800+404323750+403394044+402744512
2618+402118914+401473240+401030206+400921020+400969826+400950648+400775464
2608+400338573+399575585+398711690+398015262+397404123+396719644+396117569
2598+395755253+395417659+394823187+394019185+393268895+392771848+392524898
2588+392300197+391822815+391061288+390250543+389596104+389062950+388535376
2578+388126426+388105938+388411732+388543504+388217258+387790105+387655786
2568+387579300+387100907+386296342+385628082+385304871+385244154+385391432
2558+385641904+385668535+385223440+384502479+383948760+383732861+383592550
2548+383255254+382886870+382864059+383164647+383369309+383266154+383047896
2538+382909382+382830274+382751728+382690524+382661720+382600553+382392221
2528+382024998+381693621+381604737+381680399+381630507+381319169+380890105
2518+380528014+380249076+379999766+379835482+379802745+379736634+379497400
2508+379317684+379486163+379793269+379767049+379326074+378762018+378288531
2498+377976819+377826618+377618398+377053255+376219325+375549230+375261452
2488+375221748+375308460+375495555+375612381+375439220+375063158+374800738
2478+374758075+374746726+374610983+374376431+374095508+373775892+373445377
2468+373145088+372892969+372705724+372581706+372480049+372390266+372333819
2458+372236995+371966297+371565963+371261404+371125962+370946733+370524561
2448+369948444+369480913+369295503+369386710+369607291+369749400+369679507
2438+369395737+368944836+368426327+368076184+368067756+368210428+368157727
2428+367880661+367600712+367386349+367179102+367028415+366976351+366916832
2418+366780603+366629654+366484623+366286141+366035632+365817711+365742199
2408+365903186+366253779+366550434+366582197+366395589+366193436+366126239
2398+366232803+366441885+366584744+366501178+366187930+365844567+365729688
2388+365884458+365988325+365587466+364470515+362740740+360602988+358208399
2378+355614878+352802199+349833664+347008662+344639767+342667574+340743886
2368+338694308+336688778+335029158+334011729+333923893+334936378+337030193
2358+340184999+344511629+350057504+356652009+363817949+370560594+375591893
2348+378039109+378015212+376683935+375289994+373790800+371223686+367274654
2338+362680697+358228475+353958854+349719609+346037267+343651629+342442835
2328+341652692+340934914+340464274+340338870+340476223+340920081+341846117
2318+343206984+344561821+345442908+345830807+346069442+346428687+346979371
2308+347711570+348520329+349208404+349671628+350012931+350406036+350881770
2298+351293229+351506768+351567597+351608687+351693713+351829493+352012018
2288+352191472+352290844+352283764+352219002+352193757+352279569+352427297
2278+352506705+352463181+352331971+352103299+351717760+351211349+350743106
2268+350443305+350322920+350355844+350514135+350656619+350575227+350281006
2258+350046904+350051099+350202797+350395773+350657331+350961515+351170522
2248+351240266+351257383+351259293+351233261+351247532+351362111+351493471
2238+351577711+351739335+352086182+352493670+352791711+352999407+353223247
2228+353480535+353710592+353838019+353830678+353793671+353914767+354219251
2218+354514333+354661199+354750495+354942647+355287958+355749983+356259016
2208+356708156+357021779+357264796+357608084+358141876+358752603+359230884
2198+359504391+359705982+360000202+360430202+360954704+361528462+362120236
2188+362735983+363422821+364169291+364846053+365341265+365712833+366103279
2178+366549235+367013395+367551045+368255750+369059041+369781351+370385898
2168+371002955+371744742+372685760+373950214+375610808+377561951+379689889
2158+382094180+384947012+388181038+391483272+394599086+397567433+400643955
2148+403935701+407116352+409726653+411814363+413931625+416404874+419012628
2138+421485052+423933243+426659846+429830683+433407548+437218029+441038772
2128+444699689+448187221+451614672+454957471+457820416+459696834+460481771
2118+460457462+459786954+458357429+456135813+453369206+450393068+447430376
2108+444531772+441591217+438543986+435615642+433149848+431119709+429071366
2098+426614337+423689176+420346527+416609835+412604843+408547712+404571374
2088+400753515+397257781+394215981+391519380+388962754+386591312+384681670
2078+383348296+382359783+381398689+380359835+379335663+378437046+377736498
2068+377309382+377155849+377068200+376752443+376136921+375413825+374791149
2058+374344930+374056029+373854101+373658991+373436387+373200786+373014703
2048+372991180+373188950+373518716+373850505+374187613+374692339+375595301
2038+377054004+379021291+381288230+383682220+386143782+388603022+390890487
2028+392793835+394121067+394676358+394304678+393129557+391633622+390207880
2018+388676924+386613935+384096151+381735310+379953657+378613765+377367590
2008+376046764+374646380+373200449+371807519+370618839+369682428+368867826
1998+368041125+367302072+366910502+366872147+366753934+366136353+365110646
1988+364085463+363338769+362934689+362767895+362572598+362151999+361619893
1978+361214540+360959574+360685505+360305509+359968177+359940309+360274083
1968+360589317+360387502+359656801+358901155+358514717+358424560+358380061
1958+358295822+358191506+358025761+357749595+357422188+357169657+357064142
1948+357163289+357674457+358749457+359872663+359954917+358633192+356878957
1938+355762531+355431753+355502770+355683535+355840215+355920559+355944157
1928+356023640+356459220+357475975+358692298+359476861+359913153+360405780
1918+360512194+359504241+357886048+356943944+357176324+357977180+358434972
1908+358163975+357488411+356928475+356656466+356512896+356352994+356278680
1898+356572639+357266669+357915302+358283012+358857743+359845395+360318020
1888+359461391+357910283+356718569+356100388+355807066+355722789+355737735
1878+355687243+355567645+355608959+356358275+358572700+362308268+365839435
1868+366511629+363826002+360095229+357531636+356576834+356541437+356681712
1858+356690776+356642907+356667104+356737185+356897910+357482006+358897110
1848+361395904+364793127+367724730+367980445+365367110+362416517+361043439
1838+361033250+361261398+361348671+362232231+364944489+368729949+371178139
1828+371286650+370419234+369330150+367424067+364976514+363365663+363182950
1818+363784950+364476621+365367222+366921477+368957983+370447176+370606216
1808+369906792+369550956+370455342+372838320+376015862+378521997+379279703
1798+378937801+379432750+382226439+386778744+390034944+389176293+385726368
1788+383410886+383773389+385866904+388349105+390829807+393129482+394753444
1778+395983887+398326825+403100872+409673503+414876127+415861680+413636918
1768+410763298+408734283+408709374+411311548+415143341+417709444+418726498
1758+419715685+421032429+422543421+425483227+431028615+437765529+442174451
1748+442743377+441443414+440701177+441516042+443682522+446201056+448025634
1738+449895796+454184146+461324803+466881428+466386628+462570641+459443142
1728+457936719+458173443+460222610+463542261+468069658+475138249+485597135
1718+496680943+502228017+500268034+495541444+492379971+492321951+495653251
1708+501861131+509026247+514877279+520013980+527308958+536905746+544227618
1698+546562165+545952823+543305028+539732171+538598552+541692079+548019220
1688+556533929+568018147+581699110+590561340+589740482+585508916+584308737
1678+587789339+594968015+603081678+609801774+616048384+623104315+628644234
1668+629983751+629924195+632934419+639466597+646108372+649995451+652645419
1658+657631245+667481088+682955241+699912668+707456169+706045410+706993207
1648+712600960+716882530+714754256+710022609+708165444+710521229+716746039
1638+726061529+735003504+736873404+730917157+724799248+723087039+724677289
1628+726478869+726962881+726785637+725989538+723671434+721047386+720684059
1618+722342555+721906038+716533287+709200590+703347273+699305349+695897488
1608+692217468+688500891+685628881+683897869+682751702+681712811+680974994
1598+680799698+680842473+680457046+679395456+677908286+676362908+674952449
1588+673536895+671817720+669914258+668429335+667870560+668701119+671761535
1578+677215491+682298180+682948798+680917386+681605535+686334935+691565651
1568+693736251+694144152+695940188+700851551+710457778+726705780+746924614
1558+758099816+756155453+752967685+754551643+760481371+768899855+777918316
1548+786629034+795958458+807159955+820104075+833781142+844691453+845106395
1538+835941555+828402623+827178772+828999754+829112722+827889170+829142612
1528+834075400+840752309+847345241+853963643+860271457+864332559+865978769
1518+866849706+866813448+865422541+864637454+867007323+873408028+883398633
1508+894554283+899529621+893424148+884514236+880528721+881850409+885835399
1498+889281391+889990441+888550391+887962325+890491234+895432187+899167642
1488+898600927+894817677+890978242+888996198+889021518+890250314+892191906
1478+895162576+899537862+905132205+910523909+912460781+909397369+905099843
1468+903967010+906491050+909554911+910030533+909082810+910399179+915608620
1458+922087834+923675613+918796013+912901569+909688406+909478425+910886263
1448+911427958+909648477+906952438+905417174+905442195+906838571+910148970
1438+914952458+917727456+915515429+911331844+909472732+910218939+911384059
1428+912068463+913239651+914990439+916204627+917053090+919088772+922012397
1418+922644737+919533081+915256230+912532248+911956693+912427295+912385943
1408+911118343+908882269+906230802+904011733+903318565+904555751+907092076
1398+909859732+911594639+910802136+907123914+902609290+899665738+898545941
1388+897640169+895476236+892565721+890808789+891316774+893712562+897035997
1378+900689422+904432219+907708833+909675671+910488101+911705510+914380199
1368+917728130+920571298+923083351+925792201+927836948+927808406+925866664
1358+923744757+923165231+924727464+927649516+930319485+931399579+930672999
1348+929122827+928220052+928917116+931231549+934514007+937872800+940653416
1338+942857727+944854530+946637831+947791863+948129046+947904083+947327329
1328+946468602+945759028+945823078+946639554+947570870+948389668+949539431
1318+951060761+952035153+951759549+950818793+950389467+950994314+952281092
1308+953529365+954039297+953537231+952571230+952085045+952428446+953084982
1298+953355792+952929538+951792960+950207054+948783185+947840332+946726902
1288+944650842+942012036+939870052+938310216+936462191+933913355+930867623
1278+927325817+923463984+920310302+918784551+918318893+917388925+915264171
1268+912393435+909353920+906453968+904216845+903096298+902595131+901428588
1258+898711348+894761567+890631920+887040372+884094274+882075073+881732796
1248+883180861+885156014+886141568+885707298+884333396+882757978+881829583
1238+882229693+883895455+885915556+887296125+887880895+888445888+889793271
1228+891975707+894504916+896739342+897948885+897862510+897273021+897327483
1218+898413869+900254254+902549284+905137074+907921286+910689167+912959177
1208+914474364+915800098+917805965+920563058+923259547+925368194+927416237
1198+930169360+933287009+935415358+935920046+935873451+936796302+939101072
1188+942115416+944904347+946847811+948091889+949632847+952324017+955723788
1178+958567555+960254593+961402483+963031314+965154419+966352276+965550034
1168+963952967+964018515+966534314+969856700+972129632+973064994+973579270
1158+974731505+976884276+979367863+981175810+982251859+983579464+985695453
1148+987917069+989654673+991509366+994071686+996616551+998154737+998957054
1138+999959089+1001403484+1002927436+1004144171+1004709538+1004694031
1130+1005146505+1007269611+1010909627+1014659616+1017038024+1017298721
1121+1015755366+1013663125+1012504372+1013204508+1015847059+1019305562
1113+1020802096+1017667367+1011171897+1006706491+1008533765+1015557222
1104+1022811035+1026698189+1028032237+1029845953+1033534363+1037604753
1095+1039630472+1038938203+1036947992+1035501425+1035648329+1037427510
1087+1039842775+1041874562+1043993623+1047136667+1050208994+1050958647
1078+1049553356+1048539336+1049173248+1050565429+1052256213+1054789316
1070+1057697958+1059526656+1060037038+1060413700+1061091661+1061202832
1061+1060362160+1059693937+1060556858+1062824021+1065325886+1067558515
1053+1069954078+1072433395+1073741823+1072941229+1070720962+1068944403
1044+1069257688+1071293970+1072209705+1069533068+1064369474+1060284475
1035+1059541414+1061437309+1063348411+1063547530+1062912643+1062886049
1027+1063441678+1063707094+1063051756+1061466750+1059933059+1060038611
1018+1062181943+1064496226+1064899782+1063621469+1062316037+1061711790
1010+1061534022+1061914654+1063290878+1064601928+1063379276+1059079052
1001+1054600536+1052842855+1053259371+1053554677+1053128648+1052753110
993+1052276739+1050757730+1048592074+1047648771+1048633801+1049595532
984+1048135555+1044409239+1040630634+1038227429+1036707747+1034849683
975+1032042698+1028282746+1023616348+1018483993+1014201149+1011839745
967+1010510716+1008086611+1003891190+999202543+995200174+991785420+988277101
957+983990062+978516403+972545023+967924772+965779342+964745245+962607157
947+959169330+956238364+955281128+955956842+956755638+956530525+955372072
937+954070835+952857846+951240328+949406985+948900574+951008322+954867609
927+957952146+958735285+958082944+957403185+956514493+954500611+951841578
917+950115810+949988084+950693913+951233960+951343033+951458923+951946456
907+952215618+951213059+948949717+946502089+944472624+942696065+941432285
897+941544355+943142696+944985627+945840083+945777306+945243477+943733608
887+940756346+937398302+935377677+934951198+934959663+934698667+934571989
877+934764665+934488087+933137108+931456063+930734278+931090414+931253873
867+930265623+928902583+928650202+929794721+931486103+933029084+934001378
857+934010817+933521936+933617375+934133225+933529951+931135436+928313393
847+927175092+928906254+932704336+935974808+936624003+934900033+932272838
837+929675160+927657381+926523500+925666872+924301135+922902587+922998101
827+925636832+930107257+934151803+936020504+936142313+936104781+936724086
817+937754063+938531734+938567992+938239124+938584622+940123482+942633213
807+945451960+947232938+946736191+944471725+942136466+940331066+938551661
797+937205027+937104344+937488272+937277617+937557417+940258550+944916932
787+948702954+949660415+948686023+948274227+950144802+953691851+956271850
777+955387579+950840218+944870636+940532432+939556017+941010151+942409898
767+942641229+942793077+944040601+946262068+948679881+950462208+950763657
757+949733755+949321659+950907265+952739484+951943610+948863567+946640003
747+946568461+946633261+945192012+944052662+945722995+949010546+950190648
737+948501588+947135776+948198266+949938567+949873018+948411767+947735304
727+948828433+951076193+953604952+955389377+954705497+950870483+946359080
717+944592934+945992606+947882883+947647731+944925547+941508921+939846380
707+940794477+942701983+943230718+941693356+939253070+937439504+936055564
697+932788913+926841281+921758817+921377885+924098271+924027179+917938111
687+908640525+900958659+897085664+896110673+896700986+898760866+901807947
677+903431833+902170675+899581536+896248887+889723826+879461063+872175562
667+875771080+885297749+891120652+890547418+885455965+878726692+872992187
657+870472193+871851114+874825529+875813630+873907622+871114421+868278744
647+863472034+856250958+850469557+850012589+854106877+858449201+859704966
637+857530095+853220283+848337987+844938590+845849980+851250449+855109061
627+849934305+836724394+824122252+818174020+818845464+823903881+830968838
617+836254316+835946948+831041804+827219524+828119078+831569715+832883686
607+831476448+831709427+836913549+844956495+848534933+840996750
##END=
