##TITLE=<SNM>
##JCAMP-DX=4.24
##DATA TYPE=INFRARED SPECTRUM
##DATE=2/5/2025
##SAMPLING PROCEDURE=Instrument type and / or accessory
##ORIGIN=Admin
##XUNITS=1/CM
##YUNITS=ABSORBANCE
##RESOLUTION=4
##FIRSTX=4497.3318
##LASTX=599.83466
##DELTAX=-1.4281778
##MAXY=1.7334024
##MINY=0.18460603
##XFACTOR=1
##YFACTOR=1.6143568e-09
##NPOINTS=2730
##FIRSTY=0.2075147
##XYDATA=(X++(Y..Y))
4497+128543274+128930822+130085619+131327865+131857071+131443761+130363500
4487+129022193+127810168+127235769+127798925+129404923+131180584+132162265
4477+131971676+130857354+129498085+128712070+128914271+129796144+130575596
4467+130484529+129350943+127948421+127397356+128102264+129520792+130756521
4457+131115879+130436097+129180578+128049189+127535656+127832994+128701852
4447+129400538+129279297+128476704+127681293+127384351+127608363+128082612
4437+128484199+128632578+128515481+128151360+127495937+126542594+125569017
4427+125090264+125313335+125856793+126240067+126290299+125900416+124975188
4417+123902929+123475663+123985671+124793728+125001292+124294049+123048065
4407+121843156+121043951+120779519+121085876+121891431+122920686+123749779
4397+123971659+123436342+122403266+121368686+120790198+120925239+121618857
4387+122231442+122157774+121442538+120605184+120047446+119884096+120002808
4377+120105478+119998848+119821735+119739797+119677067+119568379+119506138
4367+119517464+119550823+119631561+119685817+119364590+118457039+117388823
4357+116911445+117297423+118152519+118991599+119627481+119971471+119895440
4347+119417499+118678541+117724422+116678128+116065709+116431566+117518399
4337+118213845+117589187+115936438+114532152+114352685+115237807+116341311
4327+117099237+117515067+117786948+118049000+118309537+118370411+117974603
4317+117241663+116752036+116975633+117747867+118467848+118767245+118864653
4307+119191234+119751335+120106853+120029890+119856432+120036453+120538762
4297+120838815+120508320+119792706+119411998+119691873+120180336+120308307
4287+120058550+119688697+119146467+118210642+117071777+116348077+116474413
4277+117333090+118486834+119526796+120228316+120654493+121101300+121694491
4267+122137874+122079482+121562340+120906667+120297119+119707564+119165417
4257+118879053+119011167+119393601+119662926+119787721+120218495+121195099
4247+122148452+122312956+121820588+121543371+121887093+122399602+122572044
4237+122372086+121995661+121695553+121770301+122202874+122520188+122481152
4227+122603363+123498758+124859088+125585742+125060376+123968844+123521575
4217+124051604+124863039+125256522+125155135+124850163+124556507+124208105
4207+123715109+123447141+123931654+124913289+125474673+125248427+124712417
4197+124341217+124250048+124508102+125138133+125883801+126301246+126098288
4187+125416881+124767430+124584299+124912985+125564799+126361410+127176870
4177+127933975+128603096+129182968+129754773+130443749+131179560+131674909
4167+131783311+131649378+131374349+130818051+129941947+129093074+128673912
4157+128677041+128779997+128791673+128825733+129066148+129436731+129609385
4147+129450272+129307773+129635812+130423414+131118519+131074121+130161566
4137+129028562+128518841+128758961+129150237+129314566+129536548+130078493
4127+130577239+130465828+129654891+128504239+127443139+126849421+126949931
4117+127565876+128216204+128594530+128665817+128383062+127790285+127304656
4107+127404150+128119294+129177882+130388967+131493818+132037285+131914143
4097+131680170+131845635+132180846+132096600+131428153+130573796+130094646
4087+130300013+131036848+131860034+132465548+132843995+133058316+133141288
4077+133197482+133306420+133332551+133119227+132805476+132648061+132630791
4067+132608269+132681226+132982386+133284442+133236656+132791215+132174505
4057+131695714+131606724+131846918+132032310+131960839+131861732+131942111
4047+132077632+132092068+131923078+131445460+130605844+129795424+129593361
4037+130023553+130485729+130586802+130681210+131311305+132376992+133240579
4027+133534041+133457429+133276227+132981233+132591128+132342479+132346938
4017+132444900+132544404+132697979+132773724+132518217+132022434+131746048
4007+132025452+132798969+133777890+134676119+135238943+135169871+134302066
3997+133004632+132085154+131962012+132272781+132585562+133003081+133764201
3987+134742947+135608196+136091776+135986624+135274572+134403231+134140756
3977+134832316+135883852+136374882+136127950+135676159+135334579+134956058
3967+134562419+134643683+135651182+137393641+139066522+139937448+139944195
3957+139518120+139038933+138715020+138881702+139996375+141880013+143254716
3947+143098602+142261580+142245224+142846953+142576909+141061932+139445864
3937+138833926+139707389+142141206+145410070+147742537+147841422+146677062
3927+146349937+147475529+148717498+148954230+148879732+149598346+150746368
3917+150725784+148527739+144994766+141983828+140695079+141255558+143680828
3907+148441029+155419840+162619369+167070139+167596254+165019403+160246140
3897+154725170+151148684+151500095+154824886+157370889+156754150+155608067
3887+157210483+160456464+162105494+162442367+163596702+163988422+161150461
3878+157631814+157448590+160719882+165195279+169568772+172601421+172381183
3868+170020083+168832278+169151613+168135125+164367127+160175915+158906108
3858+162787602+172713958+186314807+193766768+187106018+174354237+164439161
3848+159651906+159686704+163350158+168942619+175202972+181574497+186604254
3838+187566818+184043113+179112158+175150304+172212082+170041203+169118864
3828+169489575+170714745+173672590+179772243+186869314+189470736+187317930
3818+185117125+182935686+177569537+170404659+166027252+166845102+172350077
3808+179252294+183574264+185877249+189417865+193125274+192862484+189454435
3798+186648541+184519974+181734368+179368966+179239187+181340396+184662436
3788+188738138+193344496+197869442+202352888+207967390+214900917+221114196
3778+225163333+228786746+234758668+244550278+257954464+272560559+284888997
3768+294117608+301684636+308011172+313792080+321316556+331493996+342141338
3758+351187021+360116290+372378916+390187868+411901280+430592068+441561292
3748+450091919+462360710+477187283+487741841+492856775+498910774+510187667
3738+526427266+543611172+555383146+558069009+554744033+551387823+551331185
3728+554608457+559109386+561713393+560849132+557629789+553572437+548993715
3718+543892330+539558546+538803831+543667367+551560763+555331936+551820248
3708+545213238+540681664+540866309+545154606+549594134+550468991+548909090
3698+548724741+551723846+557341062+564909844+574335339+583723691+588231561
3688+585668500+580495119+577631073+578267749+581114589+584698459+589745273
3678+598162329+607139042+608726671+603158856+598276232+595446228+589873280
3668+580336946+570572880+563413670+559744807+559230858+561024325+564734245
3658+569593793+573468235+575738988+579354056+586898137+596454667+600883931
3648+595188921+584392194+575512142+571041969+569909103+569726378+569595897
3638+570556561+572831264+575134101+577817822+583911549+594622876+604435790
3628+605646191+600684961+597093780+598182488+604127420+612862999+619351232
3618+619978900+617871857+617909038+620606567+623554093+625558714+627086752
3608+628195656+628461270+627893489+627260800+628226300+632013054+637649876
3598+643113314+647842011+652067615+655305714+658061691+662262631+667627783
3588+669900677+666299935+660120735+655558332+653545661+653207459+653789861
3578+654898838+655764133+655282823+653623713+653249993+656972060+664714226
3568+672236191+674031541+669250783+662128827+656674620+654126438+653481344
3558+653222893+653235520+654642233+657296749+658863259+658044854+656975457
3548+658188479+660709413+661049682+657745272+653055859+650194952+650529609
3538+653030900+655503245+656325784+655363312+653785652+652986447+653303825
3528+653719488+652982754+650711854+647412687+644317401+642803024+643097585
3518+644220740+645530276+646994513+648001291+647511489+645545118+643505716
3508+642769352+643181176+643062805+641102268+638424343+637458031+638626674
3498+640031024+640273821+639856606+639509765+639069659+638739728+639471293
3488+641170130+642402647+642263009+641163927+639813408+638786101+638729981
3478+639377438+639145349+637107719+634395605+632565401+631925550+632220775
3468+633426709+635002892+635527548+634033405+631060329+627852358+625310380
3458+624099203+624783804+626984331+628974258+629059695+627092807+624353224
3448+622676023+623620921+627137187+630591646+630671692+627173149+623114430
3438+620638910+619069004+617082326+614795180+613318279+613611399+615813736
3428+618701671+620372263+620308240+619764976+619532444+618900715+617462545
3418+616193623+615770206+615427684+614333512+612468196+609945195+607154807
3408+605399148+605735209+607420274+608866272+609643139+610193271+610311974
3398+609422569+607892538+606791093+606638533+607210522+608031105+608290738
3388+607095954+604721526+602699366+601893479+601756278+601784117+602242646
3378+603500381+605375740+606847435+606552616+604569187+602891248+602913770
3368+603672251+603637323+603036276+603083942+604054094+604976027+604722818
3358+603434845+602355479+602021264+601704551+600973466+600561975+600934846
3348+601251449+600701095+599812688+599537400+599872648+600288349+600909665
3338+602311062+604253692+605501015+605192276+603625693+601499931+599197204
3328+597121878+596024715+596390129+597834280+599346294+599951808+599444985
3318+598776483+599037223+599936818+600276275+599838496+599586617+599968460
3308+600111826+599368447+598688757+599389197+601216484+602397458+601679702
3298+599830853+598656007+598931332+599962959+600834345+601233985+601239191
3288+601198429+601750223+603146266+604708419+605556877+605515340+604892030
3278+604037258+603349593+603017372+602788938+602380918+602077237+602680093
3268+604475702+606203116+605897553+603321385+600476132+599247455+599724519
3258+600781363+601247498+600631387+599378416+598308501+597808177+597988206
3248+599055610+600615991+601190011+599646688+596907917+595165587+595311575
3238+596014710+595751939+594907984+594907098+595886961+596273530+594738034
3228+592067421+590457306+590848122+591644816+590596058+587363017+583639141
3218+581461615+581874768+584457028+587628631+589681842+589648797+587537693
3208+584562809+582691068+582877337+584082385+584644258+584046349+582803199
3198+581369607+579814284+578206459+576847375+576017192+575552497+574918701
3188+573830990+572611137+571891609+571999531+572466811+572272861+570945677
3178+569158893+567892150+567544902+568037732+568942385+569423363+568738651
3168+566976642+564917117+563103713+561355327+559488312+558219390+558471491
3158+559808718+560596219+559793211+557734831+555328613+553307045+552096791
3148+551795659+552060534+552072349+551055491+549165068+547339775+546191365
3138+545741955+545958279+546593404+546929760+546576310+545926895+545269617
3128+544360865+543166304+542114740+541539649+541535920+542181937+543307381
3118+544114008+543562177+541494530+539059255+537491970+536800945+536141451
3108+535049643+533780462+532855502+532709920+533336000+533977144+533608186
3098+531983082+529882131+528171184+526969460+525962792+525206010+525119133
3088+525728155+526397839+526487596+525944996+525134973+524431173+524016654
3078+523711349+523189536+522656130+522674258+523020768+522703427+521546857
3068+520534762+520160931+519768122+518848183+517858684+517442467+517523030
3058+517356255+516363470+514915109+513988561+513963529+514213820+513992290
3048+513197885+512125534+511022169+510081185+509423648+508932554+508419085
3038+507881211+507236080+506175137+504709645+503318180+502282455+501591357
3028+501466451+502062218+502777057+502742979+501842830+500601673+499382522
3018+498136159+496752743+495404772+494416344+493903946+493731116+493687733
3008+493541191+493103929+492371515+491442715+490402042+489370379+488401888
2998+487314215+485974736+484669372+483788792+483312725+482963705+482714226
2988+482813508+483253207+483467131+482832522+481304928+479400770+477762337
2978+476775791+476290641+475730245+474772979+473705944+472894961+472389874
2968+472203678+472337297+472416642+472007477+471339860+470966361+470759120
2958+470042066+468642737+467159707+466269490+466128818+466242574+465824031
2948+464633973+463299516+462457629+462061350+461823907+461635016+461238441
2938+460224758+458610472+456940286+455721578+455015673+454595173+454357140
2928+454384425+454550609+454428251+453814798+453006252+452331805+451714513
2918+450881007+449793961+448709537+447869496+447235368+446620291+446032019
2908+445657006+445484915+445178724+444389967+443092431+441630225+440525309
2898+440114519+440203390+440171305+439623942+438884070+438575184+438748494
2888+438782794+438244255+437403846+436617157+435719445+434491359+433219298
2878+432289686+431742656+431545273+431630045+431541211+430802447+429658320
2868+428807462+428527338+428516372+428392315+428029487+427518972+426942330
2858+426245730+425408127+424577760+423870452+423221703+422548548+421839026
2848+421071167+420248812+419421288+418534837+417521118+416638470+416312600
2838+416462058+416441604+415845984+414933799+414119272+413539639+413190472
2828+412959785+412537587+411745655+410860866+410226959+409693700+408840146
2818+407664156+406639360+406052676+405671793+405191701+404618272+403987207
2808+403136312+402012160+400801020+399632489+398532889+397672727+397310267
2798+397494248+397970795+398307594+398130001+397381452+396274690+394981880
2788+393618993+392444959+391685999+391233414+390880296+390684020+390678556
2778+390444805+389467933+387853573+386271815+385199057+384507959+383790350
2768+382853797+381820583+380877716+380100257+379486325+378966912+378357262
2758+377504558+376532043+375713195+375069024+374332992+373364169+372361969
2748+371604005+371182213+371048852+371070229+370938641+370320905+369242942
2738+368084674+367142472+366458905+366003182+365691748+365334015+364797765
2728+364090790+363235243+362310283+361541649+361083784+360819610+360494220
2718+359901850+359010931+358060163+357348388+356859140+356358778+355807650
2708+355324604+354837682+354145254+353308020+352676070+352421643+352244382
2698+351723308+350813079+349783040+348865095+348196187+347860458+347742715
2688+347556704+347178922+346759567+346453819+346230517+345934554+345397455
2678+344551950+343541775+342618033+341856968+341150141+340518228+340163337
2668+340094626+339984821+339564986+338961428+338513680+338369759+338293886
2658+337850642+336862066+335649671+334686534+334084786+333610564+333124344
2648+332751066+332587430+332467841+332140309+331543767+330813051+330104193
2638+329470988+328857277+328236145+327741543+327482095+327257611+326768289
2628+326076858+325511515+325146028+324729441+324099152+323372092+322778504
2618+322504434+322560888+322641340+322309378+321484992+320546408+319858189
2608+319454230+319250496+319252749+319398921+319445849+319194339+318707601
2598+318196200+317775220+317410397+317038191+316656532+316304115+316007044
2588+315759891+315519199+315225155+314897402+314674654+314634926+314634889
2578+314492372+314229379+313921564+313468462+312794754+312107642+311650294
2568+311344214+310938114+310383810+309857455+309530440+309476110+309668232
2558+309920886+309952971+309673899+309303631+309075326+308941965+308714565
2548+308368185+308033731+307740998+307360853+306838597+306319018+305955432
2538+305722531+305502386+305260217+305065658+304991612+305028700+305085338
2528+305079153+304999273+304873001+304753615+304717986+304775510+304841950
2518+304865617+304854707+304773073+304571038+304285671+303991073+303746560
2508+303627506+303627063+303525012+303071541+302326241+301648914+301306854
2498+301196348+301026970+300714207+300447301+300381691+300426717+300383999
2488+300198080+300006106+299943616+299944908+299794841+299372937+298801225
2478+298334702+298099696+297959523+297711391+297378026+297132313+296972756
2468+296734815+296414631+296205747+296190941+296225333+296143829+295917481
2458+295596928+295234782+294872378+294519297+294158185+293832296+293676192
2448+293773628+294029181+294252354+294301164+294088348+293585457+292939624
2438+292465809+292379837+292596290+292851954+292942984+292830521+292622892
2428+292460991+292354362+292187513+291920385+291666604+291552941+291601419
2418+291730349+291807220+291755050+291628926+291530936+291496026+291525490
2408+291633356+291782723+291866369+291824296+291720750+291655952+291642753
2398+291613548+291529514+291448028+291486833+291719753+292074127+292343599
2388+292364866+292177470+291962826+291838567+291740374+291492316+291007831
2378+290466024+290267774+290708913+291642864+292596789+293326563+294049045
2368+294947661+295745906+296036849+295789843+295353227+295158908+295480902
2358+296345919+297659110+299441870+301960053+305513536+309863289+314106726
2348+317371593+319528405+321200733+322748560+323400263+322269244+319659440
2338+316607943+313776204+311202066+308698597+306182777+303739287+301487069
2328+299391140+297269550+295068469+293062776+291647017+290931735+290640091
2318+290343020+289739278+288837172+287931633+287338284+287162925+287334777
2308+287685957+287929344+287766483+287148544+286356207+285751375+285466691
2298+285363108+285252731+285101832+285015915+285085346+285260983+285373723
2288+285308094+285142353+285037422+285020863+284987467+284880875+284752941
2278+284656594+284587163+284520889+284422197+284231627+283922445+283549814
2268+283204431+282954951+282843208+282872782+282993959+283142753+283282815
2258+283392417+283445049+283431831+283390479+283384128+283430538+283471706
2248+283455424+283428563+283503994+283738465+284061270+284333696+284503480
2238+284673671+284967585+285375827+285805761+286224636+286684477+287244171
2228+287898699+288555664+289104097+289550719+290047315+290735774+291609948
2218+292574359+293584553+294677764+295909931+297290817+298751657+300213107
2208+301730160+303469888+305474805+307555725+309478584+311180910+312783862
2198+314430233+316134313+317845371+319616980+321539931+323536947+325409796
2188+327028956+328358244+329430374+330378189+331351664+332371881+333337086
2178+334143712+334760008+335193615+335410677+335346028+335000331+334448131
2168+333759026+332959821+332031132+330941575+329708431+328347020+326795980
2158+324990883+322916073+320565976+318019124+315455324+312957799+310477184
2148+307983887+305510361+303397817+302625066+304197779+307990293+312815060
2138+317670399+322325365+326890352+331521392+336372781+341409848+346407741
2128+351197876+355773460+360311679+365163215+370552293+376297701+382048241
2118+387671365+393271671+399021621+405059005+411461027+418456563+426740849
2108+437351786+451250445+469174592+491485765+517622829+545898724+574089220
2098+599900856+621265101+637405233+649442046+659165868+667612055+674625683
2088+679073334+679733492+675810424+666492149+651597308+632525600+610834046
2078+587021382+561641654+535774451+510281263+486037502+464142879+445079921
2068+428609451+414501595+402466148+391916464+382548344+374501317+367778963
2058+362189328+357583505+353699500+350276202+347418138+345349383+344052918
2048+343471329+343671813+344796593+347165520+351210910+357325017+366226631
2038+379182202+397264337+420554929+448177423+478618179+509982604+540484466
2028+568752866+593643789+614336060+630848030+644244149+656063715+666951306
2018+675846459+681203341+682714542+681153866+677309367+671648768+664278181
2008+654896106+643064799+628650456+612063535+594039330+575084405+555306350
1998+534997952+515150964+496881267+480287442+464407681+448576250+433229157
1988+419088698+406437325+395378787+385953107+377836114+370491852+363676936
1978+357503016+352092671+347352159+343055185+339159697+335959185+333663473
1968+331874954+329849434+327334741+324729257+322368600+320181253+318147131
1958+316568917+315606666+314910177+313997512+312804648+311694600+311050392
1948+311024252+311647267+312823479+313892396+313688404+311831764+309446388
1938+307842662+307244015+307117133+307005150+306763240+306411875+306044192
1928+305933113+306611898+308291370+310155302+311178584+311620573+312249643
1918+312482360+311174117+308896829+307423601+307546366+308594570+309411774
1908+309365918+308687391+307994594+307600807+307421404+307381898+307668945
1898+308530640+309766997+310677742+311071105+311790264+313250145+314252234
1888+313580851+311908709+310621511+310065804+309896149+309948282+310190968
1878+310506832+310808186+311206386+312266516+314932108+319412398+323804813
1868+324935242+322040182+317801877+314909032+313903177+313912075+314034433
1858+313950400+313792006+313771108+313977316+314556173+315792345+317885394
1848+321010586+325210161+329151653+329904078+326628098+322392525+320051732
1838+319720324+320013223+320297113+321662659+325376492+330408538+333598085
1828+333635117+332352941+330912481+328707670+325963287+324147372+323905019
1818+324484872+325005504+325577974+326972724+329279069+331287272+331705040
1808+330750580+329895180+330563609+333292300+337230026+340310913+340973397
1798+340057520+340170352+343265712+348631972+352231275+350354328+345065862
1788+341238974+340795509+342464587+344536628+346505288+348091920+348728042
1778+348990666+350939351+356211904+363903745+369820211+370112409+366041654
1768+361055539+357247297+356145704+358398992+362071400+364080342+364300505
1758+364594327+365081840+365516075+367755001+373538808+381072772+385764475
1748+385635840+383152825+381305083+381394286+383272229+385543425+386566966
1738+387305472+391152297+398939396+404926493+403017425+396592807+390871398
1728+387129171+385620333+386446934+388796662+392458140+399192051+410427037
1718+423136082+429454771+426106831+418670081+412757935+410557592+412641780
1708+418638181+426456811+433138699+438760493+446538362+456996407+464898480
1698+466691504+464497622+459413812+453105571+449838710+451593336+456946304
1688+464700174+476087757+490368259+498839663+495242170+487429004+483534993
1678+485590677+492201638+499744538+505371649+510468898+516791465+521406297
1668+520735210+518146968+519236820+524545999+529814233+531652153+532182495
1658+535829131+545496759+561689615+578422192+582136284+575652075+573580735
1648+577748816+579978031+573912402+564870338+559901022+560587505+566460662
1638+576728967+587517387+590355846+583124528+574955696+572415822+575401303
1628+580775095+586062232+590892169+594463227+595194828+594882952+597918535
1618+605342990+611926814+611883136+607960954+605733732+606485566+608559453
1608+610254709+611288218+612396273+614066606+615815989+616855480+617381834
1598+618427122+620266150+621901703+622570649+622836854+623502846+624443534
1588+625184772+625805351+626652406+627721361+629001285+631371283+636375047
1578+644164250+650935525+651568583+648672009+649134858+654310086+659494544
1568+660469201+659346341+659864573+663588117+672486519+689768120+713108630
1558+725933055+721633682+715038966+713876378+717785121+725050112+733882720
1548+743070883+753315004+765941972+780560491+795255069+805390567+802914973
1538+790616682+781345371+779573355+780941744+779480313+775661511+774554675
1528+777987425+783642781+789389112+795894551+802972423+807162656+807037935
1518+805168225+802524933+798684569+795573481+796374754+802860994+814946469
1508+828898406+833525274+822261673+807566505+799808906+799589666+804306770
1498+809755956+810939958+807225497+803955793+805617266+811579071+816865285
1488+816813374+812082830+806601300+803253027+802679635+804038793+806680903
1478+811014688+817474344+825148426+831002125+830752757+824298786+817823623
1468+816455455+819838951+823127264+822233022+819823518+821652467+829983975
1458+840912328+844480579+836959057+826811818+820486187+818856541+820343005
1448+822160361+822170994+820791750+819676423+819668226+821376589+825899190
1438+832888746+838315926+838213137+834920246+832640042+831622482+829762519
1428+826807388+824916189+825389967+827514732+830492090+834046164+836109048
1418+833350635+826702235+820555526+816936987+815103829+813915323+813190552
1408+813470122+814723611+815593853+814985532+814064117+814824407+817677487
1398+821655347+825573542+827650382+826070433+822143820+819742438+820482938
1388+821899399+820701440+817557344+816164513+818383945+823093665+828537682
1378+834240519+840398969+846038080+849182177+849760221+850242048+852134576
1368+854401119+856004108+857776567+860416609+862424701+861741061+858636323
1358+855200472+852876922+851681031+851056243+850643165+850190653+849395214
1348+848221993+847055123+846444809+846966511+849020534+852223040+855059210
1338+855916899+854871279+853701307+853965371+855513789+856949080+857446487
1328+857733442+859083518+861884612+865490524+868986852+871738841+873605893
1318+875027523+876557259+878166597+879536463+880908765+882821969+885078175
1308+886792002+887455188+887390058+887297975+887777513+889019999+890663306
1298+892159443+893295890+894007443+893931606+892780760+890897537+888748034
1288+886177848+882819532+878938407+875329320+872669192+871119149+870124629
1278+868713632+866513769+864279717+863004888+862898110+863482653+864298990
1268+865235617+866348139+867586416+868762886+869775498+870744985+871765720
1258+872540852+872533246+871650820+870524859+869812198+869465209+869139929
1248+868970311+869291160+869957817+870531283+870907219+871305529+871868215
1238+872609748+873570965+874869424+876739947+879444454+882918113+886500026
1228+889216939+890500851+890543606+890085335+890022938+890892884+892452453
1218+894028193+895494129+897440341+900169069+903077088+905308261+906692452
1208+907833847+909454262+911873883+914986300+918438249+921862359+925134721
1198+928342027+931237050+932969781+933037273+932426221+932938767+935379876
1188+939040357+942706673+945464052+946922825+947710141+949129703+951475628
1178+953628896+955127101+957293144+961124721+965527844+968711003+970224937
1168+970844777+971224552+971588304+972271132+973881727+977059348+981615696
1158+985702474+987199572+986421116+985711335+986278673+987481062+988855579
1148+990805853+993518409+996509133+998949504+1000076277+999949636+999476523
1138+999366570+1000165332+1002471456+1005606026+1007351163+1006630970
1130+1005081001+1004864050+1006424209+1008615137+1010057960+1010506852
1121+1011114213+1012955050+1015570282+1017832911+1019732307+1021901451
1113+1023949640+1024938918+1025230820+1026279541+1028612544+1031163014
1104+1032625110+1032647854+1031865559+1031884315+1034567334+1039843505
1095+1045155491+1048123693+1048501991+1046907716+1043622727+1039882125
1087+1038352759+1040401982+1044070217+1045658142+1043369740+1039475840
1078+1038438195+1042253748+1047946764+1050866377+1050511487+1050607557
1070+1053748773+1058906426+1063960034+1067947937+1070061920+1069112666
1061+1065657025+1062789472+1063272702+1066879204+1071167796+1073741823
1053+1073356066+1070093156+1065451593+1062202049+1062236903+1063957745
1044+1063669240+1060864231+1059251052+1061352556+1065185462+1067170589
1035+1066401217+1064630457+1063581883+1063426517+1063182834+1062133079
1027+1060509415+1059268184+1059984685+1063691171+1068242719+1068875260
1018+1063948219+1057453487+1053609948+1052602136+1053248116+1056315563
1010+1061825596+1066123123+1065819185+1062448094+1059786785+1059221884
1001+1059962089+1060823248+1060303244+1057516328+1053712221+1050813062
993+1049072135+1047623109+1046438886+1046416954+1047930666+1050191819
984+1051641509+1050432253+1045382263+1037939089+1032167134+1031195579
975+1034114528+1036713587+1035395781+1030137849+1023701232+1018686834
967+1015686954+1014019796+1013258472+1013097642+1012311138+1009359624
958+1004178563+998202136+992597880+987758491+984276193+982859215+983187891
948+983863778+983501503+981341590+977637466+973971594+972012238+971808874
938+972007069+971479164+969970916+967647661+965219401+964135013+965264150
928+967292475+967738045+966012551+964129770+963972780+965211574+966302607
918+966584614+966577008+966718049+966685853+965778394+963617815+960728183
908+958641226+958914224+961434936+964059250+964661885+963209167+960956728
898+958534449+955768799+952605577+949815707+948934831+950801292+953866228
888+955149550+953422283+950305656+948208731+948227044+949492938+949835792
878+947894159+944891989+943172624+943381526+944151120+944123133+943626243
868+943997231+945380979+946360657+946363463+946850385+948860176+951043424
858+951524291+950190756+948166271+946471569+945583235+945317695+945312674
848+945808309+947016089+948106606+948038744+946897718+945288822+943215010
838+940737865+938907218+938779912+939863119+940697916+940916492+941405186
828+942438844+943299929+943874134+944932381+946953618+949989017+953607186
818+956334216+956620654+954733222+952597750+951804009+952499095+953901895
808+955277372+956381845+957327555+958252885+958881364+958731315+957864765
798+956692947+954974910+952655864+951307044+952634524+956156771+959794140
788+962019110+962391575+961655949+961892469+964480895+968098105+969931484
778+968613752+965011237+960639497+957081805+955884807+956972296+958229476
768+958085334+957413435+957461359+957654238+957169457+956835316+957659628
758+959049653+960142311+961386274+963428260+965337402+965095861+962314261
748+959335500+958533636+959762904+961072145+961066016+960190900+959843984
738+960631227+961844323+962350592+961814343+960756022+959610049+958535039
728+958013263+958734121+960588693+962843496+965392342+968375607+969989303
718+967193821+960637503+955334822+954667427+957236063+960254257+962459880
708+962518733+958774735+952558613+948124549+947914466+950269104+952026056
698+951413526+948368749+943902342+939768304+937319515+935956517+933888021
688+930577187+927126124+924261008+922040173+921239713+922493201+924511632
678+924918581+922800832+919177936+914689081+908558692+900312177+892050746
668+889537345+896018711+904348890+907475707+905624901+901895966+898680020
658+896770140+895571073+893665032+890299997+886374344+883462263+882129393
648+881691872+881055639+880008616+879737169+881335874+884168869+886219126
638+886117665+884062461+880860103+877267261+874115928+872388588+872210995
628+871567451+867604950+860904048+855615028+853828318+853736014+853766732
618+855205346+859525691+865238497+869155363+870063782+868908209+865412989
608+857917681+848866940+844901338+847763575+850276755+846415862+840378515
##END=
