##TITLE=<SNM>
##JCAMP-DX=4.24
##DATA TYPE=INFRARED SPECTRUM
##DATE=2/5/2025
##SAMPLING PROCEDURE=Instrument type and / or accessory
##ORIGIN=Admin
##XUNITS=1/CM
##YUNITS=ABSORBANCE
##RESOLUTION=4
##FIRSTX=4497.3318
##LASTX=599.83466
##DELTAX=-1.4281778
##MAXY=1.7258472
##MINY=0.20048277
##XFACTOR=1
##YFACTOR=1.6073205e-09
##NPOINTS=2730
##FIRSTY=0.22571574
##XYDATA=(X++(Y..Y))
4497+140429828+139901383+139863790+139676167+138634573+137244684+136665907
4487+137156778+137892167+138331733+138881538+139863873+140661367+140555930
4477+139938336+139897545+140797851+141992849+142781749+142841091+141934508
4467+140117541+138132763+136947091+136974421+137920155+139099031+139924634
4457+140304283+140415291+140204872+139529373+138594838+137821134+137468342
4447+137567123+137877815+137906036+137379880+136701646+136564012+137105863
4437+137718960+137783021+137359392+136913568+136606973+136283811+135982454
4427+135851921+135666162+135047660+134075718+133179759+132499801+131788359
4417+130979870+130546636+131109745+132718638+134586474+135643995+135448882
4407+134443630+133331290+132480184+131914238+131486316+130977228+130349168
4397+129920374+129959219+130180782+130104159+129898365+130246410+131184838
4387+131756810+131232898+130015391+128806904+127660234+126469102+125615224
4377+125464518+125818551+126346579+127025879+127777223+128198535+128097761
4367+127937524+128292300+128954087+128969551+127752210+125921142+124731048
4357+124782928+125578567+126293328+126604002+126678706+126837274+127357450
4347+128125759+128454483+127820925+126633798+125703788+125344989+125436770
4337+125783786+126081555+126080322+125950224+126100968+126723262+127652975
4327+128412125+128435339+127614149+126500790+125805108+125898095+126705916
4317+127776008+128552819+128800136+128682953+128449254+128277225+128383320
4307+128915826+129661450+130082521+129812499+129110513+128715994+129124846
4297+129979541+130363667+129860494+129128666+129159788+130098476+131058959
4287+131107390+130230455+129173889+128514289+128215046+128002772+127817495
4277+127838354+128251239+128986813+129670452+129976388+129986596+130027637
4267+130269207+130618726+130820208+130587650+129892404+129164507+128940765
4257+129263371+129699126+129980968+130279535+130753338+131252450+131624738
4247+131937860+132264053+132570129+132827755+133010548+133097805+133156063
4237+133160828+132809715+131906209+130832344+130266704+130527937+131376401
4227+132284653+132771148+132619978+131991529+131419065+131482042+132167933
4217+132733536+132624929+132245975+132339814+132982411+133632054+133801126
4207+133417991+132932173+133070206+133994607+134897844+134987057+134532963
4197+134313291+134400697+134205259+133460294+132570231+132086832+132202106
4187+132688554+133151158+133369124+133421477+133466551+133541543+133649854
4177+133805826+133981675+134242741+134764733+135478929+136067124+136532167
4167+137189393+137888922+138003611+137392359+136638614+136253514+136327069
4157+136802578+137381614+137457301+136825690+136108917+135952139+136272612
4147+136684171+137104370+137551631+137782966+137501393+136764873+136006799
4137+135620902+135566927+135542350+135547486+135935331+136757318+137447094
4127+137442866+136842498+136179691+135792662+135616192+135419614+135088544
4117+134713104+134504196+134682455+135365760+136392113+137323412+137854694
4107+138095735+138222309+138191549+138063250+138069805+138154976+138081616
4097+138005224+138235492+138581498+138634731+138436725+138297097+138315398
4087+138457417+138730785+139034553+139105669+138797248+138307684+138018046
4077+138093566+138320636+138388118+138235474+138057215+138066875+138308732
4067+138624672+138769037+138625664+138367212+138344258+138741122+139337884
4057+139709792+139676306+139455911+139415926+139776134+140446896+141022492
4047+141128523+140878294+140689207+140603099+140257725+139604661+139065221
4037+138831513+138607104+138258948+138233026+139003199+140339827+141425671
4027+141694635+141333519+140894166+140728274+140953990+141551197+142209453
4017+142439582+142067544+141384443+140804601+140591390+140779949+141179243
4007+141550901+141839723+142163330+142652124+143335791+144049096+144444793
3997+144238221+143483540+142563996+141925358+141816750+142211177+142902603
3987+143683094+144435717+145023987+145176946+144726347+143995168+143643489
3977+143999423+144769114+145443129+145757465+145753961+145608604+145438299
3967+145252086+145130453+145297772+145844045+146556229+147170911+147583240
3957+147732138+147556466+147167157+146904097+147103197+147707877+148205979
3947+148289444+148381994+148948209+149619295+149688140+149191030+148736241
3937+148682489+149117160+150078969+151261239+151876181+151417452+150417994
3927+149949614+150451387+151247314+151470314+151381129+152004915+153521879
3917+154731710+154432717+152831519+151053702+149912614+149633053+150403661
3907+152666044+156480685+160736691+163710785+164675617+163854984+161375932
3897+157998929+155675627+155905673+158080679+159776495+159541128+158999898
3887+160056826+161861778+162434807+162233612+162788859+163178196+161796845
3878+159957016+159855816+161440142+163509312+165728670+167684959+168095693
3868+167135107+166583234+166925716+166822403+165443240+163748814+163216818
3858+164955558+169687880+176545868+180610969+177453295+170722799+165288399
3848+162791696+163175674+165489909+168384738+171207662+174225310+177126443
3838+178303966+177031751+174834977+173202573+172158773+171268701+170602074
3828+170348685+170679282+172413238+176233942+180430949+181677761+180263370
3818+179214582+178440080+175847795+172206462+170208621+171137519+174552088
3808+178593029+181160710+182718892+185114691+187494805+187253967+185211404
3798+184190299+184253804+183817798+182871971+182720801+183962682+186257986
3788+189120608+192121735+194833466+197418890+200857823+205636480+210595380
3778+214334056+217455203+221852404+228747827+237947140+247834328+256524413
3768+263845682+270772719+277639533+284865702+293686803+304511863+315952208
3758+326894470+338541572+352860707+370556049+390443343+409165111+423881593
3748+436079493+448295193+459492216+466569441+471108688+477601963+487436771
3738+498766478+508876480+516405527+521253752+523794176+524723000+524552083
3728+523740887+523242674+523906056+525507866+527093657+527841700+527576666
3718+527139603+528159392+532010783+538626432+545581504+549117353+548129085
3708+545015132+542792882+543522643+547436185+552497639+556087704+557683173
3698+558664432+560459261+563905777+569363873+576444880+583230444+586860448
3688+586680780+584797026+583187576+583120938+585367514+589305272+593165970
3678+595154930+593255378+587405090+582561018+582636000+584744034+582816966
3668+576640383+571498681+570222461+571466789+572462585+572235673+572239196
3658+573799213+576469132+579684990+584281161+590836809+597709668+601100856
3648+598611643+592344577+586321851+583137959+582927511+584364598+586550618
3638+589256396+591811839+593572662+595496948+599619714+606511856+613319485
3628+616142483+616102619+616702106+618794454+621823635+625496433+628987152
3618+631196126+633091376+636676509+642042676+647124711+649808202+649710822
3608+648731898+649794778+653661150+657976007+660166217+660552031+661852763
3598+665712164+670680205+673670374+673633365+673107154+674874986+678358808
3588+679801346+677446783+675137906+676817554+681744359+685753205+685987126
3578+683602006+681292092+680471291+681489745+684382979+688163764+690956725
3568+691696461+690997145+689772657+687563683+683770068+679537610+677113849
3558+677761174+680652999+683668608+685062418+685134212+686338008+690223218
3548+694406949+694624331+690111598+683970762+678692260+674776790+672331521
3538+671415194+671779723+673687729+677823400+683136983+686258427+685096980
3528+681639191+679186802+678441874+677827108+676744278+676624870+678315791
3518+680482713+681121880+679351378+675634154+671575987+669566150+671070914
3508+674869349+677755612+677374693+674634242+672819240+673506541+674493845
3498+673077636+670245812+669496582+672205661+676058757+677867752+676984503
3488+675470172+675278229+676332580+677378253+677643472+677449749+677522803
3478+677934279+677884365+676699778+674876099+673673563+673750622+674517059
3468+674976149+675129525+675928002+677339464+677698800+675920585+672970391
3458+670529573+669759873+671180457+674013987+676030945+675506810+673045596
3448+670752146+670184476+671407481+673520632+675554499+676705711+676303061
3438+674226697+671322115+669030594+668296865+668824560+669726053+670498497
3428+670892024+670468979+669044982+667414136+666833190+667518414+668310660
3418+668251846+667768206+667602964+667623804+667693595+668565274+670566211
3408+672083063+670994745+667434012+663538196+661137501+660529336+660734333
3398+660622638+659971975+659350979+659054314+658913397+658878317+659129444
3388+659583269+659756299+659496642+659230236+659469349+660196700+660826892
3378+661374092+662952948+665720693+667368894+665759704+662159145+659574295
3368+659029987+659198642+658779749+658229953+659317530+663035199+668103513
3358+672263510+674671102+675676800+675106830+672809598+670155551+668895463
3348+668854004+668495335+667485558+666992129+667671790+668564977+668091721
3338+665837431+663371321+662551189+663152234+663583882+663400098+663104990
3328+662413906+660933173+659620204+659904187+662049378+664880312+666385373
3318+665070920+661724900+659213178+659652763+662189701+663998399+663571348
3308+662292496+662262829+663721832+665381678+666297782+666345323+665580889
3298+664323471+663413151+663522621+664344385+664749334+664043863+663046398
3288+663477602+666043465+669350622+671357864+671772232+671761403+671641476
3278+670670934+669024661+668258076+669634828+672992864+676598986+677878431
3268+675655366+671631093+668480650+667256754+667358437+667678020+667305927
3258+666106507+665047113+665380491+667146024+668830567+668891087+667409908
3248+665503014+663708556+662121171+661401312+662200900+663947372+665288970
3238+665621532+665683609+666399242+667441281+667514260+665950164+663527887
3228+661887324+662303547+664343644+665754290+664816529+662424809+660606173
3218+659976944+659782925+659457705+659270509+659670563+660335984+660454651
3208+659592243+658150224+657115676+656993450+657183019+656733051+655659937
3198+654887567+654574881+653723598+652179527+651351606+652057745+653431976
3188+654660099+655698503+655643843+653062998+648723295+645430007+644687452
3178+645355841+645585312+644799295+643621013+642693783+642109352+641862674
3168+642202727+643048670+643608330+643204716+642009969+640591535+639244820
3158+638031531+637048677+636262586+635320524+633898530+632148053+630583363
3148+629608000+629218106+628946805+628248306+627231335+626579486+626571179
3138+626673084+626370188+625874014+625553764+625253167+624667326+623834436
3128+622892745+621936034+621366362+621622644+622271452+622280278+621315521
3118+619876728+618462225+617429272+617016498+616995324+616922715+616557482
3108+615559201+613738006+611943660+611457091+612420105+613856154+614832666
3098+614803371+613599130+611723534+609957074+608583919+607546589+607000427
3088+607162518+607841475+608426871+608417192+607986100+607786370+608048177
3078+608237524+607670744+606121518+603884434+601650837+600272453+600167396
3068+600794956+600990830+600132353+598759531+597605909+596461224+594802342
3058+593039405+592100977+592207665+592938242+593898920+594525182+594077254
3048+592636385+591290597+590847415+591034129+591017145+590237062+588873994
3038+587611235+586752907+586029932+585383312+585025199+584658631+583659831
3028+582157367+581012756+580582738+580201708+579216963+578114330+577924649
3018+578517350+578481157+577077853+575146225+573714293+572888560+572296526
3008+571742095+571196860+570582243+569830269+569064129+568448325+567884400
2998+567159794+566267237+565314606+564492545+564172035+564331492+564124012
2988+562948770+561437776+560437641+559898192+559509040+559345206+559307567
2978+558837908+557575891+555832163+554254679+553249909+552745466+552451767
2968+552297278+552361284+552406117+551936421+550830673+549525306+548505146
2958+547883372+547461587+546954696+546155033+545093118+544017963+543153034
2948+542504671+541862315+540994345+539987238+539197291+538634961+537855212
2938+536761998+535859615+535427706+535188779+534944400+534817019+534766178
2928+534417373+533436707+531867901+530113456+528612846+527550671+526899081
2918+526549683+526204883+525454281+524274441+523196876+522783621+523059557
2908+523528883+523597079+522908851+521482370+519687467+518049427+516954507
2898+516404600+515993606+515321176+514501080+513968973+513718068+513155292
2888+511900284+510316867+509029374+508241615+507739731+507295214+506785468
2878+506082147+505122211+504042977+503123387+502552639+502202351+501715300
2868+500957429+500180017+499535658+498877950+498223579+497857976+497819261
2858+497776059+497451692+496810893+496010600+495365463+495060935+494798868
2848+493977512+492346888+490420488+489036393+488355545+487631606+486278550
2838+484683600+483625764+483447134+483922541+484380964+484047622+482693343
2828+480788933+478983907+477761309+477369970+477632927+477960409+477822200
2818+477148472+476216162+475240428+474174137+472934333+471651995+470470560
2808+469314230+468182413+467398993+467172525+467112599+466593285+465528551
2798+464441234+463769248+463400938+462997324+462524846+462151974+461686061
2788+460559064+458616570+456625311+455625473+455873449+456631727+456871989
2778+456031943+454263962+452230280+450630658+449714257+449220086+448837313
2768+448530375+448236416+447579820+446307420+444752112+443438550+442493632
2758+441741213+441045977+440350258+439609409+438767916+437765779+436720922
2748+435994832+435737326+435521909+434817958+433650059+432438401+431384459
2738+430362816+429322520+428484142+428051566+427916249+427793318+427523983
2728+427082358+426398321+425369484+424044426+422673495+421555695+420885490
2718+420668071+420616414+420208610+419109834+417521262+415962357+414845484
2708+414338185+414290941+414153177+413406729+412242055+411347682+410956046
2698+410599936+409887826+409019374+408362964+407922711+407449900+406827161
2688+406117574+405386663+404666803+404027155+403518484+403029653+402323773
2678+401312513+400205134+399265741+398520072+397852203+397238178+396681040
2668+396092937+395452398+394907274+394556949+394283868+393929983+393517135
2658+393167885+392852196+392338704+391471661+390429140+389602926+389227903
2648+389167235+389049199+388594892+387798307+386819643+385826109+384952057
2638+384218773+383468876+382587816+381758115+381267319+381148727+381209358
2628+381247553+381061433+380460536+379490327+378476027+377665943+376998297
2618+376367548+375913909+375800619+375847938+375647391+374982600+374000451
2608+373034692+372334190+371894049+371515800+371058564+370552452+370044374
2598+369484380+368873137+368387606+368170336+368062794+367783113+367364888
2588+367133563+367155738+367004291+366275457+365151056+364208697+363777011
2578+363695798+363637800+363426982+363029376+362457144+361774368+361085732
2568+360487802+360054410+359781255+359533354+359192373+358833927+358591514
2558+358412587+358158975+357881036+357751727+357756844+357667066+357310881
2548+356720219+356050348+355470922+355050472+354691321+354288375+353917988
2538+353681582+353450182+353015122+352426871+351958806+351759929+351689063
2528+351502274+351152654+350861513+350856544+351066361+351152431+350851315
2518+350237106+349638285+349338319+349369543+349538532+349583328+349368097
2508+349008686+348759969+348728560+348782256+348768906+348686210+348567285
2498+348331361+347862369+347190050+346506272+345986254+345640527+345375085
2488+345158000+345064217+345133377+345225751+345094847+344638316+344026220
2478+343534459+343288560+343185209+343013551+342657181+342224753+341954379
2468+341968768+342170723+342350725+342308079+341926641+341284805+340670113
2458+340351234+340317080+340304138+340068252+339573821+338967733+338479272
2448+338330865+338588186+339028141+339255499+339025991+338433957+337786372
2438+337329432+337098886+337013001+337030467+337129813+337210247+337168454
2428+337046450+336980702+337007810+336986895+336749154+336348618+336067750
2418+336055586+336116588+336046353+335980975+336150705+336444330+336507000
2408+336208295+335789366+335543022+335511983+335540723+335506272+335418793
2398+335343625+335292376+335216838+335112448+335081373+335205416+335342661
2388+335144748+334314973+332768825+330480233+327261334+322842607+317172321
2378+310553315+303539299+296760910+290675570+285294477+280241683+275197843
2368+270216360+265665060+262025340+259655536+258656365+259083527+261212012
2358+265323115+271319289+279035031+288801291+300527399+312094254+320124814
2348+322473888+319743301+315098329+311799368+310145826+308234909+305074731
2338+301320665+297814631+294638822+291596847+289013054+287570294+287423982
2328+287935953+288338900+288361984+288321600+288875958+290534097+293190462
2318+296204736+298962357+301266116+303246657+305106011+307014221+309093404
2308+311336309+313538238+315393289+316706147+317531731+318125582+318752956
2298+319535339+320455337+321430069+322337496+323065625+323605298+324034277
2288+324417013+324810614+325285613+325807226+326204054+326357875+326290903
2278+326051716+325714481+325435875+325281534+325113844+324852481+324645223
2268+324608214+324645371+324675817+324797746+325082434+325387407+325522872
2258+325523577+325612725+325894891+326220111+326404378+326449100+326470608
2248+326537173+326652316+326804728+326972456+327127464+327273423+327461138
2238+327752909+328191048+328793168+329512620+330198586+330700952+331039708
2228+331379168+331842412+332448685+333208484+334152438+335239978+336327221
2218+337292312+338159874+339067116+340167820+341585438+343338993+345275628
2208+347194611+349042617+350898040+352841498+354921126+357133586+359363512
2198+361429419+363257141+364989150+366868825+368983497+371177267+373227228
2188+375011006+376543026+377962535+379387495+380745632+381925138+382991504
2178+384010440+384860425+385449529+385839756+386005963+385807197+385297006
2168+384747135+384253558+383561251+382412041+380860553+379083561+377118780
2158+374950968+372601560+370049937+367270622+364283605+361113656+357893014
2148+354817738+351856271+349112334+347565852+348461634+351792525+356241141
2138+360611326+364618837+368510241+372587617+376959730+381473835+385980079
2128+390537275+395253187+400148471+405209850+410441442+415926942+421797293
2118+428016188+434356977+440650298+446845720+452865665+458634815+464236015
2108+469962075+476295372+483855086+493285019+505147687+519757332+536710267
2098+554386510+570420597+583226625+592718821+599392765+603608387+605742898
2088+606030108+604301361+600127717+592752270+581366307+566110857+548123523
2078+528668322+508990363+490275010+473145930+457810306+444503543+433200314
2068+423486657+415086117+407908657+401745201+396502521+392269210+388883585
2058+386033998+383640052+381607595+379681306+377842237+376304803+375124444
2048+374191504+373386575+372675244+372293547+372601078+373690101+375608565
2038+378854906+384184434+392149913+403048231+417005620+434021262+453919088
2028+475894725+498164061+518603376+535714471+548885583+558383638+565198091
2018+570226948+573580608+574900623+574090465+571459521+567191834+561003198
2008+552676565+542635130+531472890+519294867+506034718+492082670+478200597
1998+465033490+452898187+441829582+431638590+422052648+412963028+404478569
1988+396749347+389927775+384197117+379558301+375693338+372267922+369216083
1978+366580281+364298141+362268057+360441596+358828883+357507682+356506954
1968+355605275+354460219+353032366+351641707+350547566+349735518+349131580
1958+348742058+348501276+348219333+347782455+347268333+346831381+346575581
1948+346576842+346969071+347804482+348677904+348817745+347981406+346856487
1938+346145972+345825053+345527609+345143871+344820357+344670467+344664348
1928+344779677+345176134+345953769+346773568+347230248+347519201+347968390
1918+348156291+347451598+346193550+345345790+345332291+345774249+346015476
1908+345761122+345307371+345090991+345126962+345129780+345025539+345027616
1898+345298657+345738427+346099173+346350449+346803013+347566705+348114609
1888+347902530+347175328+346590266+346463553+346695360+346998923+347107725
1878+347023992+347010197+347305787+348142162+349886558+352549468+355017209
1868+355579279+353955219+351716504+350330073+350008042+350203916+350449444
1858+350638087+350835406+351039513+351147981+351173754+351389615+352202257
1848+353980176+356713804+359308926+359811774+357823965+355383183+354289339
1838+354541987+355127828+355511380+356308521+358303228+360965174+362643154
1828+362755330+362305362+361794800+360767743+359332177+358347877+358204105
1818+358529102+358946066+359586865+360764220+362325239+363551878+363884218
1808+363581990+363416747+364008892+365539466+367653544+369515196+370397332
1798+370528607+371056561+372950328+375824909+377680294+376909853+374691868
1788+373298428+373483993+374586440+375888025+377218645+378419252+379217135
1778+379917229+381478619+384612338+388780531+391895559+392205612+390477645
1768+388413110+387000795+387031500+388887775+391516754+393169554+393693726
1758+394155709+394841378+395770646+397797876+401497967+405668978+408117918
1748+408283680+407546242+407281913+408089475+409913043+412011324+413552688
1738+415155685+418619334+424165984+428498493+428463598+426046698+424083993
1728+423231932+423589785+425201979+427631895+430786232+435633345+442901103
1718+450969154+455884055+455942572+453753549+452247042+452804700+455832101
1708+461036177+467156505+472555861+477399822+483721142+492064684+499370564
1698+503135588+504538780+504568595+503971147+504750117+508058424+513320090
1688+520030932+528955866+539666765+547378261+548679067+547708784+548865299
1678+553203296+559923890+567158459+573428492+579373232+585939634+591708933
1668+594629497+596051825+598938829+604005622+609356770+613006799+615484478
1658+618945383+625229434+634787341+644279908+646755584+643997556+643528675
1648+646259040+648269396+646572838+643380713+641869794+642935047+646520996
1638+652092455+657199410+657576176+652955679+648108826+645881162+646022968
1628+647353811+649083670+650797731+651534204+650527914+649263746+650092260
1618+652891006+654441456+652516762+649558854+648446283+649317813+650732020
1608+651461892+651494154+651528271+651870178+652176931+652110478+651877447
1598+651998783+652706924+653693190+654421653+654647194+654594535+654646971
1588+654912635+655178300+655265594+655192169+655115555+655628193+657771975
1578+661797880+665554856+666014095+664389256+664455116+667128224+670034140
1568+670752888+669967984+669727759+671513094+676780768+686638233+698197300
1558+702360264+697882019+692783741+690123464+689396039+690191401+692483070
1548+696409518+702317025+710146261+718970216+727642205+734341588+735723755
1538+732560481+730463795+731924058+735154156+737255144+738123337+739915570
1528+743505820+748057787+752905975+758348830+764068474+768434061+770641181
1518+771345318+770935103+770081669+770411636+773034236+777983513+784972813
1508+792386716+795022370+789817812+782783122+779250944+779825067+783332103
1498+787480678+789421541+788647094+787874354+789537315+793486902+797209391
1488+798070760+796157488+793660303+792443750+792965289+794574108+796831142
1478+800336324+805617644+811575437+815531550+815254464+811713460+808379529
1468+807608272+809335906+811384087+811443272+810525462+811927134+817061160
1458+823202069+824655065+820544907+815946512+813562801+813096739+813567993
1448+813853386+813294170+812547166+812769517+814239867+816590796+819649050
1438+822893685+824514148+823366125+821403161+820941549+821947988+822876108
1428+822964662+823064045+824007369+825518585+827067997+828683120+830115200
1418+830199527+828450089+826057701+824348460+823530108+822783696+821510703
1408+820204928+819382273+818596109+817633280+817505639+819019303+821652287
1398+824400303+826630934+827846893+827919724+827650648+827769908+827802986
1388+826701392+824475433+822848814+823687044+827321646+832694784+838491784
1378+843942723+848727647+852555749+855246880+857131598+858824522+860508249
1368+861979786+863300765+864615143+865334855+864571385+862650177+861009911
1358+860357098+859886660+858412379+856034973+854168870+853708445+853994727
1348+853969436+853521619+853171109+853273087+853971958+855165371+856303900
1338+856866156+856990534+857028062+856925045+856678812+856829963+857893214
1328+859616546+861253251+862486047+863781364+865642423+867711964+869132401
1318+869785956+870398793+871339743+872224178+872723912+873059367+873784418
1308+875452571+878129387+881017281+882981728+883483539+882741948+881449004
1298+880569167+880703557+881396123+881592887+880788255+879094070+876412136
1288+872495924+867705141+862863628+858607140+855428291+853747085+853344065
1278+853205893+852403189+850842504+849121768+848014091+847871173+848141064
1268+847907143+847203007+847104069+848253056+850037501+851510150+852393251
1258+852793527+852641115+852112308+852160590+853761474+856788801+860179024
1248+862905680+864269453+863797236+861806237+859784014+859417780+861300273
1238+864732994+868539811+872017847+875172370+878059522+880325085+881832000
1228+883267418+885415353+888126360+890561097+892242376+893480437+894842727
1218+896410384+897686937+898401754+899201120+901077086+904181027+907658248
1208+910635884+912943870+914937242+917041939+919575688+922643065+925978924
1198+929075745+931554759+933280836+934178102+934375830+934632520+936069940
1188+939169505+943303396+947271896+949998626+950995275+950906794+951334957
1178+953296660+956045863+958087592+959141646+960187690+961775742+963593266
1168+965793118+969225319+973640894+977026075+977928310+977472705+977858742
1158+979646079+981520563+982277283+982161509+982458472+984313820+987574846
1148+990483358+991037827+989362851+988182566+990056530+994552502+998747728
1138+1000614127+1001056085+1002167396+1004594939+1007195215+1008816272
1130+1009658729+1010396685+1010870015+1010613177+1010064568+1010367908
1121+1012284518+1015543245+1018946299+1021354855+1022807554+1024029817
1113+1024798108+1024187124+1022455263+1021271566+1022242405+1025880642
1104+1031352496+1036727859+1040198627+1041471991+1041192903+1039537952
1095+1036731419+1034075740+1033170093+1034588675+1038042237+1042688989
1087+1046211896+1045834537+1041966682+1038182857+1036788082+1037079927
1078+1038465950+1042368219+1049199322+1055963007+1058892360+1057346805
1070+1053562016+1049981111+1048376371+1049532403+1052255722+1053873145
1061+1052574415+1049237814+1046790172+1047645163+1051528891+1055971240
1053+1059316444+1062130320+1065111219+1067821781+1069930631+1071698611
1044+1073089529+1073741823+1073283548+1071430351+1069280339+1068805451
1035+1069941236+1070617709+1069909864+1068580578+1067023750+1065250059
1027+1063857435+1063061332+1062336206+1062261892+1064184509+1067120018
1018+1067733894+1064605626+1060189977+1057373060+1056200043+1054834861
1010+1052411472+1049904867+1048635508+1048989727+1050423959+1052072457
1001+1053435859+1054288328+1054102616+1052250085+1049084586+1046121487
993+1044352320+1043359380+1042309331+1040715864+1038196281+1034941930
984+1032460913+1032144371+1033105123+1033045197+1031159069+1028525418
975+1025937972+1023136186+1019874122+1016263030+1012213689+1007544539
967+1002747971+998780584+995940527+993413750+990218584+986465909+983284241
957+981615199+981170349+980597190+978685327+975239182+970990185+967122997
947+964703390+963945186+964151814+964437280+964096040+962865470+961206960
937+959905190+959376828+959530501+959910233+959910752+959476953+959540142
927+961040159+963499000+965018300+964051466+961286614+959238433+959732530
917+962224894+964512114+964573672+961957673+957865908+953785788+950460238
907+948335072+947840975+948461600+948622615+947492986+946076703+945780630
897+946661950+947699984+948376976+949146156+950234698+950974657+950680067
887+949296492+946795747+943292197+940010553+938661836+939738288+942011194
877+943556155+943256078+941388492+938948563+937040408+936776450+938596643
867+941226957+942297328+940644973+937461971+935063946+935084416+937440907
857+940349049+941766073+941376106+940706086+941239862+943134741+945653954
847+947963720+949101360+948063623+944751496+940436269+936939764+935301501
837+935155764+935328943+935270796+935568056+936734694+938388236+939848277
827+940845593+941555663+942386179+943505425+944537304+945356917+946855080
817+949763963+953065780+954842883+954473682+952980563+951637927+950955670
807+950814828+950987042+951204499+950931640+949447346+946698960+943876109
797+942462052+942828656+944191984+945930224+948459746+952429209+957049706
787+959792531+958568784+953972391+948821604+945954180+945969458+946831495
777+946224294+944123455+942785937+944513793+949554295+955351443+958280128
767+957612704+956120697+956043935+957186395+958408214+958705844+957147903
757+953526651+949258296+946517623+946588897+948987440+951934000+953945320
747+954558603+953880870+952948746+953922255+957744498+962044225+963474303
737+961622885+958743446+956938457+956950101+958341019+959797129+960204526
727+959606151+958184750+955463953+951981615+950295663+952116672+955739778
717+958117555+958217680+956525053+953232061+949378742+947314541+947810196
707+948727042+947556546+944098238+940116389+937329732+935989544+935063724
697+933872758+932834799+931952663+929952096+926296060+922699876+920910684
687+919863009+917128268+912790865+909197648+907018043+904619277+901452220
677+899164556+898647690+898397378+895857250+888936703+878299302+871232350
667+876040711+887531100+895643502+898153370+897046139+892832816+885523191
657+877313333+870829330+867446300+867355743+869525260+872190507+874195597
647+875466440+875789212+873984520+870004153+866638405+867013613+871004288
637+875378478+876803142+873835297+867148077+858963436+851928079+848107319
627+848298297+850737632+851480113+848444554+843684994+839997512+837745966
617+836721134+838099072+842049327+845736736+846060101+843440171+841116239
607+841591275+844463372+846598847+844581667+838111236+831369504
##END=
