##TITLE=<SNM>
##JCAMP-DX=4.24
##DATA TYPE=INFRARED SPECTRUM
##DATE=2/5/2025
##SAMPLING PROCEDURE=Instrument type and / or accessory
##ORIGIN=Admin
##XUNITS=1/CM
##YUNITS=ABSORBANCE
##RESOLUTION=4
##FIRSTX=4497.3318
##LASTX=599.83466
##DELTAX=-1.4281778
##MAXY=1.7192698
##MINY=0.29819521
##XFACTOR=1
##YFACTOR=1.6011947e-09
##NPOINTS=2730
##FIRSTY=0.31235138
##XYDATA=(X++(Y..Y))
4497+195073946+195118486+194590206+194032965+193868523+193820261+193478534
4487+193104459+193238395+193827315+194369294+194685949+194943454+195092671
4477+194911180+194579690+194693860+195577974+196817943+197498436+196915249
4467+195216091+193356380+192304752+192353852+193210904+194367358+195256480
4457+195573303+195603623+195732254+195665360+194836636+193439857+192262613
4447+191677807+191476531+191406101+191323554+191091809+190713100+190440891
4437+190558392+190956980+191041853+190484258+189990058+190520720+191823487
4427+192713931+192781755+192815146+193503736+194412587+194419306+193065578
4417+191201214+190045542+189994860+190667648+191508135+191924982+191500895
4407+190485152+189616094+189353750+189727732+190713174+192077028+192976051
4397+192514832+190930029+189568465+189394028+190050623+190705189+191215192
4387+191859652+192406861+192231605+191259490+190205535+189730748+189631506
4377+189126696+187948019+186792756+186471857+186938362+187464651+187595851
4367+187553265+187736804+188278857+189118841+190064434+190665489+190471118
4357+189687827+189239972+189870454+191336285+192664570+193099955+192593005
4347+191487512+190093618+188582335+187138466+186232946+186499739+187946009
4337+189537791+190076346+189332123+188084188+187349755+187601862+188400639
4327+188888027+188754966+188341060+187910124+187523597+187409409+187727888
4317+188183858+188389862+188363135+188398852+188730770+189416754+190293498
4307+190996681+191207468+190925729+190536504+190610433+191391937+192359213
4297+192545989+191527324+189974219+189122061+189662198+191092424+192253344
4287+192567617+192485778+192625372+192984576+193120894+192607095+191355140
4277+189923295+189255681+189758406+190888188+191898347+192615507+193202696
4267+193567688+193394573+192642328+191723426+191107109+190951340+191134432
4257+191369006+191356201+191163319+191260532+191868027+192645511+193313255
4247+194012770+194709643+194937851+194516221+193929703+193723680+193940740
4237+194237107+194296575+194095168+193826440+193647387+193623265+193834611
4227+194246283+194532693+194438030+194216168+194301767+194738921+195298470
4217+195834102+196205013+196301351+196405321+196887312+197357335+196920386
4207+195581864+194567666+194818657+195855264+196545585+196452076+195940938
4197+195373962+194765388+194165393+193944500+194499563+195749229+197078295
4187+197879659+198034645+197762865+197246255+196618826+196099145+195839090
4177+195748354+195739773+195972728+196509123+196988806+197104632+197145561
4167+197573799+198328575+198950439+199105835+198776988+198278284+198101260
4157+198336280+198458677+198103009+197634289+197558983+197850381+198164747
4147+198310353+198327681+198352306+198424988+198438798+198415123+198608433
4137+199074008+199461353+199538912+199559348+199858824+200443612+201087104
4127+201594761+201943654+202167172+202127043+201689146+201157739+201079715
4117+201512066+201949219+202015424+201840931+201794102+202118742+202735376
4107+203274321+203461694+203453951+203570372+203777083+203723405+203249976
4097+202590366+202109957+202092145+202666454+203600785+204306034+204401628
4087+204128861+203985879+204242081+204936738+205908481+206656576+206631300
4077+205894057+205151676+204974578+205240923+205448509+205333912+205016698
4067+204697102+204425321+204173270+204085586+204525829+205615315+206819305
4057+207434171+207400761+207191947+207111783+207149659+207261893+207411054
4047+207617095+208152429+209182318+210151920+210195715+209236034+208122184
4037+207664743+207949348+208571435+209248095+210073543+211116851+211969771
4027+212101045+211606770+211174661+211311947+211949744+212692589+213134935
4017+213049709+212457680+211533176+210567911+210009236+210232289+211217135
4007+212598466+213948248+214903128+215237112+215086089+214904561+214954945
3997+215027460+214798451+214353406+214230098+214835788+215876006+216662238
3987+217013885+217371618+217941199+218301482+218073572+217590129+217620654
3977+218512586+219759441+220542099+220598681+220248430+219733532+219043174
3967+218337851+218125761+218839460+220241301+221418359+221671155+221249134
3957+220854436+220844851+221312789+222452957+224332638+226356121+227408195
3947+227168466+226946976+228005435+229362774+228804379+226156911+223544006
3937+222692742+224023856+227407879+231848890+234883332+234640661+232573719
3927+231736545+232893985+233996537+233507529+232723996+233498800+235336287
3917+235872831+233705846+229995229+227016717+225971250+226616473+228777949
3907+233487018+241615474+251331133+258315085+259995203+257263978+251580765
3897+244520465+239196568+238554025+242163111+245343047+244178069+241762327
3887+243273424+248185389+251783940+252968964+254002277+253311565+248279363
3878+242580255+241683261+245996869+252420973+258733085+263050993+262888356
3868+259976795+259178167+261007484+260824913+256185306+250861948+249521360
3858+254097796+265028856+280461138+290073777+282869714+266620211+252947932
3848+246147947+246469311+252104597+260197391+268488967+275944635+281112633
3838+281679330+277756902+272441156+267674854+263384214+259928886+258594980
3828+259462865+261444823+265354054+273578570+284025219+288386456+284326761
3818+278669494+274018179+267483033+259508335+254524061+255664862+262797546
3808+271676813+276738888+278833433+283117336+288964823+289973884+285407294
3798+280264050+275740529+270412165+265353571+262978572+263630458+265968939
3788+269162537+272973513+276641321+279842513+283667095+288243624+291085072
3778+290677699+289487128+290774391+295743924+303698353+312175738+318157812
3768+321240424+323424383+326339854+331473270+340500061+352766590+364045350
3758+371181366+377051281+387060331+403941768+425111649+441748629+448506326
3748+452467263+461105572+472205690+476741606+474647917+475420375+484754497
3738+501948997+520824657+533027345+535433055+532238024+529429389+530441466
3728+535536280+542402116+547843049+550651944+551779641+552343415+553394466
3718+556340350+562354959+572042979+584957746+598142841+607216275+611116833
3708+612245424+613370628+617205595+624658732+632094670+634770336+633571688
3698+632642847+634112643+638516745+646464678+657259512+666425227+668048390
3688+662671968+656388072+651936918+648762286+647078967+648870388+656939302
3678+672393007+689802073+697798845+695311016+691955694+690124442+684878606
3668+675247949+665955595+661018801+662328455+669474112+679723822+689730601
3658+696134436+696423154+693840327+696521651+709165084+727964508+739584771
3648+734398942+720685585+710257641+706489939+706872837+708021976+709156895
3638+711899566+716985632+722658664+727366151+732150918+737779651+740432238
3628+736051588+728651162+724443236+725895760+733013051+743564582+752398770
3618+755379459+753477330+749245878+744105091+740068996+739210659+740869633
3608+742244059+742048552+741354304+740818114+739901483+738474123+737530020
3598+738049906+739744690+741270473+741581452+741201830+742312553+746301819
3588+750914828+751635581+747587648+742345162+738848087+737201918+736200860
3578+735387938+734997000+734809684+734446664+734767321+737729398+743553489
3568+748870500+749706725+747330497+746323186+748002112+749976681+750084634
3558+748619900+746941271+745912369+745422115+744645748+743871093+745274927
3548+749492755+753054453+752585565+749760924+748286959+748790615+749019772
3538+747025400+743182280+739790775+739233292+741787381+745445716+748242587
3528+749834183+750839112+751858857+753081702+753910854+753231198+750662963
3518+747215025+744451210+743372277+744076948+745721479+746526807+745195563
3508+742951336+742453636+744612915+747951337+750482645+751043850+749759286
3498+748300732+748706933+751022483+753113269+753590867+753512247+754451288
3488+756402479+758263064+759027445+757749358+754176641+750028275+748376225
3478+750227355+752433240+751146517+746776290+743230375+743471445+747154869
3468+750948033+751216575+747717713+743497279+740868665+739731513+739794498
3458+741811205+745664078+749322859+750789305+750040187+748452760+747052053
3448+745767192+744395223+743981205+745411394+747168270+746949163+745083590
3438+743958796+744854432+747179214+749382717+749727943+748027128+746618530
3428+747483939+749370880+750217304+751194314+754805150+759883994+762239450
3418+760435670+757244883+755275526+754637711+754215876+752746973+749798894
3408+747220311+747848373+752079304+757173113+760288706+760520767+758373399
3398+755512203+754060796+754635924+755289225+753800146+750962700+749539658
3388+750173527+750731308+750060140+749924864+752205795+756041991+758796500
3378+758965502+757009695+754170015+751447519+749461113+748901173+750354665
3368+752851502+753498772+750686936+746940080+745784166+747325583+749613066
3358+752299900+755556576+757333404+756194688+754643295+755586579+758177968
3348+759438931+758082299+755273888+752885674+752020861+752782710+754940798
3338+758141934+761479239+763595933+763553496+761799896+759788624+758551559
3328+757932729+757296924+756715393+756405531+756024421+755457780+755051803
3318+754808425+754457839+754257196+754854063+756639231+759520082+762638280
3308+764475413+764184388+762822023+762491017+764056854+766022414+766022787
3298+763518207+760303968+758282719+757991842+759040548+760377823+760491880
3288+759158105+758427301+760046072+762809143+764212009+763870729+763329550
3278+763255249+762882253+761706014+760346851+759845355+760705627+762503078
3268+764085667+764501322+764011886+763515006+762961096+761791185+760371122
3258+759038984+757016693+754209027+752728733+754425379+758263288+761976641
3248+764594757+765743449+764703976+761985575+759820563+759685584+760661403
3238+761153519+761339794+762766855+765466867+767147059+766470977+764888984
3228+763837822+762766409+761052044+759494769+759200914+760308137+761884323
3218+762799092+762671485+761849405+760734514+759598403+758823600+758804094
3208+760038702+763205218+767660542+770490246+769275293+765257587+761974110
3198+761801757+764995150+770385867+775251188+776189038+772097328+765812911
3188+761730508+761949169+764897174+767338545+767417165+765850285+764538175
3178+764340137+764273579+762861556+760229667+758373102+759285936+763023262
3168+767065164+768007853+764760632+759417117+754783931+752374052+752318215
3158+753581560+754390611+753738427+752551244+752328340+752673268+751590464
3148+748987014+747642667+749329262+752264313+753815483+753828512+753153769
3138+751512961+749058487+747739973+748876232+750606604+749925683+746739586
3128+743669333+742329825+742154867+742638496+744089382+745716789+745772850
3118+744107994+742536052+742799383+745002290+747731933+749276849+748737755
3108+746307923+743099938+740799650+740486066+741511096+742213311+741848653
3098+741124476+741025234+741851557+743040974+743820095+744051412+743977408
3088+743726288+743563391+743862978+744322187+743936089+742447382+740967907
3078+740392482+740174938+739372067+738016105+736590235+735221468+734249744
3068+734282874+735280507+736675927+738136566+739212297+738936459+736774797
3058+733201485+729007555+725242384+723640737+725492835+729887854+734050291
3048+735584487+733975543+730334258+726447138+723716304+722458542+722235936
3038+722723585+724085130+726312755+728337503+728600238+726978712+725119839
3028+724243337+723928636+723419173+722816052+722414616+721923543+720985991
3018+719474875+717446554+715696229+715474963+716714783+717679136+717285890
3008+716058355+714425290+712440521+711017108+710989561+711369108+710710968
2998+709602405+709872063+711774564+713504489+713381423+711520763+709213775
2988+707174807+704922911+702157532+699831038+699009926+699437122+699997434
2978+700017238+699268939+697236969+693879190+691037797+691075618+693826851
2968+696358605+696367018+694833716+694535543+696774112+700054761+701617098
2958+700057366+696341482+692495607+690043887+689517896+690476592+691615754
2948+691366793+689247940+686613817+685293740+685398194+685145212+683391239
2938+681431486+681138674+682212990+682628497+681439974+679712505+678684795
2928+678470974+678520036+678320137+677672867+676699952+675620573+674580131
2918+673668339+672802558+671405574+668825576+665540833+663265337+663274196
2908+664953048+666398872+666328516+664906591+662754236+660078346+657192358
2898+654889390+653616663+653060669+652948175+653372690+653965090+653773083
2888+652491646+651048131+650651237+651560721+652754306+652617914+650222106
2878+646254282+642637788+641062794+641738132+643335908+644115997+643279177
2868+641353596+639424368+638183655+637769861+638148142+638902844+638839338
2858+636969745+634008115+631808707+631281599+631689959+631819353+631034871
2848+629387884+627504517+626200223+625693366+625389907+624700945+623672750
2838+622513374+621135487+619497433+617853312+616390142+615003619+613656963
2828+612553574+611781711+611159717+610467032+609557176+608368132+607058217
2818+605904723+604879730+603656550+602239911+601156251+600694250+600328923
2808+599313311+597676001+596234199+595624898+595579260+595214268+594008547
2798+592410808+591375280+591299378+591474113+590672730+588414209+585591541
2788+583613659+582947590+582813170+582367921+581758695+581644637+582017186
2778+581992617+580733701+578297132+575546904+573455411+572487633+572398404
2768+572506804+572176803+571090649+569339022+567411506+565789906+564376580
2758+562711613+560891826+559640616+559180737+558709430+557459411+555799134
2748+554695037+554364255+554063513+553159353+551864477+550753829+549936403
2738+549027477+547760223+546313990+545085711+544288498+543732429+542915375
2728+541427525+539422990+537621891+536636021+536327909+536069045+535602280
2718+535262266+535254039+535165369+534472163+533212428+531833796+530616647
2708+529554689+528588251+527649173+526625259+525507315+524429983+523466560
2698+522577848+521774009+521042238+520127803+518751032+517084167+515717261
2688+515093368+515144478+515425714+515431111+514865141+513814388+512621174
2678+511517524+510480619+509430647+508378889+507336400+506224226+504986268
2668+503754749+502775245+502139626+501746492+501520796+501389727+501065310
2658+500272006+499131503+497903595+496578195+495190741+494179670+493897429
2648+494071085+494141887+493837944+493130629+491983203+490458760+488913360
2638+487815703+487312569+487087431+486719945+486078110+485274978+484397173
2628+483467922+482621572+482085642+481866796+481611022+480980764+480082783
2618+479311851+478881454+478715951+478608408+478271409+477464071+476284407
2608+475200747+474633288+474480069+474128404+473129282+471792603+470785850
2598+470298089+470007212+469613222+468998077+468157385+467307498+466784821
2588+466650810+466573122+466141422+465284016+464439490+464157845+464414512
2578+464586902+464175862+463231461+462072941+460965010+460109503+459666264
2568+459635032+459759215+459642551+459044977+458087621+457170283+456646600
2558+456471084+456214640+455557096+454592556+453538453+452499090+451630108
2548+451122059+450912929+450700783+450258437+449610608+449007115+448762658
2538+448965199+449305995+449297620+448721375+447856040+447194550+446916925
2528+446814444+446713527+446636583+446536931+446254914+445760192+445133135
2518+444376014+443509190+442759179+442417340+442515094+442753036+442777642
2508+442484606+442018995+441507447+440903358+440163509+439477339+439159027
2498+439292665+439581978+439621251+439312580+438915500+438620826+438268416
2488+437668347+436969334+436449337+436153286+435932392+435642594+435253555
2478+434935913+434920278+435157514+435353057+435352164+435213054+434966437
2468+434578775+434088558+433637836+433423531+433524784+433658087+433334414
2458+432442315+431454174+430917574+430917723+431097074+431069118+430763351
2448+430408111+430223475+430194774+430161086+430030798+429831569+429604905
2438+429360895+429141602+429032793+429045561+429048725+428898261+428597855
2428+428280064+428064382+427988815+428036649+428155471+428262680+428263722
2418+428106074+427845312+427589836+427347314+427049513+426740917+426549953
2408+426467834+426350016+426098970+425719870+425311324+425084214+425207876
2398+425553734+425744327+425532106+425048143+424635875+424489692+424504805
2388+424435343+424084943+423345243+422163942+420539885+418559583+416423718
2378+414332524+412288381+410113244+407690373+405067232+402388327+399910698
2368+397978529+396781407+396158296+395705043+395194836+395028365+396053172
2358+398704940+402583014+407140112+412417962+418452524+424265001+428341150
2348+429882716+429311274+427972436+427085659+426618074+425618618+423464326
2338+420415404+417244718+414519878+412325904+410569475+409217980+408217369
2328+407450569+406793993+406152865+405612058+405493310+406001768+406923834
2318+407876759+408675871+409362227+410103416+411068254+412186273+413122298
2308+413667199+413983017+414367478+414996098+415887863+416869191+417628956
2298+418039102+418309468+418659235+419052109+419395957+419738689+420134727
2288+420517252+420787245+420915970+420973073+421106600+421395578+421708641
2278+421864093+421905525+422008899+422196290+422379326+422545052+422640907
2268+422469522+422011542+421679941+421932215+422722839+423567700+424057769
2258+424135272+423983579+423868144+424018869+424467468+424979537+425228461
2248+425098620+424855131+424951618+425559727+426378047+427043781+427538242
2238+427963315+428175796+427979806+427530574+427257304+427435538+427975860
2228+428579093+429000556+429176668+429199598+429219923+429334055+429560310
2218+429925190+430433946+430944749+431303413+431594252+431976591+432356250
2208+432549188+432642400+432866793+433269345+433770246+434354717+434986092
2198+435498012+435739491+435736960+435668838+435746750+436067407+436511503
2188+436893321+437255186+437809579+438507736+438935378+438838332+438534873
2178+438549019+438991142+439571146+440102125+440653243+441205738+441501640
2168+441375224+441038225+440918769+441296827+442100220+442978099+443608060
2158+443971489+444255739+444515496+444642955+444685354+444886258+445323393
2148+445821576+446320356+446953555+447646426+448039002+447989083+447842602
2138+448041645+448616698+449142689+449191640+448819761+448507144+448602887
2128+448991815+449344784+449543826+449787576+450309919+451040871+451620578
2118+451769181+451572409+451387288+451509833+451915029+452338204+452618174
2108+452816397+452980672+453037105+452971105+452903914+452965856+453189988
2098+453459945+453546382+453334459+453005836+452884817+453119484+453543515
2088+453823746+453786595+453609366+453603001+453846565+454164877+454396119
2078+454505896+454482072+454318505+454109858+453979235+453932704+453966579
2068+454179320+454495808+454518106+454036003+453401055+453028431+452899633
2058+452808729+452681084+452491124+452240376+452053729+452048592+452193733
2048+452406996+452637866+452829352+452916347+452844763+452569148+452090619
2038+451480016+450836729+450240010+449710521+449263000+449043521+449237129
2028+449753069+450219015+450326857+450036166+449585779+449411603+449732930
2018+450140880+449962869+449071105+447980372+447225707+446930028+446847500
2008+446686911+446454515+446379581+446467060+446438694+446191780+445903918
1998+445676324+445618253+446171530+447578192+449063139+449364327+448148518
1988+446211621+444520968+443602178+443396882+443380428+443133626+442781327
1978+442635033+442685957+442674826+442425977+442088419+442156579+442951967
1968+443944947+444078213+443044174+441676561+440835124+440560217+440515770
1958+440625212+440867287+440933697+440596847+440128257+439962754+440183760
1948+440708782+441781238+443635681+445470432+445607979+443538077+440839294
1938+439175815+438628643+438390552+438062263+437847437+437972216+438291645
1928+438621831+439355278+440958712+442786316+443723420+444045232+444654197
1918+444807974+443057724+440141323+438374210+438813243+440483049+441577319
1908+441053896+439398161+437848182+437049480+436796870+436807964+437245619
1898+438385526+439870994+440724119+440732606+441098455+442490227+443449555
1888+442357334+439973587+438110396+437332093+437157507+437126685+437037977
1878+436917070+436978976+437466066+438951720+442543906+448537818+454371178
1868+455625292+451283505+445212015+441158462+439796879+439889123+440190199
1858+440161685+439807972+439396449+439232137+439617380+440839108+443133924
1848+446932001+452483940+457921002+458951393+454274989+448274450+444988181
1838+444506637+444834627+445128892+446944658+451941309+458528032+462258471
1828+461547174+459344266+457425871+454730177+451155078+448463368+447559617
1818+447717786+448177777+449265494+451723394+455175762+457710643+457769868
1808+456112904+454880343+455677482+458955301+463728863+467545739+468334390
1798+466941725+466563592+469761229+476013334+480642500+478736462+472232678
1788+467098963+466066748+467875889+470460651+473041021+475084270+475797950
1778+476003097+478432743+485175252+494997245+502341573+502060895+495962120
1768+488925607+483862769+482562049+485586403+490364171+492837072+492684077
1758+492390557+492485667+492951391+496127437+504022733+514062828+520032172
1748+519363720+515550716+512705489+512639079+515220045+518641591+520648061
1738+522162862+527375531+537704903+546323185+545017663+537363586+530051868
1728+525106512+523195301+524650318+528432762+533968954+543231379+558262729
1718+575642721+584984176+581382609+572343721+565638921+564112691+568242333
1708+577381432+588828301+598577110+606461946+616987531+631884720+644834144
1698+650046254+649581313+645041488+638323994+634827812+637692135+645662775
1688+657041373+673029333+693081679+706519570+704334903+695722577+691142996
1678+693479913+701376847+710769561+718456545+726183882+735828833+743132473
1668+743086984+740035865+741158277+746964425+752119433+752922155+752563677
1658+756515345+768180428+788383908+810209807+816310779+809519430+808521351
1648+815644226+819514297+811011487+797899837+790195877+790033948+796748092
1638+808962617+820675646+820284485+806666498+792866704+786408893+786060540
1628+787452983+787879434+787722641+786729327+783250417+779018890+778263816
1618+781012741+780725885+772493776+761494427+754055510+751025461+750087165
1608+748821288+746627017+744453666+743153691+742608790+742180553+741622548
1598+741308964+741614210+742362881+742984764+743108351+742911579+742910984
1588+743470924+744591995+746096038+747794173+749770603+753075522+759557307
1578+769457473+778020885+778630186+774609353+775001259+781942029+789616134
1568+792020206+791154275+791703941+795932862+806604928+827370284+853460170
1558+862493288+849638566+835342859+827366859+824274420+824095740+825446490
1548+828627673+836214150+850151453+869023540+888660454+901463061+897386019
1538+881720949+870727482+869332583+872191694+872098929+869398695+870006432
1528+876139194+885077240+893846507+902161032+909116543+912064921+911796081
1518+910942212+908211005+902434413+897492483+898410007+907249630+923616392
1508+942695302+949088044+933485587+913649594+903548933+903324019+908933545
1498+914752499+914951058+909544930+905540476+908247933+916080095+921648673
1488+919227106+911770321+905511962+903070442+903236242+903833705+904759494
1478+907940751+914527883+923178253+929738210+928648110+919759946+910632350
1468+907229156+909281674+912316414+912605802+912271669+916517043+927611614
1458+940945275+944462080+934238130+921075407+912449084+909110141+909053931
1448+908970249+906806874+903886193+902474170+903141542+906061404+912317158
1438+921296077+927471425+925921297+920941843+918553852+918415152+917028889
1428+914204843+912912909+914086616+916510939+920651711+927843750+934546801
1418+933038588+923420216+914058400+909725174+909366101+909927455+909817715
1408+909955002+911788413+914793149+917167962+918928188+921615543+925231292
1398+928216746+929780200+929557371+926743227+922450502+919734112+919574267
1388+919410402+916571318+912523534+911033487+913329011+917498744+921256172
1378+924244752+927500683+931075485+933250622+932738777+930353169+927502247
1368+925169052+924778784+927605137+932456611+935460305+933855009+929023637
1358+924056542+920624462+918945907+918824628+919808860+920766885+920308197
1348+918010887+914747809+911890856+910705236+911808365+914336769+916215967
1338+916138464+914688621+912915663+910962834+908454011+905302087+901930013
1328+899107010+897569166+897495982+898272944+898876959+898651226+897782987
1318+896861070+896098849+895430584+895013588+894945988+894871463+894501520
1308+894009553+893412611+892291912+890554542+888768704+887459721+886696755
1298+886382798+886289289+885772009+884064121+881151405+877934933+875205514
1288+872878274+870413451+867532302+864322456+861104420+858357728+856404601
1278+855125993+854183528+853447439+853148372+853634755+854844720+856080892
1268+856668453+856783627+857316244+858908436+861219669+863178305+864036939
1258+864069399+864152486+864955804+866485309+868076608+868992569+869340028
1248+870093836+871970726+874652051+877277091+879398550+881210817+882957419
1238+884586762+886142994+887909251+889914493+891814686+893369355+894652952
1228+895880412+897364875+899410171+901920781+904352772+906419063+908802661
1218+912404265+916622316+919463262+920083507+920082166+921449221+924347047
1208+927393028+929324267+930121257+930802104+932198417+934092729+935680752
1198+936564252+937182785+938420296+940631914+943311750+946119491+949375794
1188+953022142+956138330+958213556+959868137+961657995+963245645+964053430
1178+964074649+963993647+964593492+966169975+968449418+970619641+971904056
1168+972593168+973679694+975224685+976312700+976707361+977307429+978849591
1158+980984228+982710728+983580828+984474007+986599933+989530740+991337870
1148+991100448+990018017+989630876+990262288+991466371+992949568+994706519
1138+996788891+998956733+1000281276+999903442+998650370+998695412+1000851118
1128+1003419353+1004631253+1004986306+1006200887+1008721027+1011228138
1120+1012364993+1012221602+1011995571+1012574049+1013766816+1014757599
1111+1014962039+1014628800+1014884686+1016971972+1020687931+1023859436
1103+1024805400+1024681589+1025358788+1026358357+1026590939+1027452328
1094+1030593606+1034761627+1037379148+1037544055+1036108134+1034528523
1085+1034427941+1036332601+1038524192+1038583156+1036226733+1033546674
1077+1032535938+1033658424+1036319051+1039312024+1041168738+1041171269
1068+1040168276+1039982895+1041567344+1043941636+1045750925+1047478096
1060+1050418060+1053733403+1055269906+1054919320+1054563969+1054853134
1051+1054715550+1053951169+1054024131+1056683418+1062473783+1069474113
1043+1073741823+1072432616+1066384057+1059139158+1054162757+1052820345
1034+1054113173+1056137847+1057659386+1058089038+1056999310+1054596132
1025+1052243505+1051767470+1053798174+1056752359+1057868889+1055731870
1017+1051738509+1048761022+1048226544+1049037902+1049664475+1050101870
1008+1050797980+1051619612+1052877672+1054587793+1054693513+1051596681
1000+1047468417+1045159642+1043978563+1041878323+1039445662+1038501038
991+1038735482+1038321389+1036531532+1034382601+1033390775+1033852292
983+1033877158+1031175658+1026509863+1023521283+1024390042+1027287719
974+1028685373+1027021485+1023317512+1019383489+1016170515+1013085298
965+1008805230+1003099738+997102550+991761790+987192110+983320699+980228856
955+977965197+976188889+973821745+969781555+964491495+959644116+956329072
945+954397312+953294704+952530771+951646823+950513393+949485980+948897377
935+948688619+948591461+948282790+947231479+944976233+942166482+940532672
925+940988531+942480736+943483879+943716982+943667175+943583642+943489388
915+943283384+942615417+940986967+938212878+935084852+933153986+933344281
905+935195560+937632539+939460961+939290545+936792442+933543137+931481090
895+931300846+932235121+933063231+933450447+933768275+933740951+932228346
885+928725836+924520590+921741289+921430088+922764161+923908461+923749509
875+922996371+922972026+923382991+922781359+921335461+920901714+921988687
865+922854543+922133270+920522316+919233285+918382915+917550859+916865024
855+916769504+917178757+917489587+917022560+915361353+912987880+911359579
845+911467160+912766242+913865946+913596362+911920860+910438556+911060587
835+913778020+916887954+919499891+922076837+924478303+925474819+924393653
825+922193277+920825850+921589411+923769313+925332321+925434616+925500206
815+927069468+929643658+931748813+933118175+934352039+935110686+934670239
805+933688315+933456403+933772221+933239678+931504616+929658846+928519311
795+928056603+928525491+930235538+931963974+931810606+929935354+928270126
785+927795953+928075588+928798648+930194962+932367866+934734117+935940583
776+935083363+933076037+931360853+929823530+927657997+925288693+923888359
766+923923574+925089390+926839342+928273104+928182871+926289676+924093395
756+923497644+924757640+926613237+928169321+929547245+930775078+931290050
746+930823843+930076735+929958657+930631464+932057483+934686469+938467423
736+941909703+943464745+943219953+941939186+939602342+936695583+935400968
726+937109154+940001842+940895319+938777434+935501178+932808016+930575998
716+928419995+926968960+926933820+927716887+927903980+927209062+926655599
706+926933447+927864968+928873322+928609619+925569594+920802398+917586968
696+917303610+918442177+919694430+920543981+919328432+914888743+909129498
686+904497801+900696373+895835146+889757329+885110519+884178402+885372211
676+884766931+881386594+877644428+874072679+868391904+861485754+860175951
666+865815406+872013237+874802663+874059129+870447028+864622639+858370682
656+853817382+851868052+852900155+856909597+861587899+862504456+857699216
646+850207142+844333244+842340286+844069988+847004517+848163633+847283631
636+846038526+844731329+842281768+838654181+834816645+830623386+824914171
626+817864704+812069722+810475967+813745671+820247408+827941242+834170641
616+835899523+833769726+832070326+833833232+837392697+838219913+834329145
606+828216783+823628416+822430214+824018088+826319270
##END=
