##TITLE=<SNM>
##JCAMP-DX=4.24
##DATA TYPE=INFRARED SPECTRUM
##DATE=2/5/2025
##SAMPLING PROCEDURE=Instrument type and / or accessory
##ORIGIN=Admin
##XUNITS=1/CM
##YUNITS=ABSORBANCE
##RESOLUTION=4
##FIRSTX=4497.3318
##LASTX=599.83466
##DELTAX=-1.4281778
##MAXY=1.7585206
##MINY=0.19486122
##XFACTOR=1
##YFACTOR=1.6377499e-09
##NPOINTS=2730
##FIRSTY=0.21308006
##XYDATA=(X++(Y..Y))
4497+130105371+130107746+130865929+131732375+132318613+132385579+131784046
4487+130816096+130177177+130320843+131138285+132184937+132940745+133007210
4477+132361331+131377377+130434921+129609591+128835304+128175658+127776295
4467+127653920+127704908+127910299+128365663+129025345+129540078+129605078
4457+129522436+129970048+130935587+131407575+130661730+129374839+128870479
4447+129666084+131165444+132342306+132447767+131517749+130447786+130219685
4437+130921312+131746896+131919596+131316862+130241977+129072457+128245408
4427+128078058+128393751+128707978+128822711+128781404+128377027+127374521
4417+126123943+125361374+125450804+126113698+126795707+127123410+127129997
4407+127160432+127478281+127947858+128195366+128083308+127818112+127560141
4397+127217034+126724766+126261595+126029127+125972106+125814801+125403173
4387+125020042+125115104+125580413+125689851+125020297+123987283+123156976
4377+122548474+121952973+121442180+121190259+121141336+121164201+121316575
4367+121714227+122268174+122708954+122770997+122321747+121510974+120824707
4357+120736196+121223988+121789117+121972781+121811763+121796323+122285898
4347+122960211+123157149+122818937+122582675+122787620+123025984+122906411
4337+122590527+122280003+121833564+121275868+121097063+121556740+122120387
4327+122075849+121413274+120702003+120389705+120548838+121015249+121458121
4317+121546395+121253121+120772235+120162732+119450142+118981057+119180488
4307+119980470+120917230+121726401+122464503+123180641+123777798+124082154
4297+123899700+123212104+122411659+122098168+122529148+123367781+124034814
4287+124261568+124171611+123805630+122897967+121397579+119868676+119040370
4277+119252685+120400859+121942555+123013392+123154383+122858480+122852829
4267+123157631+123432953+123738401+124235510+124598060+124428072+123912893
4257+123519144+123427840+123655113+124246619+125023126+125532045+125521464
4247+125211521+124951211+124855749+124841146+124847197+124956352+125225442
4237+125450067+125344942+124998688+124787246+124734211+124397846+123619610
4227+122996377+123241038+124234373+125107507+125399770+125700387+126633708
4217+127630345+127597345+126577478+125735198+125761538+126194675+126316377
4207+126097721+126193965+127196890+128837587+130055293+130110221+129367888
4197+128689718+128425532+128343481+128181427+127928114+127756288+127811507
4187+128000256+128117619+128191526+128345246+128394287+128125352+127905713
4177+128414786+129809832+131591129+133152924+134191297+134743197+134982143
4167+134980378+134751313+134428514+134119363+133688110+133009849+132323035
4157+132007597+132095890+132302654+132479621+132668071+132721934+132398963
4147+131909870+131787267+132092196+132276833+131882501+131010468+130186394
4137+129942935+130318414+130777918+130912695+130997539+131516767+132430234
4127+133237495+133510233+133108113+132183063+131286882+131155827+131943744
4117+132881204+133135582+132773323+132462170+132533858+132755963+132809835
4107+132665023+132543866+132716584+133324996+134184973+134731369+134519218
4097+133874985+133609198+134005377+134593671+134888146+134817032+134580042
4087+134544857+135030320+135854249+136376843+136215562+135707626+135526937
4077+135923507+136425111+136392811+135806582+135225247+135028682+135077087
4067+135117939+135156326+135309700+135513581+135526701+135207851+134696567
4057+134303664+134293219+134718130+135293851+135521879+135172794+134545021
4047+134096772+134024575+134250474+134535622+134595345+134364178+134090430
4037+133972649+133904865+133775265+133778195+134183563+134916461+135541668
4027+135670686+135326942+134888337+134718394+134865754+135099287+135237412
4017+135360962+135592292+135793734+135693259+135265545+134830061+134736418
4007+135032003+135516401+136081786+136755197+137376064+137556234+137108731
3997+136310523+135638395+135371734+135486494+135827708+136273683+136760520
3987+137281248+137821757+138153372+137913844+137173367+136591942+136726846
3977+137528520+138607127+139547244+139961929+139694204+138989002+138238890
3967+137711292+137652633+138338792+139702720+141058223+141586822+141149800
3957+140270861+139413595+138761547+138584198+139220024+140570450+141972201
3947+142770117+142878481+142619599+142243838+141868040+141620059+141567488
3937+141708379+142187254+143178624+144335715+144787931+144143398+143077593
3927+142553435+142896523+143699234+144418129+144933872+145417624+145901467
3917+146139194+145802893+144894885+143928882+143505253+143773023+144538813
3907+145807224+147750840+150156753+152361779+153751620+153891119+152600025
3897+150559601+149175992+149334616+150568881+151481203+151474042+151729175
3887+153194825+154795661+154950519+154300554+154348158+154510094+153599128
3878+152638475+153248015+155196089+157323295+159288602+160761603+160765461
3868+159673653+159066560+159267620+159290258+158601915+157680304+157353666
3858+158664149+162569141+168322395+171664113+169306659+164418332+160686558
3848+159159675+159640334+161401741+163518976+165513743+167456831+169087329
3838+169523277+168476779+166738737+165033321+163612163+162740540+162669462
3828+163254917+164324089+166391972+170011469+173937588+175543356+174779550
3818+173882432+173113604+171315748+169088639+168118242+169104762+171660874
3808+174466268+176110050+177056864+178763735+180853874+181593587+181177000
3798+181015956+181091128+180912305+181028093+182198386+184417888+187367331
3788+191029264+195442610+200214220+204933314+209951715+215884283+222518732
3778+229259016+236347775+244533183+254288237+265667511+277873935+289378569
3768+299511504+308545134+316212889+322386660+328011788+333587821+338432402
3758+342598486+347858689+355950654+367265693+380704989+393895822+405480105
3748+416880888+429404215+441709941+450836740+457455248+465585573+477407146
3738+492090070+506400827+516676628+522046560+525176500+529346296+535748514
3728+543270800+549535120+552772423+553637878+553746769+553119333+551074924
3718+548164623+545737565+544857152+545824983+547238972+546453439+543249619
3708+540069527+538725489+539469641+541320543+542530323+542475550+543004540
3698+546185723+551508124+556532930+560264466+564232529+569326010+573252511
3688+573563609+571540381+569941218+570057571+571753469+574584649+578598932
3678+583254809+585557945+583154106+579648651+578796553+578479923+574986223
3668+569360548+565080114+562650981+560217227+556962927+554497400+554437277
3658+555901745+556868885+557528457+559493127+562812608+565958125+566701441
3648+563969981+559988452+557617878+557223146+557224493+556795550+557226604
3638+559880362+563964085+567577377+570427409+573976865+578437742+581109115
3628+580438733+579398768+580278962+582576530+585739079+589775054+593443010
3618+595130901+595898928+597934348+601556812+605610874+608837295+610287896
3608+609860337+608857748+609198398+612197064+617756428+623941919+628541639
3598+631263637+632883471+633307755+632204355+630622225+630544050+632884636
3588+635880827+636603834+635106721+633851121+634351614+636542328+639570037
3578+642684364+645781149+648707026+650685926+651577293+652326578+652708644
3568+650779459+646265556+641601126+638766962+638082459+638989767+640363868
3558+641040436+640847765+640507407+640322233+640020088+639704259+639893654
3548+640438549+640413801+639875166+639728425+639647120+638378927+635892691
3538+633394155+631757943+631457982+633076288+636411600+639490479+639533934
3528+635682333+630338932+626584722+625204507+625385605+626692740+628632552
3518+629751748+629246305+628018145+626642734+624462356+621458668+618791407
3508+617286652+617262559+619061453+622019721+623943374+623277797+620795929
3498+618152325+615962047+613836770+611502299+609483511+608790783+609633237
3488+610659263+610415531+609380151+609083065+609574969+609430157+607997171
3478+606181171+605139823+605240708+605988937+606556905+606587476+606307823
3468+605856462+605007676+603531635+601426265+598982175+596889288+596003453
3458+596653454+598262042+599800608+600556807+600307070+599123202+597517089
3448+596188736+595035075+593136898+590166546+587023650+585086203+585289574
3438+587370851+589768212+591033493+591255389+591338149+591527290+591138017
3428+589322564+586219010+583398021+582286068+582213388+581393645+579766932
3418+579027656+579797248+580568187+579772610+577935793+576869660+577182505
3408+577844698+578171773+578690536+579640062+580107582+579141242+576688854
3398+573488964+570772026+569613852+569946605+570616586+570717398+570270950
3388+569383841+567568897+564780917+562578120+562722569+564777205+566463350
3378+566576426+566253937+566901936+568153752+568542807+567546041+566212339
3368+565723491+566000597+566214813+566101445+565880460+565357147+564241264
3358+562973689+562272882+562306838+563039162+564608299+566594150+567814376
3348+567542438+566228862+564571104+562826402+561291220+560532109+560885898
3338+562039886+563145797+563464975+562911746+561850891+560765906+560225306
3328+560489237+560947222+560642784+559586478+558888619+559344748+560402837
3318+560817295+560007232+558462515+557155926+556878857+557820011+559234255
3308+559849972+559186833+558092968+557735759+558580141+560260244+561873237
3298+562571678+562123556+560677213+558480130+556367445+555574015+556384987
3288+557888797+559373244+560843426+562061686+562405793+561927828+561499031
3278+561630196+561857951+561454557+560228873+558497963+556808034+555937193
3268+556639274+558935167+561806635+563801366+564021442+562611421+560507871
3258+558641902+557245165+556085754+555093210+554321798+553676019+553111399
3248+552800520+552910794+553520070+554616337+555606078+555340509+553546456
3238+551587609+550999224+551707965+552369175+552140911+551336744+550521986
3228+549844544+549297102+548934725+548625483+548025051+547047211+546037562
3218+545313281+544873238+544579719+544290130+543857402+543131192+541929236
3208+540255866+538645385+537722391+537306150+536678677+535753427+535054767
3198+534672518+534195681+533460263+532572389+531518958+530360858+529381489
3188+528714383+528309097+528253741+528616555+528999459+528721953+527525310
3178+525726344+523646195+521369081+519145430+517485526+516692496+516653299
3168+517022118+517308941+516986925+515953402+514624830+513203927+511446304
3158+509535025+508306210+508110664+508227526+507838653+506979568+506135112
3148+505426371+504663730+503904947+503375265+502815085+501598717+499821260
3138+498556815+498572246+499379325+499928877+499726926+498862599+497402791
3128+495416576+493333297+491721979+490756295+490182904+489742643+489327494
3118+488859318+488364393+488006128+487798390+487557788+487220996+486810578
3108+486208253+485457732+484945010+484662591+483828799+481965851+479769059
3098+478288142+477858253+478170697+478713408+478881113+478327229+477477824
3088+477126693+477310738+477148929+476100375+474882952+474604427+475296208
3078+475971431+475924045+475261670+474304175+473215368+472150291+471201931
3068+470327668+469574381+469042952+468567134+467910801+467225534+466849072
3058+466780214+466637912+465999776+464725614+463164702+461932139+461303065
3048+460983123+460586753+460119743+459711872+459105508+457905736+456280479
3038+454847420+453859025+453049654+452301971+451895666+451954989+452096344
3028+451802242+450942792+449826035+448768601+447702978+446422811+445188137
3018+444589998+444762361+445272171+445667777+445538759+444433867+442509413
3008+440773590+439945367+439591287+438970547+438141705+437634224+437516707
2998+437332006+436766440+436018830+435492278+435320242+435224926+434728327
2988+433525388+431748367+429911332+428659880+428411490+428861905+428976583
2978+428047329+426631594+425813306+425793798+425809484+425183176+424040033
2968+423096513+422858531+422984965+422635471+421474350+419994779+418895091
2958+418464620+418482380+418481616+418155705+417543045+416790158+415886234
2948+414750698+413465836+412269085+411327857+410635639+410136710+409793950
2938+409461779+408923145+408199700+407596466+407302692+407158389+406923246
2928+406550823+406049711+405271785+404058328+402525476+401051765+400015658
2918+399603384+399737715+400117197+400412027+400460213+400268015+399888387
2908+399320382+398518472+397566144+396758047+396272220+395840803+395067353
2898+393990011+392976577+392169389+391445690+390824186+390453693+390234126
2888+389858647+389210684+388418710+387621858+386918030+386384309+385975274
2878+385514050+384855824+384022724+383222924+382725852+382632428+382790633
2868+382916667+382732002+382122508+381274159+380518978+380009059+379647664
2858+379231787+378593578+377821911+377309772+377279419+377377174+377060035
2848+376233776+375230169+374346117+373665836+373155225+372697167+372093678
2838+371178654+370000464+368893170+368295176+368387690+368870205+369149640
2828+368790247+367795811+366524852+365367843+364463519+363722897+363042579
2818+362324739+361420925+360365092+359520637+359139662+358943461+358464258
2808+357617255+356703287+356030285+355658409+355386398+354992977+354522399
2798+354166682+353896273+353457031+352736571+351915299+351223444+350690269
2788+350183807+349612672+348999866+348370537+347642143+346714054+345667429
2778+344757719+344129336+343642745+343055633+342252340+341280869+340328832
2768+339618490+339169130+338747321+338143723+337371110+336588707+335977029
2758+335600349+335292344+334802733+334074157+333260345+332567436+332158983
2748+332048599+332003107+331699397+331011364+330043423+328950395+327874291
2738+326996462+326437301+326084823+325719170+325321782+325043111+324881521
2728+324636879+324137004+323332291+322313871+321372025+320819124+320661209
2718+320618810+320434947+320000145+319302067+318429297+317523991+316649728
2708+315805310+315061448+314531002+314181617+313814691+313290359+312688508
2698+312166724+311731121+311264074+310734720+310239977+309833708+309448403
2688+309028959+308633281+308328807+308076595+307789481+307421717+306936073
2678+306297681+305573436+304908496+304351555+303845784+303397698+303079649
2668+302864687+302633747+302351310+302098042+301904298+301652813+301222597
2658+300688457+300234913+299836632+299238056+298377060+297592892+297202163
2648+297071362+296841005+296416521+295998643+295721864+295482208+295099796
2638+294517871+293870272+293397747+293192666+293039573+292691717+292245288
2628+291948020+291726197+291273216+290554576+289851694+289343812+288973629
2618+288668499+288436486+288286815+288205001+288144641+288011311+287755841
2608+287442560+287106259+286656044+286065693+285528096+285262436+285266458
2598+285359099+285375113+285247678+284991809+284683295+284388702+284067323
2588+283629518+283141544+282837926+282839400+282977825+282967507+282649858
2578+282071136+281441479+280973777+280685462+280463985+280321756+280346941
2568+280403261+280198525+279708950+279239519+279012856+278980046+279069249
2558+279307394+279637472+279906916+280062520+280104410+279916834+279418051
2548+278786993+278306462+278068462+277959734+277836485+277648818+277453054
2538+277310971+277187503+276996434+276718600+276402207+276070019+275701855
2528+275319479+275026851+274911426+274954554+275080187+275209404+275242541
2518+275119510+274928787+274832014+274884513+275007616+275079295+275023721
2508+274879654+274743558+274587372+274248087+273670620+273037251+272586836
2498+272402518+272407322+272470120+272471940+272339537+272070730+271723037
2488+271383989+271148482+271051145+270997136+270848502+270583552+270273710
2478+269963431+269695005+269541385+269478205+269339852+269018164+268611149
2468+268312098+268207682+268197510+268093805+267815626+267449118+267101462
2458+266802374+266597929+266591724+266781356+266958323+266890666+266537242
2448+266008379+265432659+264963137+264757073+264793940+264842981+264741660
2438+264571826+264467757+264421063+264363633+264289662+264226063+264176021
2428+264114624+264000965+263835808+263708628+263708537+263808821+263909087
2418+263942206+263896950+263807256+263760617+263845852+264040671+264197730
2408+264213816+264182754+264256670+264387344+264408307+264348511+264390292
2398+264538052+264620449+264613025+264705411+265068990+265764247+266876818
2388+268589913+271058351+274314124+278419211+283628809+290198622+298056245
2378+306868489+316411856+326649734+337454052+348484633+359290698+369322512
2368+377971746+384768005+389389962+391575072+391344114+389064816+384911252
2358+378630264+370197175+360262824+350123465+341794865+337189029+336832002
2348+340095618+346265786+354732540+364133241+372135968+376914166+378385440
2338+377640450+375648302+372859849+369650424+366526671+363764350+361116487
2328+358078916+354308984+349753118+344671719+339598073+334994457+330893483
2318+326978884+322901347+318495898+313871320+309333251+305172718+301518410
2308+298285019+295179099+291897377+288431518+285078718+282108312+279520501
2298+277158843+274958521+273009828+271395653+270038876+268759310+267458089
2288+266202160+265138430+264338940+263714724+263094748+262415723+261795183
2278+261377505+261160122+261005501+260766646+260385344+259925048+259516286
2268+259252373+259156074+259205224+259313625+259334278+259169394+258858424
2258+258521340+258243925+258025615+257821934+257627225+257485688+257425128
2248+257436683+257498353+257558477+257550943+257492803+257511219+257715791
2238+258067413+258397254+258556061+258555351+258563685+258769495+259249844
2228+259924520+260593919+261073559+261366605+261678631+262199869+262898929
2218+263608507+264278125+265024916+265944635+266999303+268104123+269225957
2208+270382965+271612035+272941571+274355395+275776044+277121757+278391697
2198+279642840+280888396+282125236+283444890+284957034+286593137+288124387
2188+289375075+290338248+291115465+291803898+292441089+293036735+293616640
2178+294195418+294728884+295127438+295328316+295350461+295235692+294945121
2168+294398261+293588489+292596583+291557692+290597776+289666484+288532385
2158+287060930+285341284+283524648+281744552+280110542+278633300+277280127
2148+276045762+274878744+273912514+273836396+275408644+278525755+282385309
2138+286500077+290951819+295813942+300902128+305997829+311013900+316023347
2128+321184195+326580694+332200873+338042547+344115179+350386013+356786302
2118+363204133+369559766+376033062+383082661+391167748+400761885+412700356
2108+428056282+447539168+471264092+498801348+528851625+559186287+587557408
2098+612429114+632995856+649550062+663268575+674548093+682538737+686596256
2088+686740523+682944387+674956509+662266351+644420223+621930555+596143206
2078+568419430+540102610+512443797+486263755+462173578+440631252+421582550
2068+404787960+390319871+378105095+367580794+358321775+350348964+343696645
2058+338271321+333910892+330245884+326977027+324348818+322852106+322648480
2048+323640987+325839526+329549699+335417286+344222833+356624093+373228268
2038+394561291+420608203+450629001+483421293+517259263+549880429+579381554
2028+604929392+626414615+644179293+658910876+671108765+680950129+688499529
2018+693484956+695487803+694663619+691628413+686751150+679920827+670697074
2008+658580635+643417052+625720141+606485645+586480830+565777064+544223710
1998+522280575+501031149+481317706+463094971+445811679+429341471+414184804
1988+400761302+389001199+378618981+369336342+360846952+352922800+345601228
1978+339088117+333470740+328586817+324166520+320091167+316456330+313318528
1968+310478323+307647034+304764884+301999923+299494090+297277900+295373335
1958+293796410+292443254+291126474+289781107+288555095+287649934+287097106
1948+286745137+286484227+286346457+286246536+285837865+284927063+283810398
1938+282895902+282284424+281877009+281610366+281475126+281447047+281457875
1928+281464953+281574791+281913658+282346658+282650477+282920977+283309595
1918+283509199+283121655+282391259+281964173+282147527+282704887+283134903
1908+283122165+282823423+282648184+282806135+283195663+283652538+284174158
1898+284852091+285570059+285976309+286036287+286280456+287031578+287781263
1888+287879709+287474223+287156719+287172387+287381126+287595124+287730820
1878+287807758+287892156+288071288+288579643+289792135+291736551+293555826
1868+293997124+292914487+291449346+290535505+290203571+290121084+290120538
1858+290168251+290229921+290321598+290544440+291011341+291736078+292668716
1848+293938238+295748578+297629413+298304635+297342427+295966834+295321528
1838+295392897+295611062+295816999+296522246+298179803+300283008+301609614
1828+301775353+301557242+301365863+300870538+300096269+299656463+299886929
1818+300520025+301179343+301857768+302779197+303893424+304751618+305054436
1808+305107572+305474881+306454031+307982407+309698686+311021507+311542272
1798+311552753+311965100+313557456+316116626+318105934+318099675+316842290
1788+316119719+316552993+317584296+318697886+319958728+321362745+322527651
1778+323417272+324768080+327348103+330835252+333507899+333993725+333029096
1768+331934140+331288906+331568560+333096899+335180396+336587797+337222985
1758+337852860+338688253+339791763+341834498+345204931+348891048+351137918
1748+351518347+351154587+351156843+351982337+353545724+355272157+356586352
1738+357988149+360757458+364907419+367874022+367466844+365428366+363989484
1728+363599920+364125635+365355323+366911795+368878576+372102522+377101670
1718+382619035+385807133+385564128+383832273+382647786+382888679+384819612
1708+388287654+392436232+396162564+399637849+404123183+409642841+414129194
1698+416473892+417539078+417404383+416364818+416146416+417795767+420956969
1688+425355357+431603154+439268288+444548909+444760578+443112465+443099982
1678+445603541+449956509+454612168+458437419+462099079+466534808+470826124
1668+473475187+475468317+479011513+484539032+490356613+494767302+498206957
1658+502323836+508469911+517210859+526456084+530464654+529412424+529360417
1648+531848763+534182579+533820930+532076882+531326906+532356535+535228950
1638+539749440+544606468+547143110+546669839+545950798+547182816+550419646
1628+554589369+558886253+563292138+567475764+570556900+572929949+576403741
1618+581790524+587244454+590114539+591019955+592337753+594881455+597881395
1608+600257610+601679496+602670839+603904640+605593768+607617724+609990883
1598+612801936+615780222+618381463+620438829+622389414+624620453+626903826
1588+628793851+630346939+632024422+633993640+636036958+638258826+641367912
1578+645743590+650116502+652352490+653017777+654640232+658039525+662082997
1568+665729407+669537627+674521743+681159541+690105825+702848172+719766029
1558+735611784+745945343+754952478+765724078+776906641+786396800+793719610
1548+799517210+804689703+809723535+814330534+817866452+818701991+814540311
1538+807711880+803011420+801055740+799371488+796166102+792783259+791275592
1528+791569293+792262821+792878612+794330523+796927906+799439909+800747553
1518+800806003+799766583+798361912+798149952+800111164+804074859+809270281
1508+813843070+814032029+808788057+802997809+800053879+800139915+802466453
1498+805307532+806374174+805337011+804323578+804901299+806553961+807419780
1488+806328608+804354003+803447860+804306618+805975002+807198285+808075167
1478+809795013+812947481+816847559+819923891+820414121+818296850+816018717
1468+815717300+817332694+818958279+819037910+818761532+820545650+825073019
1458+829902678+830476907+826520344+822627399+821080863+821396983+822461515
1448+823189981+822953055+822248827+822294465+823815016+826575591+829718742
1438+831973146+831978969+829986094+828023208+827065530+826407813+825304923
1428+824018678+823096739+822523312+822186083+822296794+822619757+821863339
1418+819076342+815426146+812661350+811202523+810462847+809615153+808352200
1408+807246325+806861347+806791397+806411078+806099106+806530451+807511639
1398+808559720+809788826+811057165+811288850+810127947+808954161+808970247
1388+809425102+808554843+806535910+805980316+808854077+814458205+820506053
1378+825584212+829990316+834177981+837510746+839378935+840550392+842132959
1368+844134496+845939358+847513773+849192711+850655832+851129102+850564628
1358+849667874+848870477+848001019+846827014+845443087+844179989+843437983
1348+843456544+844077866+844989542+846274768+848312771+850980687+853282185
1338+854191604+853900668+853625965+854229236+855582664+857129200+858546319
1328+859757228+860756613+861780019+863393011+866084728+869751883+873688574
1318+877207168+880240700+883103179+885760321+887782457+889065063+890215048
1308+892027699+894675015+897523591+899777704+901156827+901954443+902619656
1298+903307143+903685498+903200727+901789431+900177968+899000032+897873776
1288+895989210+893345825+890654326+888339144+886366940+884629989+882933873
1278+881045740+879091734+877593093+877067342+877736995+879372552+881364481
1268+883173638+884620017+885825540+887197893+889181524+891573207+893417230
1258+893942617+893291525+892239950+891513521+891247989+890997232+890463766
1248+889909627+889446038+888563623+886930978+885073198+883756965+883159226
1238+882904102+882583615+882177018+882151106+883071152+885061115+887677642
1228+890149174+891726209+892080470+891409215+890093491+888606641+887780783
1218+888467033+890693413+893604660+896252777+898247909+899973432+902205199
1208+905070735+907738213+909652841+911346992+913413602+915623532+917614369
1198+919513639+921345506+922602126+923084786+923756696+926022164+930054426
1188+934544892+938366213+941675540+944901597+947761601+949927130+951728572
1178+953713950+956119536+958851723+961313501+962448419+962029449+961745719
1168+963635380+967375761+970617031+972281703+973557320+975352793+977313787
1158+979289266+981252225+982185373+981447225+980458467+981019739+983034305
1148+985119912+986511045+987533141+988745360+990081829+991321562+993146514
1138+996298836+999745734+1001238261+1000369676+999494905+1000801312+1004170398
1128+1008065818+1010969713+1011732537+1010008687+1007595459+1007772844
1120+1011779849+1016780125+1018969529+1018808739+1020364592+1025122774
1111+1029645994+1030695240+1029983732+1030960626+1033428810+1034450105
1103+1033239560+1032028797+1032653467+1035003297+1038183643+1041613508
1094+1045004868+1048157481+1050620788+1051431724+1049932937+1046850783
1085+1044616614+1045908973+1050439181+1054568106+1055852750+1056106636
1077+1057751873+1059623265+1059456797+1058587121+1060013119+1063255845
1068+1064653820+1062470822+1059115128+1057418793+1057432842+1058349976
1060+1060504150+1063932559+1067066466+1068588255+1069361268+1070457026
1051+1070604568+1067940146+1063296971+1059310856+1057406710+1058039606
1043+1061949074+1068326362+1073314409+1073741823+1071079294+1068592476
1034+1067858914+1068806402+1069863727+1068610091+1064351894+1058958997
1025+1054614254+1052788356+1054497647+1059347906+1064827930+1067887084
1017+1067638220+1065568771+1063651960+1062802446+1062454444+1061828682
1008+1061443995+1062413683+1064329038+1065052483+1063143387+1059707262
1000+1056930892+1055270879+1053188110+1049655759+1045655815+1042944008
991+1042486605+1043871115+1045477410+1046017719+1045703055+1044903692
983+1043118482+1040414100+1038103139+1036575309+1034634915+1032109374
974+1030251376+1029046727+1026970290+1023679087+1020447207+1017889057
965+1015434339+1012620847+1009518166+1006397434+1003438874+1000694895+998040664
955+995221713+992211255+989233625+986583470+984549178+983173185+982040014
945+980668316+979320710+978719769+978713364+977971649+975159977+970497075
935+966265591+964933708+966281314+967513913+966925273+965764879+965630585
925+966203357+966406801+966076778+965686414+965478020+965353115+965042891
915+964211501+963074327+962921326+964731866+967102367+967378163+965217874
905+962659578+960697711+958676958+956302526+954375815+953802752+954544248
895+955453012+955231516+954304701+954548979+956666104+959146152+960072313
885+959213336+957775837+956838176+956701188+956955438+956158113+952599267
875+946812076+941893760+940068808+940399558+940808265+940863148+941335545
865+942407937+943404266+943608656+943083997+942726896+943265968+944400449
855+945440887+946353072+947312933+947719238+946814914+945200030+944357503
845+944490852+944344474+943431489+942754629+943123230+944438735+946372579
835+948243461+948881160+947967447+946792277+946901897+948854738+952369765
825+956411927+959097530+959027507+956807023+954675485+954623733+956532101
815+958421980+958663055+957457023+956330913+956422991+957122924+956924139
805+955795190+955371561+956438859+957850518+958314544+957548664+955647430
795+952990360+950553111+949224212+949232219+950809472+954335418+959130066
785+963161309+964718181+963704529+961228412+958684455+957112079+956730959
776+956582616+955500179+953901817+953480372+955023196+957678810+960107833
766+961557343+961993564+961404123+959430537+956836575+956197492+958855726
756+962496023+964205896+964530897+965512813+966659522+966050938+963939709
746+962222484+961192381+959477194+957245719+956778126+959062737+962401471
736+965073753+966970038+967910319+966415172+961564840+954777098+948730124
726+945807741+947695436+954444819+962869864+967910974+968100370+967061242
716+967825084+968858534+966962031+962191330+957815215+956168085+956290807
706+955880426+954703582+954443581+955587234+956989212+957398429+955684843
696+951475705+946534679+943453180+942551185+941548961+938756650+935487502
686+933490260+932399597+930858375+928159015+924715902+921505495+919125531
676+917294027+914843968+910087242+901519896+890317971+884320857+891839031
666+906279023+915780828+917860103+915984272+912828601+908742767+903765347
656+898203799+892036724+885646116+880388460+877435287+876964710+878469174
646+880782464+882798195+884557201+886378878+887857866+888239860+886925301
636+883665324+878794321+872858640+866581873+861523731+859790856+862622764
626+868439362+872673758+871615413+865695892+858850138+854782064+854195462
616+856144809+860187844+865668815+870553721+873025326+872174065+867283336
606+858926639+850434773+845188837+843420659+842744163
##END=
