##TITLE=<SNM>
##JCAMP-DX=4.24
##DATA TYPE=INFRARED SPECTRUM
##DATE=3/5/2025
##SAMPLING PROCEDURE=Instrument type and / or accessory
##ORIGIN=Admin
##XUNITS=1/CM
##YUNITS=ABSORBANCE
##RESOLUTION=4
##FIRSTX=4497.3318
##LASTX=599.83466
##DELTAX=-1.4281778
##MAXY=1.7149915
##MINY=0.18167105
##XFACTOR=1
##YFACTOR=1.5972103e-09
##NPOINTS=2730
##FIRSTY=0.20229721
##XYDATA=(X++(Y..Y))
4497+126656594+126797600+126830179+126853773+127103309+127326797+127171237
4487+126775872+126560295+126672659+126880754+126921309+126770834+126502639
4477+126093652+125606336+125408205+125906064+127013802+128005237+128089595
4467+127245779+126294731+126014426+126438844+127033897+127214861+126795613
4457+126221728+126111388+126467718+126778223+126829843+126825215+126821315
4447+126623110+126064199+125059366+123762828+122789892+122734634+123386980
4437+123923659+123916494+123684096+123639147+123724250+123609936+123215858
4427+122766699+122352339+121792299+121001531+120138152+119385943+118891116
4417+118831921+119264940+119995122+120725798+121153453+120949977+120033475
4407+118857409+118052134+117818644+117977889+118416366+119052675+119542240
4397+119475665+118795890+117807038+116904849+116391204+116413660+116986155
4387+117953810+118810892+118864863+117994179+116936438+116420228+116375120
4377+116337177+116149272+115928601+115794910+115868557+116180497+116527079
4367+116722028+116858164+116984532+116780085+115984429+114966702+114415376
4357+114603739+115311315+116257662+117205939+117767024+117603758+116955928
4347+116551587+116699544+116797895+116148227+114953240+114006614+113742729
4337+114040191+114561607+114966917+115167007+115503549+116383871+117775449
4327+119167456+119883746+119617296+118880854+118577272+118939172+119290148
4317+118981351+118155532+117473658+117375335+117697883+117985521+118067947
4307+118121797+118280949+118532239+118896789+119384161+119837957+120050763
4297+119953298+119615505+119189184+118905465+119006028+119508813+120069394
4287+120258512+119976855+119377472+118503513+117412923+116595828+116749634
4277+117975996+119532556+120594000+121012717+121085058+120943931+120621448
4267+120349148+120289215+120205380+119774731+119082735+118634910+118916315
4257+119903618+121102159+122165414+123170760+124161916+124916830+125273217
4247+125233147+124822574+124216241+123733963+123516007+123512200+123750793
4237+124245545+124734205+124815447+124288368+123360727+122610981+122548585
4227+123142127+123949222+124593657+124952469+125144563+125454302+125959121
4217+126272555+126106359+125928548+126445197+127476097+127955735+127199001
4207+125756652+124797413+124879596+125552290+126073379+126251797+126457139
4197+126957881+127471021+127501529+127080862+126838006+127136624+127536916
4187+127524171+127355532+127609882+128212595+128500419+128171797+127715370
4177+127816950+128600534+129544436+129991626+129692215+129039066+128837568
4167+129593266+130868384+131612952+131355673+130738490+130618307+131061682
4157+131518165+131634886+131546424+131527606+131634335+131693139+131563991
4147+131323150+131060394+130659702+130101574+129742464+129897725+130446766
4137+131153157+131964721+132762691+133267304+133383821+133314801+133284900
4127+133353285+133418657+133305304+132955970+132554718+132388625+132623234
4117+133202651+133909276+134533671+134967968+135101119+134784830+134082665
4107+133445031+133407070+134090016+135062821+135705791+135759529+135544083
4097+135555577+135865587+136117147+136127410+136126533+136275096+136384400
4087+136325848+136313598+136580142+137081537+137566904+137735656+137513362
4077+137267735+137342819+137461182+137214659+136868339+136892064+137108723
4067+137075100+136811793+136532067+136214668+135911479+135945149+136466070
4057+137187623+137733230+138036224+138328778+138792174+139252995+139348137
4047+139063700+138872846+139102706+139419928+139333844+138991629+138957586
4037+139312526+139538188+139316426+138954395+138938078+139370024+139935242
4027+140351636+140768814+141523681+142497541+143078227+142891758+142261980
4017+141821236+141846137+142070744+142041235+141548638+140782463+140221480
4007+140304503+141030692+142026280+143047803+144001772+144512730+144208691
3997+143438644+142914457+142748765+142607815+142564013+143014534+143966712
3987+144962859+145520791+145408193+144775812+144133281+143939684+144206816
3977+144671909+145234590+145923657+146473882+146356191+145469646+144485898
3967+144193596+144717531+145601071+146387958+146882337+147041722+146904728
3957+146603842+146273998+145962057+145724463+145702529+145920559+146134130
3947+146139149+146113792+146371183+146956114+147650210+148192030+148406197
3937+148268121+147949640+147710637+147704414+147902116+148157604+148364541
3927+148573466+148877859+149172195+149254034+149243090+149510595+150080403
3917+150410434+149988545+148965501+147988992+147598860+147908282+148762015
3907+150043897+151622055+153005926+153514860+153061838+152232670+151515923
3897+151053021+150996559+151468137+152090657+152053236+151241552+150774825
3887+151447407+152578281+153053843+153091916+153575837+154252589+154303985
3878+154024959+154301896+155197340+156023588+156233073+155695582+154753303
3868+154303873+154910860+156087579+156804308+156609434+155903424+155343020
3858+155629445+157349318+160180614+162012647+161289462+159701787+159035699
3848+159416118+160066179+160250100+159961987+159992345+161119516+163021836
3838+164225490+163895786+162983530+162602868+162752102+162940763+163061132
3828+163249569+163611684+164485988+166201402+168169440+169128008+169097818
3818+169121515+169217534+168804946+168163338+168019851+168612703+169727391
3808+170823121+171469487+172103109+173249759+174310037+174573390+174877588
3798+176067900+177417542+177916521+177755997+177764655+178409006+179746892
3788+181605812+183664701+185616729+187426408+189428853+191953619+194836432
3778+197688010+200603421+204056359+208320908+213277219+218401742+223042810
3768+227222497+231722335+237162512+243519012+250421605+257430983+264095040
3758+270328708+276876762+284947463+295222164+306884571+317760726+326930870
3748+335998727+346495301+357726294+367203715+374620624+382527556+392641435
3738+404806794+417935107+430910901+442650985+452034253+458606209+462916509
3728+466046890+469019154+472256376+475482888+478457951+481588033+485483843
3718+490169263+495465803+502007941+510528007+519764205+527179659+532616178
3708+537791807+543654012+550758496+559483474+568608875+575682496+579717054
3698+581594670+582926026+585678637+591166991+598658835+605307553+608295529
3688+608027623+607084411+606753289+607106317+607928544+608959453+610102875
3678+611081726+611051386+610086605+610211209+612507533+615835363+618226438
3668+618631412+617967712+618581108+621923790+626772999+631087703+634733893
3658+638191701+640351516+640391446+639857501+640534225+642630300+645238080
3648+647924228+651107674+654679676+657443594+658303027+657972390+658564253
3638+660959171+663822728+665831181+667507430+669866224+672554387+674716590
3628+677039932+680003427+681822752+681051241+678723495+677671800+680141055
3618+685945343+692915146+698883334+702859639+704709117+704492971+702368385
3608+699361825+697598178+698304010+700692733+702748356+703072276+702580425
3598+703388509+706068387+709014491+710747836+711961715+714285207+717870568
3588+720429163+719674295+716752074+714136831+712633439+712070908+712878394
3578+715707320+719593390+721922479+721172164+718569459+716304333+715362502
3568+715191660+714797807+714052268+713620648+714008382+714829527+714825422
3558+712696058+708755057+705711179+706563746+711505764+717667185+721974500
3548+723541183+723609326+723898391+724679157+725160111+725728165+727385979
3538+729263670+729020581+725628079+720103825+713990544+708775955+706236392
3528+707804195+713184476+719501065+722688990+721231798+717552321+715160388
3518+715662389+718248151+720502008+720194433+717562172+715243010+715628430
3508+718988615+723874656+727915148+728787791+726909354+725640617+726967047
3498+729539076+731653811+733568820+735615412+736163240+733831240+730430006
3488+729096933+730049288+730139000+727158041+723171362+721747905+723440425
3478+726463553+729877252+733256170+735247159+734963990+733028978+730062722
3468+726467210+723749492+723323843+724638033+726498408+728853620+731515735
3458+732630049+730744372+727617649+726614766+728811376+731801217+732362256
3448+730039212+727017874+724766332+722887671+721328750+721621472+724720655
3438+728669195+730107728+728413790+726211806+725468208+725856838+726733885
3428+728403715+731199204+734325853+736286539+736293181+735131622+734329435
3418+734257934+733938193+732730211+731057918+729082006+726385260+723671721
3408+722737578+723936231+725439026+726010961+726914653+729534225+732984122
3398+735404566+736363936+736401702+734988023+731600297+727932538+726327641
3388+726724331+726848525+725155185+722648015+721373084+722309914+724872763
3378+727906714+730617193+732152006+731530065+728935943+726232107+725391035
3368+726734332+728947587+730565992+731174201+731191815+731146436+731486254
3358+732296725+732601912+731088817+728296911+726784189+728543955+732971733
3348+737361296+739535516+740023187+740777010+742147774+742546330+740873067
3338+738089221+736534330+737777242+740416071+740993678+738229536+734526474
3328+732693490+733673012+736992147+740682372+741682568+738814533+734535953
3318+732140811+732237315+733244303+734281593+735995459+738995749+742368547
3308+744166676+743297988+740364796+736926019+734518413+734202852+736009117
3298+738497330+739782337+739662472+739703820+740697672+741884607+742956230
3288+744186380+744748090+743750655+742101201+741162952+740696926+740014231
3278+739637095+739261602+736605981+731271451+727137889+727934553+732593702
3268+736723308+737336144+734921298+731948772+730614133+731396541+732929862
3258+733606586+733032038+731824280+731190247+732261721+734863828+737390554
3248+738672575+739248615+739690833+739449834+738241851+736614190+734935777
3238+733337822+732597657+733644277+735652133+736088007+733947000+731387659
3228+730755493+731678740+732275230+731875405+731164274+730440679+729546316
3218+729058645+729915316+731900110+733551952+734018054+734001112+734419819
3208+735314182+735995757+735499727+733491348+730757284+728653596+728096140
3198+728702482+728827945+727032652+723767106+721057597+720492529+721999279
3188+724275526+725707118+725236389+722954395+719892456+717433873+716815888
3178+718403917+720990127+722483965+721922628+720355497+719055190+718006256
3168+717062485+716828053+717408199+717983194+718282036+718771723+719141991
3158+718328385+716122818+713486005+711347909+709925348+709201156+709278777
3148+709794288+709641209+708110128+706050847+704997287+705258587+705670204
3138+705204625+703990746+702619236+701599187+701723829+703496358+705783502
3128+706346630+704251673+700805434+697858732+696032465+694786642+693765473
3118+693485962+694213811+694974501+694728127+693691061+692618393+691937639
3108+692115123+693494321+695213186+695362682+692977392+689360087+686764099
3098+686067373+686445628+686949570+687049433+686005948+683601401+681126921
3088+680024623+680164566+680516176+680768296+681319034+682287361+683345102
3078+684065786+683932188+682673527+680920404+679552849+678387185+676752882
3068+675224114+675275762+677113225+678907025+678421145+675229413+671223180
3058+668623834+667870235+668150493+669026271+670303516+671168621+670760736
3048+669311903+667928078+667316362+667100141+666499994+665429192+664440042
3038+663936548+664023648+664637902+665249842+664999214+663609568+661756208
3028+660422165+660036372+660123099+659921209+659209555+658215404+656883451
3018+654781032+651940985+649331190+648112758+648570202+649982762+651201566
3008+650951088+648353981+644016364+639871905+637523262+637278978+638384038
2998+639649714+640468769+641259761+642193904+642138674+640031477+636627182
2988+633795943+632623935+632743352+633174225+633371637+633214977+632395474
2978+630623020+628314754+626332349+625215646+625092870+625909499+627246042
2968+628158466+627840368+626381683+624405771+622088549+619289701+616653858
2958+615443674+616011467+617203851+617427273+616108829+614061118+612418717
2948+611410833+610501357+609499929+608819734+608624599+608429127+607811739
2938+607076425+606723659+606367757+604892167+602053277+599143744+597525227
2928+597214256+597350952+597412340+597316880+596762970+595281484+592990384
2918+590765188+589435213+588979859+588644445+587970520+587356565+587078621
2908+586380737+584515175+582277253+581240000+581617173+581994346+581196711
2898+579640739+578633452+578865122+579818186+580261598+579147470+576527487
2888+573735058+572082394+571403954+570524332+568940706+567258673+566270195
2878+566279114+566931768+567265764+566368304+564346640+562362481+561477971
2868+561675681+562141484+562184400+561511631+559968347+557754869+555671966
2858+554419015+553886936+553614141+553471437+553459309+553287422+552569798
2848+551247174+549704524+548478032+547708237+547007666+546026689+544849979
2838+543657147+542391956+540982979+539551424+538261902+537209050+536424701
2828+535800781+535125102+534272685+533225468+531995169+530728075+529734633
2818+529151391+528717457+528075066+527155402+526188456+525434222+524926959
2808+524440594+523707483+522668326+521495908+520388198+519407146+518575217
2798+517951783+517391640+516454026+514916376+513216207+512041475+511568544
2788+511275411+510492779+509130001+507762223+506850470+506059852+504733907
2778+502918238+501367266+500545562+500118607+499499912+498539646+497484070
2768+496460998+495355453+494219755+493383422+492855448+492034005+490489936
2758+488674790+487332127+486574684+486033014+485505711+484911534+483963583
2748+482465155+480711397+479189197+478023794+476970494+475822071+474575763
2738+473253848+471870807+470631029+469767790+469088603+468182187+467141388
2728+466440594+466073236+465531529+464649556+463748103+462967411+462137198
2718+461262502+460544504+459911629+458989800+457605453+456049219+454781080
2708+453995387+453495923+452906486+452022759+451038199+450295572+449729980
2698+448812854+447274533+445615077+444516137+443909198+443085628+441718932
2688+440268382+439220755+438467939+437710235+437000559+436530614+436221435
2678+435819259+435150260+434152825+432890619+431577549+430411214+429409860
2668+428494563+427600424+426675909+425778188+425152477+424952938+424890990
2658+424440898+423434395+422231040+421270102+420630472+420087197+419469771
2648+418796592+418087775+417316002+416570352+415948597+415290196+414372995
2638+413306037+412366184+411578588+410792000+410005225+409322343+408747609
2628+408262886+407954155+407817310+407544441+406818905+405812364+405017492
2618+404556801+404059875+403252762+402293466+401514976+401117950+401056376
2608+401036149+400709020+399961205+398951717+397914837+397039581+396487014
2598+396328002+396368231+396208809+395678595+395042883+394581745+394214275
2588+393742874+393173477+392615834+392142344+391818424+391609070+391286606
2578+390692392+390014772+389556507+389297707+388927849+388303183+387651649
2568+387269326+387173456+387112479+386838005+386365485+385993611+386006934
2558+386348356+386663879+386678433+386450533+386216250+386046640+385784705
2548+385334651+384832164+384443498+384193691+384087671+384175331+384385916
2538+384506490+384426369+384233211+383994413+383634705+383154050+382784490
2528+382727244+382833414+382763517+382445046+382167213+382182402+382379553
2518+382432134+382171020+381714285+381279232+380954640+380642364+380206900
2508+379721132+379465803+379552828+379701727+379578167+379199726+378795050
2498+378432095+378036674+377662375+377470075+377430257+377290128+376955721
2488+376697705+376767975+376976806+376915455+376524624+376151333+376029452
2478+375997918+375835473+375611043+375511815+375514501+375447068+375244394
2468+374970480+374721009+374604951+374654807+374698656+374496318+374028500
2458+373515564+373170261+373020989+372926164+372697181+372262763+371752999
2448+371398143+371341531+371525136+371713853+371680043+371412286+371081164
2438+370810198+370605360+370466985+370371339+370165082+369711147+369158542
2428+368870932+369033228+369419432+369599752+369377599+368964451+368662250
2418+368500626+368351839+368231974+368216599+368202157+368064491+367961605
2408+368161182+368598138+368894667+368847833+368628590+368450881+368344525
2398+368335643+368520853+368818165+368904295+368529846+367748147+366806092
2388+365913894+365058230+363918502+361980244+358807657+354278300+348599363
2378+342085362+334947591+327362789+319634498+312112408+305023207+298481758
2368+292591415+287558807+283719161+281295396+280297495+280904677+283595452
2358+288567624+295402671+303717339+313822672+325801852+337817679+346494368
2348+349212609+346010653+339966933+334846497+331608417+328763892+325334408
2338+321614739+318069308+314705354+311435871+308640811+307007627+306753939
2328+307378213+308245893+309087899+310038126+311508977+313874731+317029853
2318+320356862+323239563+325549583+327627895+329895074+332519274+335346707
2308+338022555+340241183+342008338+343591739+345121888+346395737+347215426
2298+347735900+348275182+348939778+349618815+350219336+350754849+351294728
2288+351916446+352627689+353282992+353646843+353592620+353224403+352762705
2278+352322838+351892487+351505761+351254686+351090599+350829298+350433467
2268+350115779+350103539+350432310+350953194+351435641+351700188+351735043
2258+351681566+351680783+351747544+351802029+351791580+351725266+351603534
2248+351426722+351281182+351282264+351426871+351624843+351830950+352038998
2238+352227454+352392250+352567420+352800583+353130623+353515035+353790927
2228+353831865+353711141+353611017+353648522+353844180+354149180+354473025
2218+354775935+355131314+355620441+356176329+356603359+356788754+356838872
2208+356953812+357244593+357717748+358292818+358798439+359137286+359442846
2198+359865994+360318773+360669152+361005088+361467346+362030026+362639690
2188+363342835+364099158+364664600+364846786+364800923+364916646+365403757
2178+366108955+366772842+367312049+367764156+368154987+368591794+369324159
2168+370506392+371968399+373375809+374606630+375889734+377552212+379696353
2158+382210614+385030173+388165069+391467299+394663733+397683689+400643303
2148+403461743+405874723+407904559+409937791+412235459+414681764+417098289
2138+419540937+422198051+425172480+428425002+431830826+435250533+438560115
2128+441651386+444524758+447370850+450318074+453053183+454960915+455680890
2118+455289835+454023786+452119002+449845517+447435746+444954250+442284224
2108+439272328+435979652+432730078+429747588+426871455+423835713+420670813
2098+417610179+414737181+411874445+408739661+405209007+401508520+398058101
2088+395079306+392505635+390246852+388296056+386593237+385061707+383743450
2078+382649735+381596696+380452975+379400347+378691156+378302863+378028688
2068+377735891+377375026+376900342+376317547+375726206+375251708+374954508
2058+374774598+374554385+374177996+373709245+373329609+373130667+373039536
2048+372959265+372889406+372883846+372988411+373263369+373784478+374574984
2038+375573277+376690727+377895649+379235439+380745137+382328016+383776775
2028+384911241+385640173+385921326+385732833+385091039+384081700+382855170
2018+381531128+380129988+378688059+377354016+376214624+375134754+373938825
2008+372650422+371434341+370427502+369680620+369104991+368457561+367550026
1998+366496763+365619977+365106930+364855817+364641015+364346614+364013290
1988+363707394+363418143+363088886+362703205+362323233+362042789+361878664
1978+361713532+361412526+361005872+360669002+360500362+360423861+360325752
1968+360162784+359918799+359582714+359197406+358845982+358583488+358422610
1958+358358460+358354243+358308902+358100145+357719726+357334866+357135998
1948+357154396+357288106+357409352+357357779+356980681+356332132+355702130
1938+355346937+355291707+355398436+355558418+355799604+356180285+356613472
1928+356914143+357018670+357010125+356961723+356923398+356978927+357105509
1918+357093008+356837902+356572012+356557868+356763341+356966612+357001430
1908+356852008+356640863+356541187+356599739+356666949+356594067+356455841
1898+356450019+356585036+356640416+356508459+356346611+356261750+356140914
1888+355952421+355877263+355991717+356154237+356249137+356288694+356321869
1878+356434607+356718037+357125474+357525560+357887433+358177916+358158361
1868+357653822+356989674+356683704+356834991+357136185+357261312+357101591
1858+356792561+356622316+356768677+357094762+357358824+357554557+357864706
1848+358383351+359012271+359510130+359644923+359481395+359342946+359435793
1838+359722507+360025976+360214171+360385199+360767298+361377447+361961174
1828+362372232+362700929+362959244+363072541+363135758+363307644+363558533
1818+363777776+364035979+364562050+365452606+366478776+367233905+367556220
1808+367734115+368151629+368891420+369803770+370772320+371738930+372594781
1798+373314831+374159150+375469496+377181831+378628276+379240551+379425761
1788+379965752+381067453+382461764+384006877+385839339+387908247+389806575
1778+391321386+392824554+394809795+397204154+399283772+400510563+401185160
1768+401801727+402613692+403911126+405922079+408365697+410556374+412202470
1758+413590362+415010498+416640957+418694714+421200467+423731185+425678101
1748+426919147+427863105+428993429+430631539+432779487+435042747+436999029
1738+438821751+441097886+443948718+446650912+448562152+450059498+451601514
1728+453273583+455211132+457525928+460093591+462868294+466087827+469882244
1718+473857429+477198283+479516475+481288258+483162366+485437232+488120581
1708+491148673+494400001+497726301+501291399+505506016+510273312+514697842
1698+518370453+521831060+525211285+528293675+531398045+535038823+539335801
1688+544160417+549566112+555586620+561460730+566247394+570316918+574502091
1678+579176764+584236857+589154321+593590047+598060030+603152814+608528953
1668+613450223+618124933+623343329+629227850+635044453+640220903+645179864
1658+650573804+656567667+663113687+669850028+675378536+679183924+682750552
1648+687041820+691751049+695957157+699492363+702940395+706711749+710897631
1638+715139938+718219417+718851508+718002972+717697189+718169784+718590506
1628+718609986+718604389+718659694+718056636+716458158+714851470+714006666
1618+712951239+710012822+705578253+701639789+698619645+695676153+692384111
1608+689029002+685959897+683308530+681214917+679857588+679175192+678761783
1598+678175966+677300934+676364029+675619535+675009013+674129727+672549983
1588+670282021+667996071+666530072+666060985+666116738+666515518+667598859
1578+669271898+670495554+670605344+670683786+671833702+673804912+675860087
1568+677928846+680568943+684110717+688650000+694420254+701738010+710248821
1558+718078653+724374045+730690187+738067352+746496138+755710318+765197367
1548+774075089+781915818+789050939+795573598+800852374+804084484+805144239
1538+805461293+806553664+808491587+810483545+811940140+813334862+815494901
1528+818537435+822086225+825909451+829790146+833100549+835618542+838317228
1518+841764587+845262849+848375914+851586528+855165993+858699856+861663276
1508+863326761+862726390+860881016+860469698+862358733+865841097+869662009
1498+872499444+873864311+874569024+875774693+877903011+880363833+881888123
1488+881990747+881826772+882564623+884254157+886485249+888928158+891094839
1478+892495383+893420122+894711697+896131123+896078878+894395539+893072318
1468+893339739+895138764+898328928+902433158+905878950+907088351+905525325
1458+901825024+898523877+898415281+900794601+902991584+903456268+902571906
1448+901702024+901577532+902015122+902774692+903851017+905334332+907318677
1438+909378704+910254706+909361687+907893897+906943856+906625160+906926540
1428+907889120+909178307+910206193+910504736+909871376+908383285+906597545
1418+905791999+906842500+908846326+910029007+909524990+907892031+905962990
1408+904007603+902288588+901342055+901282048+901532452+901534243+901239580
1398+900798780+900070781+898719647+896743810+894657437+893022909+891865455
1388+890471181+888217549+886042434+885811883+887986252+891212540+894069007
1378+896367495+898623217+900914466+902798650+904342719+906374309+909112552
1368+911709062+913796779+916070936+918515263+919898192+920029029+920346456
1358+921658182+923491316+925338779+927001892+928081053+928219428+927831545
1348+928085083+929902394+932895817+935604355+937056174+937623556+938059878
1338+938319611+937911576+936991315+936405124+936775543+937866347+939037385
1328+940328587+942532213+945971437+949801753+952754874+954186913+954266251
1318+953439882+952067850+950614912+949724878+949720251+950246733+950577743
1308+949970654+948175660+946259084+945966884+947441093+948803348+948786257
1298+948204619+948076693+947994444+947037462+944982137+942087830+938670400
1288+935234161+932422178+930610838+929656991+928921379+927563378+925260710
1278+922589266+920167031+917757036+914921393+912016264+909676651+907809707
1268+905842304+903682191+901931231+901092697+900706903+899588932+897160502
1258+894062439+891189925+888868001+886988594+885294059+883642515+882251301
1248+881419558+881086533+880975698+880958980+881147734+881766018+882736211
1238+883468613+883679012+884102422+885562226+887786452+889835731+891250903
1228+892316779+893639701+895638675+897980602+899623563+899896282+899351739
1218+899235083+900341262+902576086+905285818+907762313+909712177+911417758
1208+913283656+915308679+917305937+919398504+921736102+924015260+925851752
1198+927151537+927830425+928036122+928768076+931062908+934340247+936795769
1188+937898142+939069105+941405956+944350867+946954094+949038675+950845388
1178+952493051+953945317+955193902+956421066+957796531+959174535+960583661
1168+962535242+964991809+966840616+967430315+967802076+969484370+972775293
1158+976559858+979396994+980876129+981767506+982854877+984240717+985635364
1148+986691388+987234364+987692480+988802242+990620149+992585836+994445092
1138+996184333+997548604+998527603+999596763+1001183374+1003034345+1004161348
1128+1004143361+1004208145+1005738032+1008138324+1009582604+1009673585
1120+1009704037+1010521076+1011980433+1014334824+1018277019+1023067527
1111+1026001914+1025328698+1022981771+1022483352+1024892898+1028359290
1103+1031006478+1032328429+1032377988+1032025781+1033184130+1037138567
1094+1042998607+1047989289+1049540970+1047550952+1044140015+1041517233
1085+1040661383+1041490514+1043394924+1045473087+1046788247+1046846165
1077+1046201385+1046421859+1048597497+1051449784+1052169200+1049840708
1068+1046822953+1046681667+1051044660+1058022897+1063010070+1062507248
1060+1058298005+1055242260+1055549910+1057972144+1061176041+1065002775
1051+1068620155+1070175121+1069024981+1066827326+1066087236+1068096883
1043+1071617983+1073715327+1073147422+1071557901+1070643461+1069978679
1034+1067985078+1064364713+1060963702+1060097627+1062504337+1066742241
1025+1069839035+1069059836+1064446738+1059539574+1058388389+1061982408
1017+1067960672+1072765436+1073741823+1070614801+1065920648+1063366457
1008+1064576604+1067224837+1067261856+1063381086+1057954008+1053931429
1000+1052831370+1054626663+1057307138+1057627700+1054376558+1049657327
991+1045746180+1042768355+1040174309+1038288333+1037230518+1035671224
983+1032179829+1027588226+1024344996+1023118578+1021851335+1018904782
974+1015155819+1012050815+1009645522+1007346884+1004864941+1002157149+999420622
964+997037347+995031581+992643082+989118325+984835640+980734171+976914229
954+972559894+967516967+963157109+960809510+960115918+959897458+959769010
944+959750575+959371350+958508857+957907515+957913262+958028127+957826610
934+956999420+955028583+952069790+949399466+948222905+948699157+950101864
924+951285814+951417099+950640736+949553663+948344337+947093738+946099736
914+945305610+944429832+943695936+943355596+942977192+942049542+940800136
904+939973543+940298658+942175229+944924444+946504561+945349719+942240088
894+939005963+936336310+934346516+933734053+934514074+935094517+934356517
884+933322436+933485217+934960247+936734344+937210521+934855757+930043754
874+925576718+923829043+924325969+924922086+924555923+924213568+925296535
864+927641895+929686920+930276618+929630122+928854580+929153870+930956925
854+933302882+934692528+934746789+934293898+933990801+933874220+934001474
844+934427496+934660062+933970351+932482707+931268978+931001333+931287338
834+931575582+931988170+932697360+932941793+931416384+928040600+924734676
824+923584984+925012695+928479832+933746219+940156178+945786265+948599294
814+948314110+946912447+947024849+949375881+951828044+951502184+947884953
804+943286857+940174986+938758545+937714090+936628137+936503719+937818580
794+939794865+941524702+942262180+941382297+939346527+937837911+937804101
784+938581359+939373396+939973991+940018474+939059776+937596090+936953400
774+938001289+940331348+942846057+944807415+946099960+946800568+946758622
764+945773726+944115913+942551021+941634790+940968291+939571853+936969671
754+933763311+931496617+931594316+934100665+937848807+941631133+944352658
744+944761140+942616402+939892563+939029399+940188495+941771822+942898526
734+943961416+945459061+947488935+949760778+951028992+949645540+946093093
724+943286857+943373658+945297101+946280504+945332329+943807592+942506613
714+940311346+936659260+933606127+933878549+937622437+941829665+943207519
704+941159956+937193504+932241633+926425404+921007805+917783980+916196025
694+914067856+911320209+910076699+911509112+913761550+913287612+908446128
684+901090607+894697143+891912700+893432138+897696836+901314067+901666647
674+899059539+893649553+883437789+868910201+858168298+860060842+869699999
664+877598795+881229759+881545394+879473277+875574295+870147815+864032370
654+859155806+856927028+857561135+860566874+864690957+867512046+866409002
644+861389063+855255183+850552596+848379944+849390888+853400704+858345708
634+861521169+861932487+860675991+859122220+857842587+856468689+853758135
624+848781560+841984913+834926144+829792311+828418562+829994425+830587855
614+827755198+823734112+821503542+820951609+819966340+817690168+816254695
604+818226427+822919311+827106238+827710938
##END=
