##TITLE=<SNM>
##JCAMP-DX=4.24
##DATA TYPE=INFRARED SPECTRUM
##DATE=2/5/2025
##SAMPLING PROCEDURE=Instrument type and / or accessory
##ORIGIN=Admin
##XUNITS=1/CM
##YUNITS=ABSORBANCE
##RESOLUTION=4
##FIRSTX=4497.3318
##LASTX=599.83466
##DELTAX=-1.4281778
##MAXY=1.8622892
##MINY=0.40633374
##XFACTOR=1
##YFACTOR=1.734392e-09
##NPOINTS=2730
##FIRSTY=0.43162075
##XYDATA=(X++(Y..Y))
4497+248859978+249767094+251659337+253188037+253636311+253129133+252106495
4487+250960309+250036251+249793058+250585992+252073331+253130576+252686924
4477+250708954+248317214+246863244+246851749+247756390+248667097+248976635
4467+248670105+248118731+247607017+247257271+247374185+248271335+249558491
4457+250221142+249753227+248709798+247935404+247685854+247614578+247452850
4447+247551636+248364004+249401145+249467197+248192653+246608762+245917106
4437+246256112+246905687+247317601+247494553+247441320+246880050+245799796
4427+244750507+244280513+244517246+245260555+245969428+245944771+245025626
4417+243713469+242604263+242271803+243241001+245220140+246782020+246728786
4407+245518027+244632493+244872318+245913463+247219211+248512861+249317944
4397+248927182+247272650+245308341+244141485+244048850+244504599+244918747
4387+245076386+244888763+244105830+242724596+241548770+241653123+243025061
4377+244304639+244262712+243112764+241949395+241410274+241358192+241400565
4367+241344789+241348208+241656010+242111828+242176488+241567173+240570619
4357+239645083+238961022+238415594+238076639+238472522+240019487+242135798
4347+243550058+243573220+242667634+241830316+241612984+241631009+241053380
4337+239596300+237764043+236286344+235680019+235960036+236447436+236437985
4327+236241736+236745718+237866146+238475598+238102448+237536676+237279341
4317+236690251+235403576+234318254+234280228+234871002+235317386+235665293
4307+236322050+237177823+237774937+237982647+238140612+238543454+238955368
4297+238866772+238223985+237600580+237571558+238171318+239013705+239672250
4287+239864495+239529440+238940041+238577803+238734170+239276075+239799422
4277+239915975+239358073+238127484+236721868+235920652+236092329+236817544
4267+237407579+237707115+238080076+238605262+238739789+238061174+236970457
4257+236256067+236286395+236959287+237973557+238855448+239295062+239666373
4247+240553281+241711237+242325535+242220030+241928020+241734194+241469470
4237+241017965+240391743+239589822+238699614+237816280+236915419+236211786
4227+236358908+237720037+239640151+240934404+241038516+240328783+239436686
4217+238665111+238108909+237942250+238298010+238976194+239557638+239874976
4207+240140800+240498484+240752022+240732880+240563248+240366930+240066672
4197+239593293+239038655+238586532+238409975+238522972+238765563+239078486
4187+239589427+240270945+240813056+240954474+240700730+240296548+240117671
4177+240291737+240400901+240007957+239379225+239155741+239404880+239459986
4167+238808178+237838653+237415844+237783666+238290552+238371588+238325726
4157+238696315+239292880+239416994+238931501+238595484+239162494+240372807
4147+241060494+240350520+238691040+237453320+237490350+238312615+238753071
4137+238282889+237403936+236833387+236783676+237159007+237905048+238777506
4127+239192255+238828763+238092327+237548738+237284633+237231194+237540267
4117+238083495+238200684+237565062+236771149+236521787+236718689+236789466
4107+236498263+236082637+235869961+236028029+236556549+237307985+238031843
4097+238554331+238868937+238934920+238615881+238019505+237635668+237852897
4087+238532405+239261899+239729624+239722442+239187358+238525944+238433361
4077+239114003+239891438+239906576+239028964+237766861+236521753+235408577
4067+234617396+234363892+234552134+234925541+235391479+235856456+236053220
4057+235919896+235854101+236211236+236773623+237038863+236924440+236901397
4047+237469679+238646673+239824561+240134803+239258960+237833446+236750804
4037+236234932+235927181+235593261+235334603+235357147+235801933+236545912
4027+237127768+237218959+237111857+237315082+237778408+237970069+237653384
4017+237253704+237335427+237896938+238385352+238325176+237720003+236893081
4007+236244228+236137211+236658754+237449437+237990070+237975997+237394159
3997+236589180+236231804+236721937+237650188+238291497+238481869+238636999
3987+239095789+239786346+240447536+240927066+241199196+241252275+241158025
3977+241134622+241301556+241447115+241244078+240657102+240036945+239832740
3967+240219894+240994304+241790022+242330243+242556201+242633989+242675160
3957+242510683+242097222+241971287+242824344+244708649+246808550+247927483
3947+247614406+246880513+247014697+247816652+247902172+246679625+244966620
3937+243933723+244496574+246915378+249960456+251258076+249912773+248045720
3927+248197860+250247432+251847527+251707605+251199224+251972243+253598508
3917+254131117+252294873+248812192+245506617+243703125+243795433+246036133
3907+251153551+259239874+267908414+273169363+273434344+270066429+264237319
3897+257279534+252261091+251867339+255371603+258443555+257940381+256548718
3887+258099892+261873931+264581996+265927660+267354721+267059910+263256746
3878+259451124+259766383+263924208+269353878+274368025+277100112+275584988
3868+271964016+270321839+270851682+270285531+267106803+263657508+262981214
3858+266968410+276617953+290029730+297241465+289467188+275322326+264653994
3848+259943971+260683637+265378229+272080277+279261151+285933181+290200600
3838+289554376+284650321+279215238+275215120+272071445+269357607+267751085
3828+267346164+267658777+269934514+276199612+284350973+288007651+286292944
3818+284050130+281505168+275717848+268453910+264194310+264863010+269675220
3808+275572650+279404029+282589580+288398568+294591823+295148351+290713792
3798+286463659+283203499+279568988+276448493+275507526+276863535+279892667
3788+284165326+288842649+292849417+296752226+302663094+310949772+318677689
3778+323494402+327452850+334203252+345396530+360162597+375242876+386719160
3768+393802777+398194826+400818762+402856203+406261251+410702408+413227335
3758+413065092+413709219+418821242+429251965+441834295+449953094+451730073
3748+453422613+459163848+465886585+467987775+467714735+471917631+483478216
3738+500974137+519340178+532560140+539148745+542192671+544818429+549018507
3728+556049716+565141116+573229707+578270144+581183376+583316355+584963464
3718+586727486+590328869+597203505+605639195+609580461+604380151+593395993
3708+582763401+575941552+574013293+575422277+576519387+575384612+573540482
3698+572482549+572651528+575191783+581398303+590739684+599936726+604046042
3688+601209516+595380991+591195518+590354987+592052133+594599913+598143354
3678+604010370+609278175+608174398+604000060+603863970+605844500+602594203
3668+593562944+584403568+577670796+573035125+570367406+570189835+572750984
3658+576650529+579026409+579725145+582962107+591570592+601874298+604851795
3648+596873863+584437315+573788916+567264954+564926430+565013342+565527771
3638+566245993+567886468+570333074+573689494+579446503+587185520+590720438
3628+584984839+575936088+571097312+571797526+576425155+582584765+586897462
3618+587589737+587165519+588300776+590437123+591879683+592364110+592251320
3608+591199299+589516862+589041301+591051661+594324364+596674607+598225146
3598+600773064+603987826+605118202+603314521+601646724+603437209+608553321
3588+612927945+612031535+606206308+599557253+595051830+593171443+592966208
3578+593513319+594471108+595523061+596656049+599086160+604108933+610512269
3568+614430097+613401032+609363610+605377943+602285938+599707159+598103902
3558+598589360+601144633+604131889+605671362+605352443+604725808+605524275
3548+607142378+606597603+601808727+594223602+587180709+583103147+582323100
3538+583143493+583608950+583847383+585357576+587954088+589191344+587551384
3528+584992537+584467283+585900427+586767282+586113085+585309945+584946693
3518+584107468+582394307+580310128+578281004+576613688+575749067+575713772
3508+575776216+575186215+574104983+573478863+573830361+574352111+573716059
3498+571681780+569298923+567787287+567634804+568554652+569822116+570373283
3488+569193625+566618661+564591324+564329315+564546201+563267362+560689030
3478+558620762+557851679+557565236+556737111+555134301+553176590+551517041
3468+550689878+550789059+551452363+552148143+552349461+551646189+550161393
3458+548635770+547502094+546425432+545280037+544554908+544264788+543802767
3448+543137642+542649606+541890798+540050826+537549543+535661424+534783571
3438+534243848+533471053+532543163+531747823+531057198+530064836+528446390
3428+526563563+525263176+524975874+525369299+525874381+526291313+526719998
3418+526944754+526286089+524430068+522399054+521873834+523238657+525146778
3408+526156047+525902458+524629702+522591918+520186964+518092543+516937801
3398+516893194+517642070+518678145+519371245+518994796+517498247+516127134
3388+516215456+517224450+517109873+514929159+511905234+509508802+507906714
3378+506801940+506559864+507494971+508796114+509333981+509161978+509109500
3368+509198647+508846117+508446093+509080083+510487211+510993014+509937591
3358+508624248+508373615+509092970+509898413+509993539+509083863+507770108
3348+507090514+507175571+507153198+506604059+506091108+506180323+506874831
3338+507898672+508708446+508373958+506466834+504059715+502841773+503197121
3328+503918023+503781726+502648429+501063455+499631686+498806860+498685719
3318+498966182+499316375+499672822+500182681+500974858+501811609+501902096
3308+500386645+497354780+494276900+492940738+493727451+495259982+496108280
3298+496298223+496602158+497196730+497777348+498232736+498502203+498403503
3288+498070802+498033549+498546432+499164235+499229737+498654617+498032656
3278+498004132+498629702+499436279+499987686+500169518+499897853+499013333
3268+497765836+496991494+497292612+498171599+498411991+497277937+495184926
3258+493421625+492983352+493477058+493556925+492567760+491239399+490494647
3248+490375568+490582109+491141283+491853353+492089450+491842940+491767506
3238+491671865+490474337+488158426+486234909+485652606+485561501+484774857
3228+483520624+482856048+482890311+482596205+481283721+479399863+477816470
3218+477088935+477258911+477696016+477481055+476508695+475635962+475403406
3208+475421929+475185145+474607276+473658972+472369892+471183051+470511224
3198+470056318+469205992+467915778+466640238+465679734+465062550+464748614
3188+464602419+464382922+463903821+463086178+462014465+461075611+460678096
3178+460649091+460302370+459317775+458166641+457394018+456843263+456002767
3168+454898302+454046533+453533204+452785668+451406961+449716620+448283854
3158+447244582+446235278+444916609+443454941+442335459+441730680+441325399
3148+440768218+439920607+438712769+437283852+436208153+435983706+436326613
3138+436503119+436183993+435441578+434310342+432982600+431948002+431364737
3128+430812608+430003797+429157939+428532747+428180321+428113925+428192280
3118+428068424+427579839+426823436+425803135+424597324+423732806+423615341
3108+423754147+423278964+422101849+420967177+420476976+420535296+420627157
3098+420287961+419369831+418137009+417089627+416493303+416152045+415852234
3088+415841064+416457974+417421880+417994732+417817918+417152173+416403022
3078+415760647+415155147+414346852+413203554+411952689+410977064+410422254
3068+410147427+409974221+409818472+409567736+409035608+408216212+407398088
3058+406752998+406067287+405203662+404469804+404121398+403845402+403170104
3048+402126743+401109054+400298181+399604703+399010991+398611414+398366966
3038+398086675+397666581+397205557+396867874+396659992+396319594+395540544
3028+394405356+393368971+392653156+391908163+390770673+389490493+388606970
3018+388240144+388031266+387629420+386967766+386182186+385499603+385125388
3008+385058580+385009402+384605392+383753863+382758890+382008570+381585315
2998+381249694+380766297+380158323+379634546+379319201+379099531+378779753
2988+378324296+377848598+377431013+377010919+376412258+375510039+374490494
2978+373797429+373592778+373421977+372735751+371667508+370936950+370943067
2968+371208271+370890624+369782276+368541687+367859962+367717789+367654555
2958+367438391+367124901+366688415+366016932+365205474+364514712+364002310
2948+363416571+362544629+361536871+360731909+360222669+359817181+359439874
2938+359295123+359474687+359645109+359379836+358667216+357854041+357194929
2928+356680191+356210231+355728931+355207938+354599792+353823285+352852471
2918+351873169+351200277+350920879+350754237+350384490+349843048+349435395
2908+349342091+349423608+349416391+349198268+348815908+348373854+347959225
2898+347579890+347165192+346679699+346154410+345613072+345099398+344716902
2888+344496235+344307736+344002254+343552193+343052335+342616673+342204828
2878+341651943+341040841+340756116+340863683+340849558+340368430+339776539
2868+339490714+339293280+338707781+337711124+336707456+336020611+335645984
2858+335354145+334913775+334313980+333781474+333506716+333432244+333381210
2848+333277767+333147553+332989400+332722270+332267982+331713069+331332291
2838+331336518+331646468+331980405+332043330+331634405+330797620+329851996
2828+329044457+328293141+327531377+327061762+327168916+327565950+327644133
2818+327174346+326457052+325892414+325650372+325632055+325559336+325193816
2808+324537969+323760328+323000077+322337288+321807772+321347676+320881360
2798+320513606+320456386+320701246+320912702+320730010+320113067+319336010
2788+318682157+318209654+317787842+317291799+316739498+316228024+315759990
2778+315230852+314592326+313899157+313207673+312586742+312149981+311890687
2768+311579982+311009501+310260625+309607252+309213311+308990687+308726272
2758+308315492+307863712+307559639+307441488+307302167+306913690+306340426
2748+305843420+305478794+305061449+304513582+303938874+303389838+302829117
2738+302260699+301728674+301256721+300860443+300566955+300393096+300272745
2728+300023005+299507545+298821731+298181762+297713211+297448247+297339134
2718+297168918+296655898+295750930+294720078+293915185+293520522+293475777
2708+293573206+293595028+293385531+292912445+292297666+291696496+291166224
2698+290711626+290357207+290129633+290065368+290187128+290359372+290305589
2688+289912782+289375636+288926228+288571637+288185222+287735212+287325171
2678+287054089+286907191+286786685+286610575+286370251+286100201+285817590
2668+285530408+285289259+285151141+285074504+284903893+284506876+283927752
2658+283367908+282976888+282706803+282445757+282209987+282076164+282010885
2648+281897425+281667051+281333646+280961064+280620373+280348175+280151033
2638+280007570+279834278+279560224+279263265+279069800+278919722+278635358
2628+278203064+277795085+277536736+277399735+277299093+277182746+277028080
2618+276816161+276547107+276268465+276045170+275901226+275831428+275842460
2608+275931348+276053985+276146138+276129453+275933015+275600452+275299197
2598+275114393+274968903+274842658+274847899+274976257+275035900+274942046
2588+274827760+274810285+274863553+274927406+274961703+274906528+274717891
2578+274436053+274161948+273971043+273879732+273887481+273991216+274117048
2568+274115708+273912465+273614166+273408518+273421715+273688981+274141294
2558+274590788+274857625+274927217+274869017+274653094+274223171+273689119
2548+273245106+272936583+272664092+272358266+272030446+271713503+271438298
2538+271221876+271061316+270972634+270985023+271041642+270991398+270753772
2528+270416673+270111586+269880043+269711855+269598738+269489969+269316453
2518+269111441+268991692+268978409+268945057+268787435+268576083+268482933
2508+268557422+268646809+268605414+268502968+268498999+268594829+268649661
2498+268559673+268313627+267961373+267601884+267327727+267150259+267035630
2488+266987071+267020457+267089139+267111253+267055099+266953306+266864314
2478+266837079+266846925+266765288+266487213+266080539+265710276+265450914
2468+265275886+265169591+265129228+265101323+265028964+264927807+264826719
2458+264688635+264488503+264294574+264163964+264050315+263896852+263689589
2448+263390207+262998895+262670542+262562907+262613236+262646125+262623667
2438+262634612+262711799+262789175+262804502+262742454+262576843+262286808
2428+261960019+261739989+261640034+261555751+261448562+261378335+261404780
2418+261532897+261658042+261588330+261281800+260979359+260940336+261169096
2408+261504683+261815217+262015314+262042825+261915738+261761571+261736518
2398+261923934+262347001+263116050+264563559+267219902+271667383+278436394
2388+288032824+300992891+317787842+338600593+363219102+391146743+421686258
2378+453863224+486421484+517940232+547005947+572844839+595966799+617094104
2368+635221849+648275684+655712278+658635407+658080048+654941923+649475618
2358+639593656+622766400+599349749+571711301+543681454+521105987+509047504
2348+509450586+521106022+539080149+555579207+565608463+569882738+570960947
2338+570657458+570295340+570757876+572076236+573475323+573991986+573075540
2328+570751312+567337879+562761833+556240002+547276170+536709665+525909881
2318+515497406+505608158+496518648+488102305+479275354+468883842+456870104
2308+444015662+431028600+418358706+406386894+395299602+384963970+375140980
2298+365719835+356709643+348128823+339960948+332204920+324922390+318181646
2288+311998941+306401838+301466046+297204350+293510006+290295382+287589740
2278+285405005+283570600+281810753+279989700+278200556+276598811+275225327
2268+274011750+272887215+271858013+271013358+270412807+269936164+269342383
2258+268536304+267670513+266929490+266324282+265742787+265102560+264429204
2248+263841677+263426395+263095550+262670422+262137091+261672373+261380775
2238+261182636+261002849+260885591+260860847+260850967+260775893+260644528
2228+260493042+260304371+260045524+259757293+259544600+259460162+259436415
2218+259352132+259138150+258827101+258530983+258342140+258248235+258201703
2208+258238440+258402144+258587052+258619683+258486290+258338120+258292601
2198+258341161+258421217+258481994+258492321+258448487+258372503+258285195
2188+258201393+258142025+258096559+257986673+257760920+257520339+257431640
2178+257523294+257697514+257895155+258074582+258100580+257874346+257533037
2168+257334589+257383510+257598488+257860084+258061660+258098329+257941309
2158+257694559+257494770+257376963+257289380+257197468+257112222+257050208
2148+257014673+256993263+256964687+256943844+256993589+257147946+257389008
2138+257731829+258227838+258850349+259501333+260166819+260937140+261838654
2128+262767026+263652938+264603321+265793838+267263307+268885843+270511198
2118+272067149+273546481+274938901+276168974+277085232+277531444+277460769
2108+276983868+276273035+275407572+274369073+273187869+271971525+270752346
2098+269446083+268035380+266701091+265694777+265097233+264739944+264384063
2088+263950653+263527483+263201759+262984685+262857014+262789347+262738639
2078+262688052+262657569+262641262+262593356+262514588+262496632+262645060
2068+262984857+263424917+263781742+263891835+263758442+263543051+263410775
2058+263433028+263590356+263803703+264013492+264245086+264529502+264803521
2048+264989718+265130723+265355891+265720896+266109630+266335073+266357686
2038+266328165+266386485+266529019+266680592+266784928+266834656+266884831
2028+267018550+267291419+267712320+268224206+268756849+269378914+270199255
2018+270978219+271181805+270685744+270057185+269886401+270191729+270621548
2008+270921497+271046247+271025266+270906032+270795871+270826938+271000110
1998+271197527+271511601+272304157+273597189+274695674+274910600+274385672
1988+273705340+273154259+272787003+272696448+272858949+273071178+273218885
1978+273379255+273620421+273853459+273929683+273922999+274242451+275170049
1968+276268362+276687631+276231023+275594662+275401884+275609044+275963825
1958+276441705+276997443+277382208+277478107+277501854+277727710+278223959
1948+279000861+280306901+282389224+284642039+285531817+284288306+282085392
1938+280575267+280203424+280451342+280819595+281132569+281340296+281424235
1928+281600638+282471995+284358224+286440376+287620704+288216976+289139059
1918+289757446+288693293+286436991+284946558+285217571+286599578+287753564
1908+287827744+287033796+286210396+285897130+286002772+286234419+286606949
1898+287418544+288631468+289630600+290209225+291149419+292746215+293686580
1888+292846496+291158560+290100044+289841472+289825697+289849651+290008939
1878+290352395+290862804+291588964+293052762+296301822+301610419+306787635
1868+308158335+304931029+300274910+297181943+296154906+296258554+296617717
1858+296854226+296942650+297064410+297427559+298214203+299634838+301927036
1848+305446489+310282379+314795568+315595581+311868384+307226080+304866592
1838+304831436+305494224+306099793+307802884+311914022+317255921+320470923
1828+320356208+319030734+317642713+315357595+312403329+310450155+310176221
1818+310724742+311258141+312064443+313932493+316727814+318976263+319324738
1808+318178828+317243033+318051363+321115600+325446820+328793171+329537820
1798+328640756+328790387+331922979+337348869+341041734+339153443+333688376
1788+329683567+329220516+331055470+333422140+335728291+337572628+338336350
1778+338761942+341114316+347003017+355227699+361183620+360946871+356228927
1768+350841733+346895932+345856763+348367462+352419868+354726329+355080508
1758+355476511+356131842+356824495+359470666+365840014+373968436+378918696
1748+378624383+375872741+373947335+374160406+376228673+378684318+379877035
1738+380766091+384785334+392780758+398840946+396710476+389919075+383724824
1728+379320953+377055973+377228252+379122797+382532141+389185664+400406435
1718+412847312+418148762+413061861+403759418+396257150+392868357+394093173
1708+399290492+406091790+411589781+416203835+423226109+432802830+439306687
1698+439310536+435088292+427732906+419374539+414644327+415252748+419401379
1688+425934002+436423732+450172385+457787031+452441696+442486602+436506658
1678+436649656+441499842+447257298+451036148+454474428+459222752+461662382
1668+458085262+452840036+452083874+456016238+459765396+459755808+458540134
1658+461023340+470401458+487501479+506450064+512126140+506118051+504437917
1648+509940649+514317302+510281563+502772182+499235854+501657339+509818890
1638+523085693+537700102+544886028+541739414+537347366+538748858+545990836
1628+555805406+565859509+576491722+587571454+596873244+604385306+614008559
1618+628206861+642770546+650216831+651729498+654090051+659899194+667279770
1608+673558494+678096084+681836719+685260840+687945261+689785989+691577092
1598+694118274+697378537+700725196+703729224+706508427+709166730+711443910
1588+713402721+715739836+718737608+721675859+724073321+727091370+732856112
1578+741949780+750862956+754401655+754687926+758493994+767554190+777427973
1568+783500293+787612909+793890602+803824458+818611867+841232663+869794293
1558+886490545+882939268+875145402+871877167+872511225+874207683+874586194
1548+874172286+876341762+883150621+893079321+902694052+906212749+896782978
1538+880141026+868556488+864394178+862706861+858347908+852399788+849566355
1528+851302334+855332333+859551485+864000203+867671762+868000578+865756184
1518+863396593+860015842+854623082+850053119+850108242+856542234+869070333
1508+883017142+885010663+868916715+850660372+841243866+840232260+844146032
1498+848422232+848323394+843741884+840260440+842196157+848319476+852741389
1488+850655079+843850825+837171322+833257618+831885509+831699656+832317356
1478+834662238+839452763+846015147+851518223+851493686+845399852+839131644
1468+837449826+839413586+840060566+836583864+833267653+835889321+845273178
1458+855498254+856222352+846529748+836118063+830134958+828431764+829038467
1448+829089604+826874214+823612852+821334159+820660992+821879003+825789064
1438+831527962+834625672+831846400+826966797+824646865+824839041+825003519
1428+824298941+824069580+824787836+825620531+826864523+829621319+832313026
1418+831075357+825919930+820719690+817447536+815473948+813774809+812391772
1408+812236298+813378772+814216622+813812612+813928152+816343759+820005077
1398+822661386+823632922+822914872+820072641+816272552+814379106+815675678
1388+818023103+817968667+815456628+814137443+816529544+821754803+827378368
1378+831987577+835731030+838774097+840365807+840368007+840374124+841655850
1368+843734736+846153231+849527933+853362525+855075823+853327953+850199107
1358+848161391+847592354+847733256+848132936+848700186+849140281+848989550
1348+848184485+847280102+847039056+848021727+850462353+853982631+857211758
1338+858452656+857433077+855686719+854869694+855485263+857202960+859592862
1328+862272884+864872764+867169395+869132398+871045914+873603455+877220027
1318+881219647+884502866+886982876+889431544+892101806+894552742+896749849
1308+899254878+902209899+905057835+907501279+909951322+912814722+915934702
1298+918695966+920376272+920603914+919619114+917917638+915818063+913545694
1288+911460003+910110232+910027821+911106511+912249053+912067530+909992493
1278+906803162+904403707+904598220+907363058+910662292+912458962+912466661
1268+911713076+911239852+911445019+912179496+913365065+915115203+917168452
1258+919195102+921715664+925393890+929569946+932781959+934402330+934731422
1248+934055643+932596655+930968380+929923163+929726038+930048119+930417213
1238+930512820+930097400+929228070+928406578+927876650+927329194+926899134
1228+927320053+928282447+928132404+926325148+924518855+924166120+924868910
1218+925763672+926610526+927011650+926485227+925749444+926274217+928344719
1208+930967280+933556094+936343957+939226328+941324735+941867379+941267618
1198+941113932+942553399+945044475+947375817+949329266+951319694+952947969
1188+953297818+952542378+952168404+953344625+955605722+957568382+958721303
1178+959939588+962100816+964923802+967531036+969590953+971596914+974125862
1168+976915856+979083820+980220314+980717457+981146417+982027913+983724302
1158+985623247+986392021+986037979+986399444+988579230+991097318+991529234
1148+989820335+988939527+991508752+996566853+1000621665+1002042506+1002626183
1138+1003777317+1004049017+1002162444+1000326321+1002210969+1008386319
1130+1015214492+1018366020+1016919129+1013293484+1010291175+1009456899
1121+1011168616+1014749860+1018717518+1022219514+1025813748+1029689992
1113+1032401356+1032976923+1032464590+1031710800+1030714933+1030631835
1104+1032847156+1036487648+1039218876+1039932457+1039388370+1038716715
1095+1038489829+1038630456+1038883804+1039367544+1039823035+1039380053
1087+1038204107+1037753015+1038836928+1040723020+1042943290+1046689423
1078+1052533070+1058147356+1060251879+1058405034+1055007169+1051899561
1070+1049401956+1048011426+1048029640+1048323541+1048130608+1049576880
1061+1055213779+1063119335+1067385912+1065320566+1061568453+1062123331
1053+1067455538+1072554948+1072879504+1069839048+1068439239+1070202300
1044+1071739848+1070634009+1068856171+1068674030+1069452221+1069795678
1035+1068813420+1065797776+1062158316+1061298883+1064615919+1069701858
1027+1073110583+1073741823+1072686915+1070891550+1068346657+1065368816
1018+1063136037+1062293719+1062042914+1060753215+1057839502+1055052739
1010+1054782757+1057104407+1059606137+1060642075+1060837962+1061100040
1001+1061554156+1062428091+1063490148+1063225252+1060573479+1056869960
993+1055015692+1056609876+1059961278+1060960238+1056626990+1048558469
984+1041782671+1040074322+1042930437+1046581100+1048017062+1047954447
975+1049205380+1052590393+1055612909+1055368084+1051745050+1047006555
967+1043080617+1040256738+1037912475+1035442362+1032769763+1030437047
958+1028505867+1025574490+1020641138+1015390722+1012139532+1010420599
950+1007953579+1003919662+999319182+995554491+993744555+994039899+995175774
940+995729759+995590988+995107316+994020241+992260549+990414322+989128610
930+988621913+988144703+986257649+983211969+981863023+984023701+987361838
920+988102570+985637337+982322569+980408641+980834233+983295067+986128225
910+987048899+985187826+981827969+979142793+978617263+979447072+978836589
900+975459412+971506531+969798044+970180679+970347218+969315060+968187983
890+968278091+970029329+972624054+973977399+972852934+970758307+969965958
880+970505371+970595549+969375545+967814833+967094584+967044822+966638062
870+965541983+964127329+962411075+960341674+958571809+957895412+958492835
860+960447110+963748956+967112661+967961921+964837612+959568982+955752397
850+955272575+957219632+959776692+961862452+962983274+963449144+964552577
840+966607614+968144819+968195681+967174795+965164229+961832759+958182301
830+956046436+956020317+957314002+959349519+962127210+964939748+966399560
820+966322786+966075348+966702052+968085640+969800587+971453538+972566800
810+973309868+974722186+977456575+980816088+983098423+982962401+980509266
800+977099441+974445400+972928127+971129257+967974156+964441918+962791235
790+964263076+967808647+971128433+972514426+971940715+971315317+972597111
780+975103721+976549442+976593225+976519612+976161653+974416944+971920232
770+970272437+969832135+970154423+970930964+971874388+972754509+973386643
760+972965174+971237030+970223224+971520552+973804331+975412880+976543875
750+977590741+978476842+979995214+982617570+984545932+983745884+980833821
740+978037435+976295613+974152324+970225905+966653733+967335011+972456896
730+977723327+979108151+976974004+974713251+974085035+974031904+972967786
720+971986628+974170744+979424596+983862661+985754939+987725159+990510479
710+989919791+984150719+978669019+979001684+983255889+984875573+980997954
700+975484224+972735057+972037353+970062321+966131984+963051732+963663384
690+967027226+968722929+966366019+962593904+959932646+956374909+950225471
680+944074246+940761127+939705051+938951260+938012029+937020493+934989375
670+930463126+925209687+924197530+926702078+928716768+930387589+932610746
660+933878175+933002040+932013253+934113997+939000954+943071918+944019534
650+941681801+935143405+923890433+912456144+906603631+905678559+904082313
640+899881994+896631767+896862089+899692224+903198893+905095638+903782089
630+900673519+898843719+899141813+899753189+899605964+900375563+904644408
620+911479248+915443607+912747846+906401695+901751796+900464297+900140841
610+898027245+894673162+892815869+894163097+897574709+898063192+889526945
600+873412241
##END=
