##TITLE=<SNM>
##JCAMP-DX=4.24
##DATA TYPE=INFRARED SPECTRUM
##DATE=3/5/2025
##SAMPLING PROCEDURE=Instrument type and / or accessory
##ORIGIN=Admin
##XUNITS=1/CM
##YUNITS=ABSORBANCE
##RESOLUTION=4
##FIRSTX=4497.3318
##LASTX=599.83466
##DELTAX=-1.4281778
##MAXY=1.7744571
##MINY=0.21357384
##XFACTOR=1
##YFACTOR=1.652592e-09
##NPOINTS=2730
##FIRSTY=0.23005958
##XYDATA=(X++(Y..Y))
4497+139211363+139331883+140310841+141614154+142536162+142714885+142139583
4487+141151337+140605872+141385694+143402311+145489502+146437145+145897605
4477+144429897+142965553+142092722+141679571+141193879+140345195+139414567
4467+139014003+139435261+140246380+140830906+141141130+141404223+141488134
4457+141220388+140842682+140545568+140113003+139432087+138806300+138555605
4447+138711352+139006005+138817481+137622875+135891092+134935523+135566693
4437+137333489+139168822+140295981+140487382+139951799+139161275+138613330
4427+138594404+139025382+139446018+139268494+138236354+136722111+135551021
4417+135370919+136063746+136878697+137224529+137197857+137253311+137568242
4407+137874878+137800687+137301560+136775301+136675304+136994455+137300740
4397+137296989+137055040+136688721+136211370+135762529+135570570+135652533
4387+135813159+135872093+135728942+135328738+134684881+133878911+132950158
4377+131857082+130712584+130015465+130269406+131248283+132058465+132122160
4367+131721659+131469052+131651111+132102377+132413322+132351395+132096371
4357+131849274+131479728+130917699+130499831+130549379+131010311+131653464
4347+132220200+132396208+132045390+131351932+130574301+129933321+129710578
4337+130015392+130503492+130741203+130738372+130759552+130797423+130634967
4327+130324237+130195053+130335274+130429067+130256854+129977729+129746817
4317+129487709+129235679+129237013+129487051+129611781+129428730+129255913
4307+129471406+130028214+130582002+130969446+131368667+131926431+132377886
4297+132297303+131719567+131189593+131151307+131553720+132037591+132256853
4287+132072179+131643969+131265262+131095628+131189701+131582222+132108643
4277+132396208+132278800+131989134+131821881+131879516+132162817+132613388
4267+133031797+133183235+133039172+132793085+132667976+132849566+133469276
4257+134366280+135007071+134947019+134285066+133525685+133180016+133474713
4247+134142978+134581197+134502651+134211831+134060943+134037021+134024109
4237+134003091+133870047+133550554+133357530+133716752+134454654+134849917
4227+134595939+134278249+134547582+135200997+135522690+135272753+134847852
4217+134626993+134719145+135244863+136249565+137334814+137916202+137845447
4207+137426434+137000893+136802451+136902033+137050766+136904990+136537987
4197+136395764+136655999+136946874+136861800+136549312+136505409+136834055
4187+137123261+137138698+137133793+137263320+137242347+136914720+136724509
4177+137239632+138375737+139431050+139939212+140165544+140500916+140722938
4167+140398295+139750237+139431582+139565635+139669843+139476747+139221552
4157+139031892+138607812+137790453+137011551+136809304+137206622+137858224
4147+138453345+138726753+138530231+138181865+138308381+139080313+139925362
4137+140172324+139766954+139219235+138959541+138970172+139111511+139462816
4127+140044294+140556316+140756120+140784279+140869110+141029871+141223147
4117+141452094+141653007+141709705+141610502+141497205+141526131+141676000
4107+141791821+141847176+141980255+142206335+142290038+141964719+141188009
4097+140242349+139622432+139628266+140007758+140176707+139819613+139174521
4087+138779583+139015337+139758550+140405139+140411550+139895065+139506016
4077+139677119+140243494+140808553+141133565+141091041+140592527+139767829
4067+139047419+138847958+139153800+139555509+139750345+139796971+139807855
4057+139715657+139465242+139132177+138798464+138602952+138821205+139544635
4047+140422082+141001261+141163690+141043559+140760646+140404869+140072851
4037+139784411+139487829+139208992+139087923+139223951+139545437+139864895
4027+140065835+140245289+140633103+141295922+141981761+142423911+142693875
4017+142942722+142884527+142068729+140702118+139621927+139327356+139515447
4007+139682746+139782445+140137050+140954797+142039685+142920730+143297878
3997+143301953+143192299+142937249+142340027+141492480+140873600+140989692
3987+141907138+143032061+143486690+142972820+142134876+141841098+142333463
3977+143226572+143987071+144234087+143906379+143336109+142983668+143033386
3967+143354278+143805021+144390764+145094673+145762253+146247431+146501390
3957+146499695+146352712+146457217+147147519+148157874+148741003+148417352
3947+147509149+146856068+146983440+147601995+147957367+147668612+147054366
3937+146682421+146934063+147823016+148931474+149653787+149767507+149661839
3927+149838415+150337786+150740208+150775572+150833821+151517811+152728954
3917+153490534+152960326+151513664+150314775+150032485+150449496+151284005
3907+152886207+155595228+158656518+160602659+160896301+160051135+158361162
3897+156057413+154177419+153927112+155252461+156476407+156257695+155726423
3887+156547118+158209535+159082095+159273198+159826471+160071891+158893715
3878+157297030+157054243+158586457+161289093+164283947+166121994+165590506
3868+163817434+162966478+163391244+163760609+163213269+162379644+162389959
3858+164176448+168451315+174625580+178540296+176172041+170454280+165616943
3848+163066385+162774852+164191019+166470243+168969441+171550620+173910292
3838+175076278+174565239+173176447+171690093+170227687+169057283+168744164
3828+169293596+170287775+171974214+174796197+177544620+178099012+177120017
3818+176788216+176675739+175079253+172598341+171193535+171763400+174036979
3808+176882189+179103560+181063966+183738578+186275665+186998599+186748743
3798+187340266+188350386+188486288+188104731+188658239+190832452+194274614
3788+198412876+202954984+207844800+213372052+220215150+228714065+238202705
3778+247830240+257738974+268498646+280217205+292426731+303737782+312220828
3768+317348417+320002687+320933478+321204308+322335741+324961951+328535794
3758+332559903+337553719+344690513+354882034+367628964+380253877+390496578
3748+399694081+410187919+421575433+431119256+438846365+447643485+458960091
3738+472238654+485739031+497067828+505174114+511990991+519996179+530028895
3728+541872518+554219605+564497543+570802876+572871701+571203008+567393356
3718+563688696+561145766+559490634+558049094+556037184+553214804+550249525
3708+547522652+545300505+544323692+544691255+545244817+545044174+544621753
3698+545213547+547651629+551826679+556924117+562292095+567320933+570382836
3688+570063099+567567237+565575092+565930139+568717930+572455267+575879323
3678+578767129+579866715+577364433+573369683+571547812+571818173+571257866
3668+568846654+566119420+564199771+563051097+562106961+561149878+560451433
3658+559854446+558629995+557063769+556593956+557791825+559496874+559790895
3648+558583288+557237975+555916647+554615552+553889372+553818319+554131492
3638+555135500+556965233+558741155+560283467+563185520+567891771+570504599
3628+567298174+562526281+561856654+566199923+573377257+579889834+582975325
3618+583366187+584199019+586694592+589578142+592033212+594772817+598137723
3608+601235982+603381882+604880337+606191855+607419083+608346664+608530752
3598+607916524+607474194+608446787+610704460+612904642+614498459+616121562
3588+618106494+619918230+621363305+623063593+625418071+628201462+630728126
3578+631953406+631150763+628715062+625931887+623940463+623140850+623448071
3568+624476857+625113518+624093389+621728379+619724476+619191328+619743375
3558+620486868+620877334+620598533+619572993+618071364+616724465+616391130
3548+617322750+618185770+617246143+614950383+613399919+613561573+614389752
3538+614177026+612274545+609879094+609120742+610746875+612932197+613139801
3528+610893381+607605624+604252837+600846490+597876739+596626067+597574206
3518+599277488+599764794+598774456+597368261+596115029+594931766+593596264
3508+591641701+588876704+586239891+584982150+585151017+586018834+587266585
3498+588543911+588754183+587103452+584486872+582689203+582258089+582105741
3488+581520692+581364304+582130447+582337329+580479247+577208946+574101346
3478+571838803+570574390+570380564+570736873+570865093+570802732+570922187
3468+570664233+569093896+566473963+564118258+562846234+562456815+562323762
3458+562009471+561566239+561251119+560758655+559254465+556695125+554384144
3448+553467528+553509619+553210368+551915333+549952763+548232277+547684558
3438+548347512+549211326+549424881+548957484+548059442+547131321+546795750
3428+547036247+546801701+545327051+543188616+541396645+540129057+538932955
3418+537730217+537180947+537869040+539301383+540250063+540007366+538902767
3408+537655990+536547856+535369463+534110171+533382548+533814635+535185736
3398+536486938+536925662+536649566+536117608+535204310+533584958+531523022
3388+529623065+528191047+527391108+527543926+528598247+529625265+529476993
3378+528011611+526273164+525191359+524469363+523210612+521391337+520031381
3368+519929527+520869407+522078673+522983423+523423337+523504525+523399424
3358+523114456+522502898+521553785+520498634+519580215+518916539+518618947
3348+518772053+519230938+519545698+519122628+517675533+515668492+514038030
3338+513412514+513888243+515176641+516489313+517021343+516956169+516973373
3328+516822756+515887132+514820332+514834795+515718229+516097982+515276945
3318+513586178+511509672+509536534+508362144+508425262+509360345+510174927
3308+510048366+509185454+508631604+508948275+509469557+509204714+508120890
3298+507129254+507047777+507757259+508279478+507851106+506840246+506280588
3288+506818173+508491302+510814185+512647814+512996801+512293812+511980423
3278+512598798+513070018+512130355+510067049+508561597+508820453+510282804
3268+511321977+510901756+509365394+507921401+507595929+508417147+509416718
3258+509584143+508830732+507814461+507000854+506227425+505097470+503521867
3248+501835754+500456393+499331488+497969224+496372810+495501386+496167550
3238+497757148+498844218+498867914+498342882+497717185+496960203+495996807
3228+494880017+493638939+492359666+491370410+490971577+491004903+491095072
3218+491148019+491070870+490319118+488470341+486011700+483951532+482858511
3208+482583966+482598140+482340078+481555829+480502879+479669975+479301006
3198+479211342+478915265+478014735+476698961+475705305+475435341+475299439
3188+474397575+472699379+471009406+469831482+468834580+467456301+465571709
3178+463586922+462193098+461872820+462369900+462784062+462476299+461728370
3168+461225699+461104982+460813990+459749606+457766117+455231447+452853922
3158+451303385+450724540+450621207+450341397+449628309+448640640+447649220
3148+446838137+446149250+445240569+443858972+442265372+441027792+440388029
3138+440024867+439448185+438531930+437623754+437111813+436956183+436751356
3128+436121728+434918052+433324884+431942962+431419625+431828449+432593365
3118+432972037+432487219+431152582+429510543+428272747+427755613+427656211
3108+427330018+426359337+425005043+423910363+423251989+422595707+421686845
3098+420812969+420255115+419924197+419679155+419591043+419776465+420162530
3088+420445767+420278559+419509134+418302536+417067842+416140405+415473195
3078+414831376+414257400+413915662+413581029+412867400+411879190+411105869
3068+410740759+410463726+409889245+409012303+408089627+407198691+406210626
3058+405210333+404563212+404431639+404532627+404464857+404054698+403376199
3048+402599524+401849900+401193618+400617839+399939195+398976088+397879604
3038+396967388+396277275+395644798+395028082+394386696+393545388+392485152
3028+391451245+390636699+390016521+389442761+388732775+387843570+387016473
3018+386478997+386066531+385472609+384756997+384227275+383934120+383661378
3008+383296088+382848672+382246636+381451819+380616535+379834775+378971286
2998+377984807+377138414+376624454+376225693+375650635+375014046+374580372
2988+374151747+373236718+371878349+370764047+370338344+370304405+370188052
2978+369918700+369627348+369288351+368823948+368296787+367805585+367341615
2968+366791191+366020395+365074889+364264130+363792153+363393897+362671612
2958+361680336+360830914+360350172+360121865+359940915+359732374+359545761
2948+359400518+359193491+358744849+357850234+356433796+354831720+353660612
2938+353162125+352968768+352656244+352173050+351662155+351230790+350872388
2928+350414693+349728908+348998003+348440365+347874901+347003261+345989083
2918+345318807+345185105+345323928+345359058+345087110+344518111+343790200
2908+343033975+342341337+341863192+341698364+341607042+341178814+340397486
2898+339675814+339253502+338919626+338373674+337577559+336730120+336082494
2888+335783640+335767230+335743569+335399811+334702268+333918849+333270718
2878+332726714+332206731+331755384+331436043+331220974+331028662+330778716
2868+330407330+329861919+329155936+328503153+328211873+328265505+328221647
2858+327697047+326740000+325692856+324921699+324618337+324660103+324707964
2848+324483986+323912823+323123849+322375055+321833287+321466950+321206905
2838+321001789+320715234+320238532+319642735+319038931+318472890+318015231
2828+317667541+317247789+316690513+316242880+316053851+315874669+315449759
2818+314902725+314498157+314255388+313968256+313481346+312852187+312278355
2808+311896510+311650386+311344896+310830467+310103457+309222259+308244148
2798+307301202+306584183+306131393+305768087+305360273+304969483+304643362
2788+304228118+303543812+302649305+301802930+301181147+300689062+300071065
2778+299229523+298374150+297768651+297407220+297067249+296581475+295924454
2768+295175497+294537123+294218990+294171850+294083016+293688818+292982835
2758+292143043+291340724+290592236+289808564+289004478+288322354+287830485
2748+287468189+287162373+286839805+286407718+285860630+285312298+284837489
2738+284382030+283878962+283372883+282956215+282599364+282141868+281500716
2728+280780108+280123790+279577063+279129918+278784140+278502165+278152402
2718+277607388+276921098+276308674+275888165+275561358+275217852+274892507
2708+274629125+274334743+273851639+273126739+272325700+271748244+271513698
2698+271378535+271012704+270368955+269637202+268981389+268484688+268189116
2688+268017237+267804710+267515828+267245882+266967622+266518223+265870471
2678+265193558+264635145+264202842+263818309+263399820+262954063+262576221
2668+262301099+262088248+262005942+262185990+262515610+262641882+262368618
2658+261830312+261244650+260695308+260188634+259756745+259420705+259114620
2648+258735407+258264620+257764924+257259981+256739926+256294043+256079388
2638+256097476+256129197+255960438+255584003+255137056+254756599+254552728
2628+254562268+254624521+254456519+253965912+253364868+252926793+252769035
2618+252862215+253077068+253214196+253126102+252840142+252509278+252238213
2608+251989763+251680846+251340262+251092497+250978488+250869835+250613504
2598+250250685+250034569+250152726+250461318+250618698+250459767+250111843
2588+249794342+249630957+249609443+249647728+249704390+249786516+249852212
2578+249807164+249591878+249201034+248706028+248313705+248244131+248466684
2568+248687164+248675839+248548341+248637265+249089893+249704138+250207692
2558+250529305+250708127+250750001+250677650+250516267+250171481+249536425
2548+248748407+248109329+247714427+247371373+246946751+246578071+246430158
2538+246420024+246323706+246057204+245749495+245563586+245497348+245417982
2528+245292233+245237068+245287436+245304261+245188034+245012530+244895005
2518+244854772+244817713+244721611+244628179+244669530+244834754+244920559
2508+244758256+244394246+244020768+243826653+243897850+244140367+244298270
2498+244165452+243793778+243403078+243131635+242988772+242948900+242927692
2488+242776877+242457482+242099964+241809946+241564688+241331098+241124702
2478+240941841+240746933+240515434+240237229+239910260+239560208+239243374
2468+239012201+238863459+238727232+238538834+238301096+238028445+237682667
2458+237263943+236915063+236789549+236838240+236869871+236791154+236638048
2448+236432716+236171931+235900128+235670288+235494135+235376051+235307036
2438+235233170+235126356+235035196+234979742+234881405+234683774+234465855
2428+234355380+234368599+234394784+234325120+234157659+233989116+233926647
2418+233982822+234044948+234000315+233893519+233878515+234011532+234197531
2408+234361331+234548016+234775655+234902162+234799983+234616183+234654180
2398+234986721+235377692+235613681+235731350+235905195+236309041+237111468
2388+238422283+240178764+242187464+244312120+246568585+249062085+251916546
2378+255273823+259290538+264042378+269378185+274896005+280072845+284405420
2368+287595128+289790422+291420974+292506728+292433674+290809325+288214368
2358+285618870+283345183+281214522+279624852+279613329+281504900+284389586
2348+287188468+289658885+292408192+295891488+299392764+301568312+301805473
2338+300579940+298702525+296605478+294390725+292178641+290137679+288333968
2328+286670919+284844143+282458774+279495406+276520894+274078755+272076222
2318+270076864+267924958+265799652+263849634+262023345+260218696+258429899
2308+256695401+255008584+253362036+251810130+250383214+248975108+247450540
2298+245892971+244603220+243772029+243263083+242783206+242157167+241399013
2288+240632058+239982485+239494656+239132485+238827265+238486879+238029112
2278+237459410+236870719+236370753+236033775+235853691+235720278+235510618
2268+235204821+234873885+234584715+234340665+234101340+233847606+233597803
2258+233368920+233179458+233062978+233011239+232952161+232829063+232660881
2248+232524294+232494899+232570929+232673469+232743133+232768614+232736388
2238+232666832+232661675+232802752+233042456+233260321+233402895+233552863
2228+233867244+234419256+235107132+235748609+236254544+236691049+237177616
2218+237763891+238440695+239218668+240127963+241176387+242346106+243589907
2208+244845827+246103659+247411263+248785863+250169768+251494396+252775599
2198+254123328+255609052+257150355+258597071+259885560+261049237+262124423
2188+263079866+263857100+264498774+265127717+265766488+266344955+266847229
2178+267251635+267461132+267449969+267292409+267024031+266658182+266228529
2168+265701802+265010047+264169894+263245686+262278431+261274821+260190076
2158+258992892+257753581+256574846+255516575+254615179+253892389+253416318
2148+253307809+253589802+254383104+256350885+260277918+266088426+272948439
2138+280255021+287900420+295848514+304005186+312271611+320577277+329049862
2128+337937187+347259087+356810231+366403106+375896146+385164125+394034390
2118+402122353+408944280+414241494+418082092+420886222+423449349+426714384
2108+431477369+438187450+446714967+456271341+465645936+473637166+479543415
2098+483270184+484985548+485111423+484327787+482812056+479949245+475146189
2088+468109265+458533090+446428556+432220934+416274504+399077690+381531492
2078+364556240+348919376+335227734+323532673+313443439+304807360+297676643
2068+291870428+287109210+283160609+279709773+276560983+273774382+271389932
2058+269428823+268009951+267087131+266510666+266417414+267025167+268351870
2048+270554720+273987955+278837592+285288800+293793377+304729274+318200978
2038+334198768+352353747+371645354+390717995+408265311+423255992+435283955
2028+444533684+451404122+456442264+460179890+462792790+464212330+464264195
2018+462546811+458760386+453125437+446087106+437916945+428713057+418504369
2008+407459530+395971027+384316939+372508482+360664030+349190278+338482201
1998+328723597+319995330+312337217+305632257+299589638+294002622+288934850
1988+284506841+280667398+277298363+274342624+271753744+269487757+267540011
1978+265892219+264487035+263257913+262129076+261094971+260300659+259829186
1968+259442346+258790374+257857167+256953300+256309318+255905525+255673756
1958+255640394+255780913+255921431+255931007+255878655+255894236+256011563
1948+256239311+256661209+257303713+257885642+257911574+257242038+256358459
1938+255810199+255682052+255737866+255829549+256012700+256339921+256685103
1928+256918730+257212697+257837817+258653372+259276562+259748143+260364913
1918+260944822+261035640+260773917+260759887+261264415+262061432+262791291
1908+263263521+263541384+263813747+264150905+264454700+264670780+264934829
1898+265427185+266107686+266724871+267209688+267806098+268523929+268837787
1888+268392337+267598657+267044337+266850746+266843676+266885172+266926559
1878+266986485+267087167+267215711+267534511+268464274+270141226+271784185
1868+272153569+271058004+269593092+268704951+268449774+268464923+268539943
1858+268663690+268844478+269069123+269354651+269774403+270406249+271316157
1848+272673282+274588495+276466847+277031951+275983076+274635581+274129375
1838+274434812+274947960+275413482+276255529+277940127+280032540+281352443
1828+281521040+281313887+281121305+280587021+279744217+279216497+279323960
1818+279838335+280507854+281385932+282604269+284011636+285152447+285675965
1808+285711834+285749164+286291924+287583911+289378659+290979834+291823955
1798+292136100+292795177+294516276+297025176+298806273+298580130+297255827
1788+296690056+297491058+298982011+300437366+301805834+303170695+304309991
1778+305247995+306661079+309261139+312806237+315740282+316627431+315896129
1768+314781070+314077612+314429918+316134209+318437904+320136930+321189773
1758+322346417+323677123+325075058+327230805+330715309+334623353+337156761
1748+337855819+337905916+338477332+340020871+342359623+344688205+346115571
1738+347073124+349168638+352859304+355831976+355672630+353725570+352096767
1728+351244351+351093229+351559616+352414917+353889243+356945195+362075923
1718+367728509+370645927+369766027+367398385+365668702+365297713+366433330
1708+368972365+372243747+375340672+378467280+382723951+387836248+391405006
1698+392331180+391800701+390237506+388211601+387441996+388756940+391575244
1688+395438961+400848598+407397639+411598261+411073805+408810362+408014066
1678+409578092+412967883+416689170+419641537+422545898+426194473+429308746
1668+430275135+430355421+431882189+435217086+438794320+441287765+443400664
1658+446822051+452764980+461566788+471072199+475706099+475615714+476867468
1648+481366295+486482235+488817634+489019719+489865174+492705949+497846811
1638+505171841+513314375+518995382+520755939+521710137+524901053+530746672
1628+538007142+545556800+553382048+561489741+569026883+575710167+582819442
1618+591536096+600820197+607980724+612507251+615931343+618982426+621434647
1608+623115602+624385823+626019819+628677984+632450343+637094449+642528648
1598+648777969+655648298+662645007+669213740+675219390+681035903+686954991
1588+692812115+698216594+702778251+706361472+709492408+713174598+718142013
1578+724385851+730832317+736036405+740717517+747116806+755930301+765748271
1568+775129322+784773592+795831632+807984315+820810954+835573689+853034985
1558+867839630+874713999+877148041+878694466+879792861+880002773+879217082
1548+877997788+877041714+876311278+875550689+874849395+872740176+866276110
1538+857442994+851005402+847488472+844655164+840731828+836267265+832917544
1528+831478023+831880535+833912642+837166424+840091055+840698502+839380672
1518+837884309+836208330+833886602+831985274+832016437+834533218+839078572
1508+843763507+844756297+840654283+835600956+832533426+831555207+832074361
1498+832898139+832533859+831260681+831111723+833028631+835707066+836608967
1488+834439082+830634191+827546030+826438474+827062006+828195315+828899999
1478+829368947+830384244+832233923+834029140+834111013+832226709+830225331
1468+829471018+829666503+829792090+829483137+829628127+831321130+834579672
1458+837506034+836988396+833100333+829087045+826542780+825436450+825338130
1448+825381844+824682498+823251344+821658465+820200983+819089170+818644315
1438+818722293+818485114+817409585+815986006+814690971+813466988+812319974
1428+811624595+811542722+811564940+811158316+810642625+810544305+810175913
1418+808273431+805391721+803295124+802546799+802339483+801712272+800655426
1408+799944249+799893034+799944033+799783245+799906523+800518731+801064358
1398+801291943+801620517+801953779+801467086+800054327+798583428+797474140
1388+796241934+794755309+794314927+796486976+801312934+807326447+812934273
1378+817537191+821417968+824960288+828223015+831180539+833941785+836381165
1368+838104464+839158064+840066457+840924067+841283731+841113637+841092790
1358+841665828+842389484+842317133+841037102+839257971+838074817+837855527
1348+838111173+838267561+838328803+838856902+840363003+842734288+845407890
1338+847940541+850074142+851622082+852802422+854274404+856538930+859547597
1328+862957623+866550294+870334194+874281767+878086514+881551723+885236293
1318+889990261+895623767+900890830+905115617+908876001+912736724+916412062
1308+919640308+922860330+926308443+929270223+931146808+932438958+933679098
1298+934260216+933438962+931744877+930280470+929322088+928608531+928315736
1288+928529111+928177815+925851253+921753495+917666557+914827838+912852645
1278+910940137+909261778+908580609+908989758+909744720+910258247+910598146
1268+910895485+911047545+911385713+912858416+915933592+919864791+923439933
1258+926058352+927815049+928856458+929288329+929659534+930661991+932030242
1248+932490462+931336451+929439668+928055763+927143186+925475792+922339445
1238+918499497+915110030+912406708+910028354+907810571+905662903+903418647
1228+901267085+899665044+898702190+898234107+898425336+899329473+900223872
1218+900273717+899658263+899349022+900021750+901497194+902947535+903715049
1208+904142520+905108620+906639608+907891146+908666955+909747677+911629817
1198+914191105+917328750+920794968+923986353+926699630+929239782+931480287
1188+932977877+933966339+935040642+936459460+938694987+942526857+947703606
1178+952522207+955654658+957412221+958583112+959372988+960079908+961605486
1168+964610402+968420271+971201426+971871630+971807502+973224949+975848995
1158+977058334+975900571+974999392+977309940+982600301+987761542+989708170
1148+987992085+985140454+984294386+986226803+989048426+991089334+992739344
1138+994633602+996134943+996926982+998132281+1000651515+1004027565+1007488518
1128+1010622916+1012712011+1012837669+1011336112+1009902867+1009422739
1120+1009023833+1008342881+1008921474+1011845456+1016095058+1020362549
1111+1024272252+1027175170+1028192919+1027943910+1028249112+1029868825
1103+1031850367+1033160694+1034104866+1035438709+1036775077+1037671857
1094+1039008946+1041012705+1042256452+1042108071+1041386291+1040224777
1085+1038490369+1037959025+1040476383+1044613960+1047009338+1046824601
1077+1046490040+1048022182+1051013898+1053863437+1055617681+1056347901
1068+1056750629+1058353463+1062542616+1068516022+1073072629+1073741823
1060+1071772617+1070562268+1071597401+1073264652+1073238467+1071141726
1051+1068407748+1066182968+1064464574+1062695830+1060663218+1059219152
1043+1059684349+1061908408+1063595134+1062992953+1061075901+1059484752
1034+1058474361+1057913730+1058574773+1061140750+1064592397+1066918598
1025+1067557207+1067910451+1069175983+1070945592+1072022491+1071409418
1017+1068914206+1065763432+1063884034+1064022965+1065045547+1065586269
1008+1065362724+1064550054+1063561519+1062879630+1062065301+1060448112
1000+1058960694+1058997915+1059776754+1059312495+1057222968+1054519718
991+1052070816+1050620403+1050300125+1049794749+1048175035+1046776920
983+1046813348+1046617863+1043771642+1038772344+1034132133+1030854258
974+1027912603+1024838221+1022403313+1020592154+1018395651+1015819503
965+1014021040+1013058618+1011362225+1007812980+1002897430+997780697+993694191
955+991816308+992201219+992929130+991752396+988725623+985825590+984249013
945+983328069+981777172+979133650+975930435+973000610+970730097+968675483
935+966169162+963685779+962856086+964376109+966850042+968878254+970817885
925+973193643+974988139+974794673+972715967+970141117+968351887+967597358
915+966891808+964947344+961725157+958617304+956869119+956274223+955937138
905+955923288+956964553+958529732+958713604+956511835+953349304+951674624
895+952115223+953025924+952874441+951921108+951211735+950914901+950392934
885+949361191+948229829+947407926+946867781+946527233+946559117+947009165
875+947513604+947706059+947423579+946428481+944714848+943013478+942124417
865+941918040+941610746+940693841+939347663+938655963+940385681+945090814
855+950013361+950761037+946678572+942300787+941768865+944288676+945948280
845+944601813+941563353+939186874+938656684+939578061+940514081+940559887
835+940457311+941537890+943688948+945012620+944148662+941918689+939607420
825+937407094+935639648+935497327+937549416+940524757+942252745+941959157
815+941226989+942516542+946812959+952262161+955912323+957122239+958081559
805+960931603+964707207+965883436+962808693+958080405+954982290+953823301
795+953200129+952706295+953070720+954738691+957210244+959395349+960898277
785+962513229+964354613+964490659+961317740+956612535+954006307+955159597
776+958895528+963327414+967490887+970872780+972481240+971323838+967731817
766+963465840+960540921+960086400+962144404+965879541+969264969+969373820
756+964551901+956623139+950167657+948855454+952617209+958341100+963170304
746+966736790+969684648+971218089+969754042+965924048+962409355+960736406
736+960802626+962542588+965008153+965701512+963899947+962627130+964964079
726+970102958+974028747+973074116+967163467+960267458+957097136+959143743
716+963293511+964505230+961087414+956021968+952869969+952034576+951510085
706+949795658+947009310+944499021+943996097+945925485+948529116+949528543
696+948376768+946394072+944967175+943497863+939886293+934188225+929364936
686+926936736+925282110+923201311+921580588+921371036+922596894+924335413
676+924376891+920838898+914175885+905609524+896627883+891811158+894661923
666+898908062+898516371+896096611+896567073+899519981+899869113+895625210
656+890302604+887876064+889054457+891557027+892166349+889044791+883404215
646+878809953+877965688+880385304+883766043+886501969+887384970+885211695
636+881240173+879167165+879612092+879092505+876059961+873662779+875028578
626+878350022+878063287+871483084+862292613+855933503+854361398+855289917
616+855325984+853237106+850224399+847941118+847209239+849084670+853802354
606+858176388+857648506+851757839+844603732+840875015
##END=
