##TITLE=<SNM>
##JCAMP-DX=4.24
##DATA TYPE=INFRARED SPECTRUM
##DATE=3/5/2025
##SAMPLING PROCEDURE=Instrument type and / or accessory
##ORIGIN=Admin
##XUNITS=1/CM
##YUNITS=ABSORBANCE
##RESOLUTION=4
##FIRSTX=4497.3318
##LASTX=599.83466
##DELTAX=-1.4281778
##MAXY=1.7055402
##MINY=0.17896913
##XFACTOR=1
##YFACTOR=1.5884081e-09
##NPOINTS=2730
##FIRSTY=0.20276856
##XYDATA=(X++(Y..Y))
4497+127655209+127157330+127157358+127559333+127927554+128143472+128470941
4487+128911041+129105607+129011363+128887278+128597521+127794932+126704969
4477+125958536+125722880+125644969+125565717+125662362+125917718+126010592
4467+125797461+125516607+125486559+125882464+126638062+127219199+126883521
4457+125695140+124782979+124955471+125576524+125550801+124974233+124946643
4447+125955534+127174610+127364101+126124817+124242209+122897800+122565556
4437+122728432+122660690+122228199+121771062+121498886+121287237+120974262
4427+120649128+120561480+120751102+120805194+120111370+118559196+116943342
4417+116335562+116958867+117987778+118581251+118700936+118660494+118424866
4407+117825690+117126397+116890479+117343356+118117004+118599929+118449595
4397+117812528+117148508+116871388+117084979+117587426+118085455+118375212
4387+118378730+118103401+117519290+116564923+115407884+114484287+114053925
4377+113951923+113938377+113970414+114038859+114135204+114401930+114936808
4367+115518235+115766180+115497128+114879573+114273980+113853515+113444476
4357+112933295+112672010+113147327+114341815+115655004+116447217+116564201
4347+116291274+115906335+115491705+115142012+115040995+115234023+115503920
4337+115484472+114889348+113847314+113011093+113004986+113735040+114590876
4327+115216864+115579138+115478881+114745675+113825465+113493493+114026448
4317+115073783+116136418+116825664+116936521+116619550+116369457+116655170
4307+117514506+118569909+119478290+120132178+120319454+119739734+118653805
4297+117842069+117669765+117867295+118264495+119017214+120105976+121165994
4287+121734326+121454973+120313075+118754653+117348890+116435885+116233373
4277+116913472+118289439+119700239+120528833+120749582+120771149+120879436
4267+121102165+121503689+122159022+122758893+122741988+122093250+121532761
4257+121561186+121851365+121932250+121855643+121917869+122326054+123151252
4247+124022295+124126408+123198298+122141929+122022478+122806361+123603585
4237+123845948+123732520+123591802+123339119+122813388+122251473+122036456
4227+122254607+122754043+123308827+123657067+123756526+123898942+124247322
4217+124558046+124690771+124946999+125566458+126286343+126602799+126183609
4207+125132972+124121145+123927067+124589613+125376620+125746033+125890475
4197+126195523+126583248+126612968+126106777+125554722+125655908+126345041
4187+126742372+126374141+125863739+125981398+126629929+127206478+127418662
4177+127362441+127254003+127398868+128079839+129242994+130449847+131210183
4167+131289126+130775543+129979577+129208012+128619511+128352241+128608844
4157+129355409+130072873+130211762+129864723+129605502+129751830+130166169
4147+130615660+130932744+130993093+130829110+130572750+130193741+129611206
4137+129077960+129042509+129565604+130217850+130649667+130956976+131279032
4127+131375142+131034567+130623596+130649479+131014332+131291462+131508449
4117+132045034+132953462+133868344+134452173+134598004+134297337+133586496
4107+132678218+132023167+132059697+132831235+133919913+134790919+135217134
4097+135410359+135710135+136076180+136027397+135264200+134162501+133371676
4087+133119603+133213368+133466107+133779073+134058463+134394751+135065741
4077+136070495+136936773+137246127+137103073+136895448+136794798+136645834
4067+136281815+135828891+135615732+135797502+136186352+136516467+136768971
4057+137111516+137560641+137863062+137777778+137381516+136983622+136794451
4047+136807190+136964156+137211210+137364095+137229757+136936726+136811975
4037+136896949+136953208+136958237+137211960+137900052+138802729+139454450
4027+139531376+139172526+138906738+139161091+139875337+140609453+140926828
4017+140708134+140182262+139669129+139340431+139247726+139467293+140031656
4007+140736080+141273097+141656272+142217314+142996704+143517304+143456926
3997+143129119+142980183+142977847+142791209+142315451+141779503+141547516
3987+141897772+142761095+143628170+143923838+143547361+142961074+142775795
3977+143260137+144099069+144606760+144380345+143723268+143234273+143210004
3967+143706231+144755424+146064738+146893444+146805749+146260524+145979970
3957+146058734+146059428+145776726+145702465+146629186+148555839+150189864
3947+150345836+149622912+149457671+149997897+150169085+149450804+148380410
3937+147653799+147791600+149104573+151126848+152526569+152445046+151594060
3927+151207667+151458952+151517406+151038243+150923933+152041974+153782044
3917+154481009+153246022+150955576+149159040+148499308+148638646+149470514
3907+151722160+155829208+160550603+163633018+164122942+162659138+159882193
3897+156506859+154086689+154053855+156086440+157834278+157625641+157231659
3887+158967170+161767981+162719272+161981854+161839691+161920895+160588990
3878+159086611+159676144+162141934+164824824+167004656+168182071+167492403
3868+166004190+165930135+167125936+167265848+165430642+163297059+162707977
3858+164739699+170235145+178356199+183089085+178764225+170223493+163743097
3848+161191169+162230080+165536218+169458607+173200877+177004238+180398672
3838+181424412+179369593+176196799+173535767+171375560+169640340+168925643
3828+169351437+170489169+172969181+177890517+183476829+185383894+183542366
3818+181629241+179806175+176037787+171512938+169202313+170303553+174175152
3808+178679813+181605525+183721021+186954305+189842005+189317915+186636696
3798+184761320+183264814+180852609+178616921+178229628+179606712+181699487
3788+183968722+186240753+188155905+189886678+192438100+196053686+199261754
3778+200869859+201941810+204401503+209336967+216618911+224544142+230770251
3768+234922273+238433015+242269529+247206118+254522285+264373231+274536870
3758+282767047+290179427+299986619+314051934+330726383+344839786+353900367
3748+362159981+373224497+384852559+392088460+395945294+401679191+411650460
3738+425357657+440948786+455312141+465184457+470279983+473594659+477704709
3728+482548556+486550197+488826750+489847011+490264361+490710718+492408377
3718+496291327+502344635+510858442+522571010+535767083+545730359+550844760
3708+554233922+558953375+566033848+574680455+582572627+587474975+589403073
3698+590262878+592407006+597490861+605478834+614664672+622106696+624977791
3688+623573427+620744360+618010980+616193243+617048433+621606491+629100900
3678+637778766+643750382+642312058+636088125+631791989+630466614+628502981
3668+625260203+624110744+626403207+629847456+631892856+633116989+635562628
3658+638938431+641716390+645446802+653323026+664680947+673824608+674801152
3648+668975282+662617986+659657957+661000668+664703237+666986244+666454668
3638+665644584+666676290+669152849+673540845+682323968+695144305+704508911
3628+703413938+696622105+690792407+687378779+687692561+693471526+702174795
3618+707834131+708733224+707823474+707357941+708091776+710146332+711708863
3608+710597605+708371560+708398578+711047151+713638987+713771525+711936413
3598+710871686+712747249+717172019+721996954+726350352+731169058+735485907
3588+735029531+728542549+721556263+718795716+719009457+718512329+716855160
3578+717219751+721299969+726670664+729942899+730882969+731671364+733177083
3568+734138843+733304968+730490535+726256991+722172270+720111259+720294530
3558+721408941+723053051+725898779+729248465+730813173+729981399+728916896
3548+729185574+729256045+726906845+723296737+722015866+724619785+728903463
3538+731511359+731644572+731006125+730885821+731154273+731268799+730833361
3528+729670394+728297513+727897649+729182046+731367039+732819097+732432592
3518+730307639+727804812+726420524+726435984+727048088+727691262+728586153
3508+729430310+728666981+725547247+722205967+722094518+725740575+729249591
3498+728518984+724396288+721371266+721825691+724407170+727363896+730662399
3488+734372547+737338655+738449463+737712102+735878416+733903038+732654814
3478+732550570+733182937+733349097+731891410+729010783+726459474+725705602
3468+726418122+727674752+729864322+733528916+736742237+736334793+732348161
3458+728337289+726738283+726754719+726636967+725588675+723785384+722440121
3448+722881488+724788872+726753143+728395677+729916856+730569787+730103279
3438+729916106+731014606+732815194+734202785+734098466+731925933+728634560
3428+725852474+724243111+724111024+726200629+730129772+733598787+734832226
3418+734408196+733605841+732973624+733125674+734750422+737477572+740114587
3408+741942419+742494183+740769920+736699909+732359869+729862596+729426183
3398+730311917+731826792+733288607+734168863+733982515+732879812+732757031
3388+735508497+739486123+740348667+736825541+732396193+729913104+728809125
3378+728311397+729164185+731268123+732822774+732656089+731484266+730536540
3368+730251127+730598907+731878876+734329469+736881604+737422335+735140154
3358+731896213+730458864+731538227+733534469+735219106+736858338+738495844
3348+739528000+740213653+741443865+742988459+743733176+743422696+742741621
3338+742185579+741578504+740726691+740307840+741201905+742472944+741722149
3328+738658927+735765767+734226726+732574361+730522956+730257731+732447602
3318+734140644+732644232+729762029+729391360+732456157+736167807+737889594
3308+738012525+738262290+739235082+739827973+738218086+734374499+731236603
3298+731603895+734539307+736580580+736160978+734808960+734509213+735953241
3288+738257937+739133840+737156885+734475665+734884760+738905915+742737719
3278+743322730+742198338+741775809+741215639+738853305+735774398+734318362
3268+735151862+737054368+738220712+737978903+737632999+738303192+738949969
3258+738398505+737571234+737492357+737058045+734862996+731794896+730365127
3248+732433417+737833082+744390610+749095540+749693160+746064590+740639634
3238+736832521+736086604+736729103+736273402+734339150+732440097+731303171
3228+730043015+728468175+728017052+728980989+729335147+728082271+727110979
3218+728092327+730172775+731810882+732549519+732277089+730951940+729547538
3208+729273082+729787471+730005190+730098026+730912914+732311837+733300165
3198+733314574+732297578+730254504+727796632+725981634+725454036+726113271
3188+727183102+727766912+727521200+726644847+725592352+724829999+724232755
3178+722988433+720790608+718608918+717693689+718386921+720067355+721780436
3168+722941677+723523687+723373362+722046111+719790873+717520474+715585922
3158+713875018+712625368+711873297+711187494+710896752+711954876+713941137
3148+715073934+714590240+713182611+711131882+708301914+705737997+704911026
3138+705652366+706311901+705625348+703752712+701973512+701540101+702219525
3128+702159560+700028078+697131316+696208432+698164223+701151795+702943828
3118+703247103+702867277+701673014+698920047+694811385+690647262+687691210
3108+686338743+686177461+686494996+686732753+686674815+686450567+686386699
3098+686665358+687190105+687733313+687910055+687235510+685659544+683898732
3088+682740418+682157733+681694752+681460823+681981367+683115515+683819630
3078+683149963+681152369+678719564+676778032+675690489+675219028+675068929
3068+675289500+675786628+675962544+675299556+674030319+672891742+672100345
3058+671028787+669271202+667512717+666818058+667523449+669326439+671839022
3048+674318734+675379934+674059513+671121624+668332107+666463674+664956980
3038+663400227+662124985+661328485+660784225+660459261+660461663+660325448
3028+659195427+656994074+654876476+654168909+655003685+656211682+656597137
3018+655973625+654615379+652465209+649626986+646955298+645284770+644404139
3008+643542495+642546288+641835869+641499497+641036366+639998581+638399425
2998+636569793+635021371+634332416+634798399+636064634+637298374+637748371
2988+636975961+634951124+632366418+630378656+629509170+629090656+628167697
2978+626708922+625658453+625895985+627176780+628161243+627782693+626437993
2968+625310599+624795308+624251837+623133524+621698652+620336841+618895252
2958+617324953+616205739+615778782+615262854+614032154+612569927+611551992
2948+610851142+609809830+608044702+605942902+604430279+604072743+604543529
2938+605060995+604946995+603784178+601598097+598980632+596826560+595897897
2928+596341027+597332432+597602610+596733424+595517396+594779396+594414843
2918+593855199+592900494+591624952+589947069+587982948+586441506+585924714
2908+586205212+586558620+586248291+584789590+582564034+580784722+580095542
2898+579894597+579439984+578634402+577583521+576451136+575596960+575041631
2888+574256763+572960582+571544810+570524475+569971397+569447138+568390554
2878+566741565+565013587+563613801+562503593+561655083+561301037+561458228
2868+561621611+561226888+560220586+559008348+557945497+557047041+556183821
2858+555340715+554620952+554132980+553857586+553551121+552811546+551370857
2848+549470078+547886645+547275066+547401900+547301634+546239495+544323293
2838+542284910+540802569+539955260+539343906+538749514+538321732+538004760
2828+537323760+536001313+534337652+532810544+531591965+530540446+529576359
2818+528898437+528579739+528089365+526733145+524622114+522757659+521979845
2808+522042024+521888697+520837329+519247479+517903229+517105791+516561081
2798+515806946+514590956+513050414+511592014+510559295+510041603+509880734
2788+509714049+509143860+508022883+506570937+505223910+504281326+503600251
2778+502745174+501518340+500163846+499001366+498093191+497267046+496311628
2768+495165884+493942201+492836196+492110280+491902430+491821864+491144017
2758+489680026+487963268+486464491+485225273+484214768+483393726+482492006
2748+481265509+479891652+478756528+477964005+477263005+476341284+475058162
2738+473508464+472007323+470903270+470221445+469606526+468804472+467971797
2728+467272035+466483752+465347878+464031959+462932071+462209756+461680395
2718+460989864+459881570+458409135+456849118+455382763+453990594+452684469
2708+451694716+451251136+451146066+450726352+449584736+448094402+446884453
2698+445994366+444997258+443743255+442505726+441538487+440839363+440212812
2688+439385654+438222499+436867779+435535800+434328403+433415651+432986030
2678+432802233+432302404+431356479+430397271+429702425+429109196+428439454
2668+427706295+426953360+426202452+425454546+424630727+423650130+422558497
2658+421489717+420556100+419773897+419058900+418381990+417872179+417568904
2648+417186676+416382371+415207658+414112910+413488198+413284701+413135277
2638+412764533+412166200+411488165+410914299+410572336+410406626+410166243
2628+409546333+408396762+406920613+405585894+404701623+404201868+403861106
2618+403441617+402707557+401677577+400756982+400300156+400195386+400047013
2608+399561330+398714884+397768509+397071825+396688059+396334050+395802662
2598+395219865+394752982+394330678+393831336+393314995+392898357+392586714
2588+392321114+392014311+391563076+391021181+390645971+390566906+390564655
2578+390317667+389700797+388792060+387807560+387054663+386688534+386476819
2568+386060557+385461586+385050915+385004872+385113319+385158274+385170319
2558+385238989+385300680+385182665+384757922+384082776+383426093+383065405
2548+382987241+382887387+382552966+382143947+381972121+382083532+382218283
2538+382148262+381919999+381770312+381865250+382083006+382073850+381645730
2528+381048186+380719244+380792004+381008972+381085786+380974975+380748138
2518+380419496+380011752+379663372+379504642+379478637+379398409+379178627
2508+378941320+378849159+378844093+378642060+378075248+377371659+376939149
2498+376890216+376937010+376758542+376323517+375826201+375446864+375229520
2488+375113081+375027262+374926583+374751605+374488293+374271888+374226896
2478+374199728+373917091+373404466+372955894+372727781+372653332+372665866
2468+372736074+372803356+372877017+373051770+373259845+373226823+372843770
2458+372373923+372113388+372016950+371836005+371493216+371124160+370827940
2448+370556636+370223791+369814734+369385863+368987162+368595029+368161167
2438+367734173+367454388+367393110+367449623+367440054+367284514+367078765
2428+366937297+366808287+366563137+366250744+366088824+366183049+366392963
2418+366501484+366453152+366422044+366625016+367035199+367363428+367386243
2408+367158580+366843673+366523023+366248530+366105560+366143686+366315399
2398+366459982+366341328+365875421+365362045+365259039+365644906+366111377
2388+366238210+365926942+365183352+363837676+361707057+358904820+355732851
2378+352279972+348390042+344109404+339894547+336182034+332941921+329859261
2368+326913867+324588344+323263045+322547673+321830987+321509362+322834362
2358+326419966+331698050+338009678+345423297+353843217+361908115+367698937
2348+370142888+369546394+367392848+365220088+363174688+360468139+356924488
2338+353063114+349215024+345320704+341385406+337761827+335051376+333710578
2328+333549822+333773319+333778085+333713955+334040834+334902065+336178657
2318+337697247+339142739+340203339+340975899+341872178+343073195+344425513
2308+345818320+347238557+348471471+349161364+349263169+349171983+349314953
2298+349763224+350285381+350672599+350923752+351131152+351315173+351470938
2288+351675974+352002964+352369844+352597132+352600772+352465044+352345003
2278+352336897+352420840+352471424+352323876+351921798+351417090+351003267
2268+350652185+350194271+349664796+349352590+349445914+349802475+350142974
2258+350339379+350432103+350474956+350476044+350427487+350305569+350125263
2248+350044659+350257612+350713576+351119181+351278211+351276710+351319151
2238+351529064+351894480+352296371+352617357+352864045+353110733+353331079
2228+353417761+353377121+353363087+353484968+353691879+353879503+354022285
2218+354180639+354441887+354850494+355350399+355824562+356218384+356558847
2208+356839982+357019726+357161494+357420603+357828385+358249225+358627212
2198+359096947+359750103+360470766+361103321+361617448+362039827+362387644
2188+362720113+363118626+363596129+364102038+364587008+365028449+365454356
2178+365941990+366534881+367188563+367825170+368397048+368904720+369410142
2168+370030726+370895822+372107122+373709692+375668860+377884435+380248946
2158+382720252+385362446+388280672+391483824+394854411+398267289+401644705
2148+404846844+407635797+409916178+411957938+414167696+416665608+419309790
2138+422043845+424932952+427984128+431210808+434697872+438386069+442026647
2128+445484780+448839719+452111053+455113260+457636238+459613268+461011403
2118+461613675+461098160+459422379+456985333+454321037+451744361+449294632
2108+446859837+444304363+441562541+438726231+436069215+433840994+431915711
2098+429773084+426943341+423371209+419333844+415181278+411162488+407348733
2088+403694496+400195161+396933246+393985525+391355939+388990641+386823998
2078+384829219+383042177+381518634+380266808+379228497+378313568+377479205
2068+376803384+376413314+376279163+376161035+375837309+375307647+374732392
2058+374262732+373937768+373680873+373431408+373267275+373288364+373428031
2048+373534189+373593815+373745228+374102989+374663872+375399883+376401719
2038+377848674+379795872+382087734+384533599+387070536+389699258+392331658
2028+394720185+396497921+397325567+397095428+396032539+394541867+392876030
2018+390966545+388656032+386059431+383576492+381539422+379941393+378524270
2008+377077465+375597638+374179615+372873377+371695925+370646207+369620205
1998+368492699+367425006+366845099+366867951+366958498+366487337+365448352
1988+364310375+363422840+362821393+362351057+361826836+361239836+360805712
1978+360673475+360662142+360435943+359915550+359428966+359421236+359984933
1968+360662630+360795843+360178261+359257966+358621696+358476062+358651153
1958+358849959+358804141+358415159+357853489+357382403+357088771+356900209
1948+356833678+357131249+358005764+359097247+359457297+358593627+357200370
1938+356265816+355993949+355955974+355814055+355593297+355448301+355400157
1928+355432728+355769663+356612169+357578470+358099726+358363938+358862192
1918+359188958+358526308+357158305+356223525+356292796+356987379+357581397
1908+357650592+357277634+356770036+356310958+355967306+355836908+356022580
1898+356536294+357181608+357580121+357673032+357966813+358662035+358988988
1888+358257593+356999050+356123071+355791878+355686096+355611496+355556110
1878+355612697+355887491+356353961+357106633+358657457+361265953+363808557
1868+364248084+362099529+359102763+356981038+356094515+355961340+356081194
1858+356228516+356377752+356522110+356607404+356732098+357218157+358382400
1848+360480748+363530986+366429362+366980113+364652601+361695424+360086025
1838+359860726+360101372+360401270+361403031+363824918+366952157+368848771
1828+368872074+368250326+367577620+366306018+364583743+363430607+363267375
1818+363621045+364017420+364569784+365679954+367341026+368888285+369644746
1808+369685686+369682759+370337716+372056688+374588447+376856932+377824358
1798+377826234+378438826+380908481+384752631+387459180+386850978+384261357
1788+382701039+383401552+385575549+388044191+390337480+392243137+393491849
1778+394533799+396708435+401073954+407007595+411729562+412781681+411055730
1768+408773774+407246253+407492828+409969463+413354572+415636266+416880850
1758+418367693+420045163+421646870+424451734+429608951+435704099+439512075
1748+439856627+438612193+437935734+438820756+441193560+443985928+445946034
1738+447724558+451666010+458242638+463460344+463350209+460357834+458089724
1728+457415667+458327031+460620282+463641214+467433242+473425684+482538162
1718+492397607+497601654+496331441+492617502+490220645+490467108+493581026
1708+499175668+505745730+511372907+516367941+523075643+531811485+538854696
1698+541639409+541698023+540082281+537952000+537991926+541511187+547596578
1688+555382705+565537320+577346665+585114705+585263603+583026414+583422263
1678+587520981+594300693+601403269+607175591+612933166+620045461+626254497
1668+628633004+629400123+632642150+638711556+644498176+647844184+650517974
1658+655550121+664775060+678587326+693301989+699723452+698575795+699644800
1648+705132723+710355645+710737722+708455616+707682381+709824970+715201894
1638+723783058+732832756+735888623+730958469+724377750+720910687+720686139
1628+721928509+723318051+724485822+724368069+721760473+718491240+717850242
1618+719797927+719931290+715003613+707906103+702178173+698292558+695341160
1608+692558848+689780890+687234909+685086241+683361077+682150003+681502851
1598+681173533+680800837+680303109+679776711+679029218+677678927+675789630
1588+673900558+672370148+671184965+670394919+670356719+671680518+674989377
1578+679898217+683469224+682425285+679363339+679500529+683674484+688373035
1568+690648237+692072602+695082314+700293829+708715888+722579864+740636932
1558+752325973+752784525+751125030+753114518+759223250+768143638+777841164
1548+787026627+796531350+807758386+820342392+832269339+839866904+838654028
1538+831981224+828266497+829599152+832359098+832547548+831161308+832040738
1528+836350533+842254005+848000472+853810507+859590973+863363038+864445252
1518+864603982+864766014+864971724+866107674+869121588+874111632+880936487
1508+888499829+892250655+888591540+882505848+879468068+880374366+883689979
1498+886566553+886622915+884755308+884112959+886306506+890410440+893833450
1488+894308813+892142583+889470220+888064242+888532476+890789966+894734569
1478+900133858+906204615+911774492+915211235+914324224+909133198+903506434
1468+900969159+902096403+905057033+907448636+909306638+912964327+919466168
1458+925554937+925157850+918963637+913470536+910841025+909990489+909916265
1448+909862530+909080363+907544925+905964382+905258991+906578887+910592611
1438+915796021+918189050+915731328+912090150+911289822+913149024+914463216
1428+913283137+911363370+911043359+912330609+914151310+916185828+917823559
1418+917492215+915230448+912998624+911791077+911147753+910588484+910395156
1408+910885305+911217624+909844142+907057403+905458473+906470816+908675846
1398+910044825+909847670+907833415+904138201+900550683+898950627+898832124
1388+897799818+894472872+890691576+889512623+891706170+895501651+899166319
1378+902864010+907369759+911850742+914475299+915271950+916152806+917891479
1368+919679234+921469466+924309115+928006731+930430005+929943384+927370611
1358+924800764+923735586+924459664+926430315+929025828+931670574+933689031
1348+934684338+934760889+934364027+934524933+936666171+940946922+945222419
1338+946999066+946278366+945015282+944642811+945402012+947000042+948905550
1328+950366014+950750042+949852675+948060867+946577888+946919889+949512325
1318+953001078+955515838+956358944+955919229+954753860+953546613+953197858
1308+954076913+955327539+955648751+954943285+954314745+954172226+953525975
1298+951839912+950321059+950289688+951296403+951805164+951028626+949128747
1288+946251048+942669759+939504169+937853755+937282178+936190057+933702915
1278+930434208+927433953+925095259+923113276+921074030+918939471+917012799
1268+915505804+914238668+912719740+910513359+907632883+904488908+901404672
1258+898353158+895257139+892340789+889993690+888365641+887207551+886043533
1248+884487456+882549452+880892658+880663382+882404606+885102862+887098429
1238+887928327+888364515+888925210+889397497+889567184+889519302+889395470
1228+889506469+890381621+892161271+894179653+895679218+896801809+898207337
1218+899969274+901771364+903937519+906941001+910080849+912142309+913223548
1208+914385540+915909346+917486587+919557279+922854130+926891494+930088455
1198+931445575+931605506+932199598+934280422+937438656+940504129+942808075
1188+944384115+945415446+946124289+946956213+948336374+950347627+952810152
1178+955437486+957904214+959815126+960892987+961271162+961544792+962747761
1168+965678896+969731871+973124561+974946388+976084514+977530118+979069985
1158+980077825+980269577+979641112+978954033+979803519+983200036+988660790
1148+994672784+999120594+999947790+997157824+993492554+992098509+994057377
1138+997842726+1000755548+1001440526+1001150834+1002138111+1005042228
1130+1008128265+1009197270+1008330673+1007822663+1009069686+1011331829
1121+1013847115+1017074094+1021449107+1026171975+1029646318+1030673146
1113+1029325406+1027164580+1026381288+1028387887+1032966209+1038231910
1104+1041303762+1040165336+1036197242+1033655689+1035154879+1038913209
1095+1041446582+1042101314+1042953801+1044671085+1045389534+1044125550
1087+1042988850+1044624179+1048489605+1051120617+1050307830+1047601019
1078+1046095075+1047406490+1050655160+1053136222+1053162940+1052298144
1070+1053013216+1055556420+1058516599+1060934319+1062715545+1064031614
1061+1064693100+1064089702+1062519591+1061904410+1063886018+1067745590
1053+1071121769+1072457425+1072299896+1072337121+1073068404+1073034181
1044+1070819469+1067162530+1064410839+1064317402+1066191389+1067651103
1035+1067926535+1068612863+1070435741+1072087431+1072682349+1073055045
1027+1073741823+1073553148+1071422492+1068444001+1066710057+1066602586
1018+1066505622+1065322016+1063991312+1063462138+1062965235+1061875366
1010+1061099128+1061575468+1062936341+1063849994+1063542441+1062659258
1001+1061864483+1060815591+1059601440+1059473555+1060514342+1060430737
993+1057701335+1054033515+1051454888+1049153869+1045582336+1041615893
984+1039446962+1039653798+1040558821+1040169614+1037713167+1033967745
975+1030428559+1027400535+1023755605+1019233495+1015465933+1013465488
967+1011503017+1007035844+1000199807+993778418+989969279+988505438+987676366
957+986158864+983649658+980440239+976895575+973110751+969075113+965334269
947+962814405+961861351+961925444+962109690+961681307+960341598+958600149
937+957653774+958176194+959487835+960463854+960800226+960575753+959237920
927+956609010+954352195+954519555+956899826+959039789+959104257+958090412
917+958300026+960082677+961235213+959624200+955568673+951188932+948186050
907+946847992+946431167+946000082+945302797+944673356+944173977+943431136
897+942120847+940422250+939054998+938833602+939926023+941266633+940965684
887+938367694+935625009+935520015+937940137+940106517+940272902+939339436
877+938537606+937811502+936720882+935307625+933869600+932607342+931664570
867+931409477+932445310+934887422+937693224+939242547+938615883+936073355
857+932895532+931001432+931688736+934478252+937428149+938569352+937344994
847+934667527+931871256+929908861+929259457+930192473+932868590+936623093
837+939346791+938971693+935908846+932949568+932262790+933425908+934951815
827+936411003+937815630+938661213+938991731+939726766+941091617+942283179
817+942789988+942636137+941959565+941503789+942380518+944734222+947762921
807+950821790+953169489+953221574+949863632+944493388+940336769+939657120
797+942124074+945583407+947995874+948821344+948735413+948407296+948059667
787+947959475+948590342+949897555+951108479+951964119+952847227+953086184
777+951151858+947260839+943695986+942037992+941822600+942120171+942631484
767+942808901+941993187+940992477+941462887+943287567+944578344+944574516
757+944213078+943696136+942311397+940600943+940192374+941592948+943804208
747+945850058+947430902+948678075+949494989+949102930+947673236+947640365
737+950797624+954774574+955368741+952040294+947999327+945661984+944872688
727+944914791+946099448+949010994+952761070+954742903+953298424+950065891
717+947658602+946628547+945801726+944290229+942816631+942958550+945057235
707+947299415+947172806+943811412+938730934+934330780+932073215+931702995
697+931844088+931341332+929818952+927271846+923963662+920466279+917775603
687+917085672+918414049+920205406+920534724+918068896+912445660+904772520
677+897506749+892602112+889222331+884029879+874484778+862642787+856951030
667+864699069+879497562+890849480+895589759+894998218+891186077+886302829
657+882559958+881209667+881493580+881105198+878021938+872868136+869391617
647+870633386+874957365+877966251+878001600+876900398+875671387+872883446
637+868253040+864089667+861822946+860498172+858635742+855945817+853380173
627+851796253+851123884+850268094+848113197+845468751+843953501+843377346
617+842544897+841590717+841667117+843402037+846435765+849051466+848644623
607+844634726+840860560+841882659+846694911+849053267+844426614
##END=
