##TITLE=<SNM>
##JCAMP-DX=4.24
##DATA TYPE=INFRARED SPECTRUM
##DATE=2/5/2025
##SAMPLING PROCEDURE=Instrument type and / or accessory
##ORIGIN=Admin
##XUNITS=1/CM
##YUNITS=ABSORBANCE
##RESOLUTION=4
##FIRSTX=4497.3318
##LASTX=599.83466
##DELTAX=-1.4281778
##MAXY=1.8653307
##MINY=0.39921516
##XFACTOR=1
##YFACTOR=1.7372246e-09
##NPOINTS=2730
##FIRSTY=0.4208101
##XYDATA=(X++(Y..Y))
4497+242231261+242997170+244706696+245909597+246033629+245412115+244240883
4487+242526639+240898084+240517755+241856679+244016785+245520501+245539286
4477+244300377+242732860+241916911+242514235+244270510+245990346+246407062
4467+245290605+243475764+241918146+241144775+241314285+242106526+242790176
4457+242868832+242373958+241464581+240406916+239952596+240860618+242887394
4447+244907926+246040353+246037248+244886911+242863222+240856192+239934292
4437+240487202+242009411+243448761+243717411+242496634+240733652+239769345
4427+239968774+240748234+241683635+242843014+244056551+244648008+244132205
4417+242731934+241165241+240165440+240155850+241017536+242101328+242773141
4407+242975108+243040932+243151926+243237273+243177916+242890756+242409229
4397+241970726+241751621+241528536+241083978+240868097+241558334+243030519
4387+244338066+244612549+243649528+241922212+240349583+239578563+239229627
4377+238475488+237407426+236935454+237344158+237901237+237943558+237511335
4367+236948132+236519511+236328488+236275530+236196222+236097649+236049340
4357+236042993+236138255+236410353+236726127+236937376+237281885+238092671
4347+238967789+238797867+237029653+234485804+232581875+232059450+232594982
4337+233262385+233314005+232876309+232864644+233812585+235019414+235446388
4327+235131780+234884197+234918971+234782107+234378618+234083945+233955950
4317+233748202+233541208+233543678+233598043+233534637+233598403+234044231
4307+234709713+235234282+235382177+235219615+235135057+235414394+235806372
4297+235800127+235216287+234336383+233683578+233659510+234074098+234209023
4287+233603875+232505261+231485045+230977510+231058414+231438863+231875238
4277+232456763+233146176+233580510+233860465+234676946+236063441+237027732
4267+236969919+236457907+236116262+235711332+234786019+233572550+232877081
4257+233258646+234603677+236286887+237346148+236947446+235426163+234289446
4247+234368428+234782159+234521040+233956860+233880948+234191696+234348528
4237+234216417+233938932+233577216+233186234+232974402+233222208+233928331
4227+234649567+234991383+235125399+235385145+235596530+235387907+234949353
4217+234858979+235299523+235923387+236323290+236264036+235640207+234599525
4207+233636573+233281702+233642886+234329709+234914288+235355929+235760550
4197+235920711+235550623+234803277+234012133+233244578+232620183+232544117
4187+233096152+233760519+234153166+234394796+234600108+234659877+234583657
4177+234520629+234499974+234521023+234714242+235142948+235568190+235596667
4167+235152881+234715271+234775142+235092924+234993664+234366301+233723910
4157+233365402+233184295+233152867+233359981+233745011+234187733+234600675
4147+234770510+234533735+234078215+233605642+232977147+232143253+231500261
4137+231427729+231902120+232768558+233847804+234774387+235345774+235841420
4127+236444817+236741378+236254292+235077227+233768856+233000306+233142814
4117+233804625+234136422+233864633+233549408+233651309+233902443+233753142
4107+233042748+232093006+231389199+231320664+232041043+233310728+234462850
4097+234808269+234299276+233674400+233747756+234537732+235184670+234872738
4087+233804282+232975826+233006963+233530005+233759232+233380653+232754422
4077+232406619+232475376+232672575+232707211+232579371+232378381+232014109
4067+231453050+231032801+231123878+231590686+231902584+231698026+231107169
4057+230602756+230517306+230679834+230771854+230977407+231686497+232642502
4047+233131114+232968724+232695734+232829150+233347835+233800079+233629419
4037+232595205+231090597+229940225+229800548+230667843+231838972+232483594
4027+232447636+232347691+232768266+233658309+234627437+235443163+236040557
4017+236327802+236174161+235558823+234717227+234030524+233643607+233351335
4007+233003960+232806230+233074296+233874086+234947877+235883793+236368425
3997+236317183+235789217+234919932+233914401+232946148+232168317+231891810
3987+232443897+233723601+235155935+236141549+236430355+236246264+236189120
3977+236708783+237546108+237947024+237478586+236446018+235520584+235073642
3967+234977487+235130734+235782681+236931011+237931430+238259951+238146538
3957+238056577+238111198+238226635+238491442+239329230+240956120+242492706
3947+242699562+241971979+241912056+242754802+243042288+242059127+240768906
3937+240254956+240865421+242526433+244623854+245793937+245116498+243551521
3927+243004787+244101943+245600530+246251087+246578218+247818586+249689028
3917+250142901+247804656+243981205+241108835+240165492+240586221+242164717
3907+245956602+252701212+260720792+266424136+267658362+264865935+259222445
3897+252579805+247956530+247624253+250906099+253991330+253721205+252049488
3887+252650175+255419700+257507618+258487570+259783160+259908839+256951431
3878+253744604+254139447+258051984+263203071+268230160+271450608+270618927
3868+267435552+265976404+266380236+264972675+260290695+255421313+253918780
3858+257456753+266508059+279255868+287037678+281498834+269425890+259951469
3848+255958921+257241885+262240599+268662401+274705486+279586019+282122183
3838+280679179+276259312+272034723+269080026+266282263+263504572+262198929
3828+262807388+264430452+267535274+273672472+280832991+283106682+279878514
3818+276291976+273558408+269303231+264132227+261254265+262496039+267417350
3808+273172452+276536711+278462546+281862145+285419262+285358996+282706332
3798+280748091+279089807+276232722+273310722+272276422+273397819+276049591
3788+280026923+285045298+290152896+295012397+300623498+307267373+313292463
3778+317739726+322340287+329314021+339561846+352793705+367150872+379523533
3768+388164643+393187701+395179480+396219939+399077093+403680982+406965882
3758+407498892+407942558+411753365+420318375+431540372+439672490+442027032
3748+443742751+449723958+458096281+462501651+462918418+465583297+474278411
3738+489014569+506592750+521105994+528274473+530200446+532517041+538832601
3728+549433411+561964654+572525355+578565507+580284108+579294600+578068625
3718+578762516+581994269+587682020+594756523+598904840+595036701+584705261
3708+574307190+568425415+568251771+571485651+573682366+572934574+571578975
3698+571891541+574276002+579106374+587136143+597675847+606595076+607544304
3688+599704407+590155722+584732640+584585106+588671048+594955385+601162319
3678+605136066+603872419+597364584+592872409+595783223+601976364+601743604
3668+592992426+582918519+576145260+572392746+570339791+570240497+572891995
3658+576610233+577595212+575685022+575897128+582106464+592245903+597486866
3648+591146534+578241412+566950897+560851389+559327223+559483404+558856075
3638+557748642+558340357+561832353+567600733+574688480+581703387+584405663
3628+579303932+570945950+566053958+566918474+572307485+579014559+582919274
3618+582573289+581306691+582024599+583730369+584283244+584004851+584123839
3608+583779775+582049577+580545003+581331052+584212840+587295412+589921726
3598+593356527+597851996+601211589+601923801+602049926+604522530+608713186
3588+610070775+605807106+599305035+594931780+593358517+593220933+593821911
3578+595156718+596600151+597300767+597657799+599449139+604193700+610805701
3568+614727365+612022892+604963142+598715997+595524455+594715419+594777521
3558+594802705+595198302+596639608+598139516+597952868+596700886+596753724
3548+598221860+598428477+595821033+592180028+590189483+590613764+591901771
3538+591804536+589572310+586374730+583832202+582960446+583907135+585679192
3528+586701501+586225961+584485538+581753136+578594670+576185952+575205776
3518+575075363+574787431+574073503+573595630+573895536+574394132+574271508
3508+573826332+573801594+574112891+573992805+572849347+570826619+568514484
3498+566224994+563863830+561562572+559902607+559124553+558817236+558734960
3488+559154471+560115124+560832278+560035284+557214877+553840222+552334756
3478+553482743+555745986+556962525+556078796+553613225+551202792+550349667
3468+551085039+552012548+551805520+550293638+548165235+546185978+544726865
3458+543746621+543050328+542201835+540616598+538534925+537308813+537873698
3448+539378134+540084343+539269199+537400250+535101325+532841273+531034906
3438+529854564+529219001+529031804+529179338+529419304+529346429+528449662
3428+526566817+524502059+523503905+523870236+524806254+525454444+525346092
3418+524121970+521880308+519658101+518588375+518571803+518360075+517164945
3408+515587633+514521819+513988912+513691922+513872120+514717868+515624311
3398+515942745+515824134+515627845+515015475+513278724+510555964+508231477
3388+507630910+508489010+509307653+509273343+508980059+509082784+509343919
3378+509358878+509217074+508940396+508163371+506830074+505524397+504818257
3368+504877374+505750364+507217025+508380898+508367174+507435616+506611449
3358+506420581+506631075+506804101+506646514+506241722+506017195+506125238
3348+506074905+505415908+504464896+503913358+504124023+505069580+506434340
3338+507511167+507508354+506439417+505295307+504888182+504924928+504495912
3328+503183887+501501415+500333322+499951105+499646018+498630366+497128742
3318+495932686+495095859+493993195+492694140+492255140+493256142+494824636
3308+495647362+495456391+495018626+495016568+495325532+495209632+494128721
3298+492520736+491576037+491884623+492651973+492763858+492268041+492080089
3288+492625142+493553750+494414526+494953334+494995398+494541371+493927011
3278+493608406+493799274+494298831+494577774+494268913+493686530+493513401
3268+493911194+494327858+494153356+493208520+491935128+491267725+491610107
3258+491986182+491132234+489336228+488095329+488136158+488798689+489130298
3248+488776285+487958877+487173549+486857311+487085372+487535385+487742276
3238+487359236+486304092+484875001+483636846+482842872+482058608+480851504
3228+479688009+479372148+479626319+479157881+477403219+475273512+473777173
3218+472964980+472663976+473077964+473990136+474388136+473675923+472511501
3208+471732864+471163828+470210346+469091899+468645386+469057623+469513538
3198+469131116+467808249+466206543+465189415+465045826+465090876+464452396
3188+463169055+461877204+460789329+459696135+458555078+457515614+456708191
3178+456204104+455805007+454976002+453473110+451781064+450455796+449391457
3168+448300733+447496672+447336237+447220234+446128893+444072953+442205823
3158+441469662+441686811+441963764+441672881+440940048+440146452+439235274
3148+437895012+436181591+434476954+433054519+432067790+431604190+431390025
3138+430828503+429704293+428567319+428088759+428271153+428604237+428668877
3128+428259316+427326111+426143264+425171460+424566604+424128222+423698692
3118+423323131+423085327+422986376+422914530+422716766+422335750+421700290
3108+420620957+419178485+417960265+417421731+417293856+417026888+416483173
3098+415861025+415304169+414879408+414690359+414773081+414940172+414867811
3088+414389938+413669491+413016704+412593384+412317392+411948007+411282182
3078+410375705+409520762+408940403+408566078+408144268+407498823+406640209
3068+405681683+404800046+404245180+404135456+404152954+403721297+402667079
3058+401475689+400777990+400744092+400986837+400965839+400501792+399844751
3048+399203080+398460537+397521499+396620409+396013700+395555281+394872644
3038+393949457+393250248+393102508+393172913+392834030+391912525+390758122
3028+389737631+388995809+388504280+388048297+387363429+386460829+385591681
3018+384845193+384149689+383661934+383612185+383701460+383237997+382048322
3008+380792292+380226550+380406919+380633058+380093358+378662482+377055046
2998+376076448+375844031+375843104+375569651+375014751+374569130+374477761
2988+374489290+374158504+373394072+372511508+371805334+371242955+370616724
2978+369953541+369582681+369638778+369733989+369429966+368783389+368072583
2968+367295387+366326842+365305494+364513270+364048400+363827408+363744514
2958+363693666+363552171+363209274+362562045+361568179+360421873+359532002
2948+359131258+359000639+358761633+358323217+357811205+357219798+356487583
2938+355819528+355522744+355524151+355379739+354787646+353891256+353076765
2928+352563620+352180512+351583925+350686986+349710859+348881442+348285987
2918+347903394+347616869+347348185+347189980+347222472+347317546+347260385
2908+346903318+346243223+345520923+345085251+345025929+345133320+345193740
2898+345105220+344821405+344361785+343768835+343042246+342240861+341569615
2888+341202152+341046555+340789056+340221907+339508425+339008799+338834640
2878+338724333+338365070+337694613+336903555+336248778+335878708+335779825
2868+335781266+335604877+335090052+334412904+333922027+333776174+333832683
2858+333758779+333240934+332312704+331412402+330910821+330740573+330612287
2848+330356744+329976826+329573132+329286813+329233460+329421892+329667314
2838+329659731+329267187+328668370+328079469+327549238+327072222+326631815
2828+326095065+325323874+324403569+323599920+323125168+323024193+323188471
2818+323375942+323299293+322821454+322055100+321226850+320506746+319986671
2808+319693352+319548117+319395608+319131796+318779807+318431695+318138514
2798+317882045+317646402+317442633+317226615+316869857+316269325+315470204
2788+314668339+314076281+313756097+313596314+313438453+313165721+312709840
2778+312073556+311341409+310637191+310079409+309709578+309424289+309079745
2768+308661983+308237908+307811020+307352875+306885431+306434011+305967941
2758+305427108+304804822+304219077+303840120+303673647+303504257+303139917
2748+302616273+302082234+301585421+301065346+300483478+299846748+299143388
2738+298386675+297704895+297261778+297076811+296993163+296824768+296507707
2728+296108370+295702822+295317141+294996717+294793943+294627230+294310306
2718+293803680+293284840+292885057+292492342+291926909+291231714+290644116
2708+290305337+290150872+290053636+289894437+289562725+289089758+288696734
2698+288534755+288467781+288240030+287789124+287303565+286981186+286797163
2688+286571796+286212087+285768095+285312009+284901006+284580119+284288499
2678+283874202+283317347+282811648+282522841+282379321+282179961+281833959
2668+281440661+281171805+281108023+281178290+281220835+281076131+280657958
2658+280030303+279407760+278968417+278695393+278508025+278431616+278484968
2648+278533020+278402949+278062797+277615735+277180921+276808637+276506295
2638+276316302+276260839+276227232+276081036+275862857+275685233+275525707
2628+275292020+274972180+274609623+274233377+273847421+273456850+273142928
2618+273036429+273121587+273185112+273053584+272761003+272454441+272250037
2608+272165085+272119161+272039921+271957474+271934760+271957251+271957628
2598+271906214+271831778+271748490+271589479+271291614+270936520+270673600
2588+270520439+270405586+270361531+270482424+270718135+270878227+270843025
2578+270664543+270456794+270269374+270121977+270104170+270300322+270591170
2568+270693758+270482183+270147933+269979349+270086998+270359181+270579642
2558+270592508+270441474+270328851+270385549+270524677+270546206+270321285
2548+269866451+269313130+268823488+268482083+268251690+268047801+267831629
2538+267605216+267371889+267168841+267079445+267129212+267229107+267284380
2528+267269902+267154619+266898030+266560485+266254095+265995824+265769188
2518+265635515+265612578+265587429+265513765+265517625+265661796+265792947
2508+265751037+265575386+265401845+265272529+265137038+264973584+264822910
2498+264737409+264771119+264968540+265255443+265398568+265223157+264834747
2488+264503379+264364817+264312991+264141148+263765519+263344412+263119920
2478+263127485+263176995+263115614+262943874+262692122+262376845+262083304
2468+261931361+261937279+261996739+261996722+261890583+261693728+261457931
2458+261234982+261047545+260913066+260868017+260905467+260927048+260821801
2448+260554661+260161037+259753396+259510016+259509673+259621027+259672030
2438+259614234+259442271+259154202+258852666+258670290+258591753+258543016
2428+258558164+258658641+258702696+258546155+258248514+257992662+257870500
2418+257823735+257766231+257706068+257716670+257826943+258003933+258218612
2408+258446775+258618172+258654747+258575456+258487347+258471496+258562641
2398+258823691+259322442+260107804+261405950+263776807+267906632+274353703
2388+283616464+296239229+312663555+333046463+357235856+384769847+414869390
2378+446540411+478680934+510060386+539428502+565879078+588987937+608581984
2368+624557943+636740491+644797640+648652673+648944036+646574912+641332166
2358+631194098+614291830+590972581+563261788+535189022+512838111+501141843
2348+501855462+513699230+531762250+548384237+558693959+563302926+564685939
2338+564537409+563727413+563073871+563543098+565188413+566495977+565683647
2328+562345532+557319386+551519304+545365894+538780518+531231710+522114442
2318+511502069+500368661+489855686+480375724+471347319+461693404+450714701
2308+438572914+425983515+413615178+401805686+390607397+379961400+369880631
2298+360469770+351760245+343603562+335760474+328092506+320696447+313834462
2288+307686508+302214328+297304837+292952477+289221166+286097456+283456612
2278+281138765+279030501+277106982+275400423+273899006+272523267+271241693
2268+270116608+269169678+268318698+267519835+266826201+266222735+265571354
2258+264813406+264061857+263407766+262787436+262126226+261487489+260991036
2248+260645206+260320579+259885525+259346974+258844157+258508054+258347293
2238+258270283+258175947+258000296+257716293+257344592+256969066+256699233
2228+256584328+256560345+256505277+256360076+256175693+256027884+255917182
2218+255781331+255582760+255356552+255177556+255088709+255068415+255074110
2208+255091746+255112829+255111114+255095983+255122093+255177316+255141513
2198+254947282+254723099+254689904+254922407+255250036+255401464+255252918
2188+254926284+254641509+254523362+254569732+254713698+254853444+254905201
2178+254890396+254905887+254983874+255051568+255034602+254935582+254816080
2168+254741112+254715465+254662370+254512142+254310724+254173671+254133477
2158+254095255+253956007+253724979+253501945+253354994+253267280+253223620
2148+253268652+253416015+253587875+253738703+253949265+254303604+254768697
2138+255282185+255850054+256460983+257023860+257521102+258130555+259041630
2128+260206498+261434548+262706310+264218192+266084190+268129563+270045620
2118+271688807+273174888+274675550+276151510+277321799+277898829+277825250
2108+277263505+276379072+275191903+273671409+271905133+270086809+268381074
2098+266874338+265604704+264568568+263727469+263038639+262456600+261922080
2088+261402091+260925109+260530009+260197629+259880602+259581708+259346339
2078+259201413+259157461+259222634+259352755+259455292+259512126+259624836
2068+259868747+260152082+260288482+260213068+260066357+260015527+260072585
2058+260169185+260308828+260521449+260759459+260956057+261120746+261299383
2048+261492069+261667240+261844196+262089342+262387876+262604889+262654793
2038+262621941+262642767+262768874+262988426+263276118+263583829+263848464
2028+264047241+264241231+264518904+264875594+265255065+265741105+266475327
2018+267278857+267665928+267437799+266965295+266698018+266699682+266798204
2008+266911479+267051671+267179477+267231731+267253192+267371083+267589073
1998+267767383+267987295+268686830+270020196+271291305+271595243+270901472
1988+269905222+269128352+268707124+268645417+268827399+269034925+269172904
1978+269317110+269531206+269773453+269958094+270110723+270492837+271354076
1968+272432465+273024180+272797440+272187936+271786677+271775886+272087870
1958+272650335+273278127+273674857+273745056+273721999+273915492+274460974
1948+275372958+276765337+278715636+280656019+281376209+280368139+278638833
1938+277470516+277169821+277333773+277576261+277754966+277893785+278044116
1928+278297909+279010481+280498895+282301986+283581278+284388616+285237658
1918+285602325+284545363+282633612+281466531+281771618+282951531+283904035
1908+283976807+283381987+282759222+282456536+282421094+282582386+283053140
1898+283951692+285042947+285783500+286166197+287011859+288577334+289607500
1888+288963359+287380420+286246037+285897205+285959786+286204453+286546869
1878+286878324+287166015+287572095+288713546+291618699+296539067+301431196
1868+302880462+300124421+296055360+293408152+292597743+292703213+292932817
1858+293064054+293188120+293432477+293863209+294607536+295913213+298036264
1848+301298107+305779955+309988933+310811281+307471348+303266590+301135545
1838+301095779+301628789+302058800+303484632+307143925+312008813+315035630
1828+315060883+313958459+312800522+310813511+308134600+306319655+306108304
1818+306729903+307301924+308035031+309723234+312286417+314331240+314617697
1808+313602216+312861045+313681438+316437891+320310560+323437632+324387135
1798+323819677+323976612+326652676+331430278+334859693+333461275+328854194
1788+325451439+325099004+326688359+328716199+330756013+332467512+333245497
1778+333708343+335876958+341232242+348792407+354520747+354790666+350851572
1768+346017804+342328146+341293349+343542284+347152788+349066923+349189068
1758+349503007+350313553+351354526+354161827+360175525+367604316+372124420
1748+371950776+369506821+367709477+367831313+369713883+372077243+373478338
1738+374801650+379064084+386851486+392634104+390789138+384640875+378953365
1728+374818600+372656263+372774600+374430722+377410192+383400833+393654217
1718+405008721+409825711+405320292+397155889+390695608+387959982+389442838
1708+394635800+401291340+406513569+410613681+416786339+425383738+431408861
1698+431681525+428122177+421687732+414287831+410090895+410680346+414562656
1688+420808772+430662750+442996331+449197398+443961136+435220423+430318584
1678+430844835+435470202+440947253+444806473+448407130+453108186+455679672
1668+452778670+448149528+447295854+450610467+454012570+454314295+453571477
1658+456186434+465231754+481466893+499203553+504445064+499023973+497773227
1648+503226604+507636263+504259926+497703611+494916794+497660414+505537812
1638+517941592+531750275+539174503+537000330+533033411+534081143+540882057
1628+550969825+562076780+573778435+585260264+594299236+601317196+610321651
1618+623521293+637064929+644779593+647894279+651546196+657202518+663356408
1608+668422869+672120212+675178835+678219549+681014326+683176971+685216030
1598+688081281+691897201+695758341+698890800+701655865+704823458+708236712
1588+711048027+712940856+714353066+715882207+718149841+722021755+728435374
1578+737299226+745524976+748719811+748781364+751739046+759456730+768647765
1568+775649256+781659180+789648670+800530446+815234867+836360318+861828832
1558+875878750+872862946+867514112+866247445+867291987+868496621+868875681
1548+868745439+870033172+874365187+881281245+888536632+891000315+882478879
1538+868168272+858942103+856808278+856827218+853254283+846492004+841510290
1528+840728976+843078338+847241820+853037992+858530585+859674284+856487546
1518+852791026+849537589+845976801+843339782+843718087+848219320+856915875
1508+866858649+868658085+857278329+843574052+836114382+835249352+838602083
1498+842173644+841477764+836695873+833380540+835509904+841626876+845752274
1488+843228342+836425919+830418809+827250324+826024898+825464612+825936995
1478+828947722+834994152+842328521+846941811+844671432+836792285+829841298
1468+827820492+829504509+830557354+828476230+826541611+829482344+838137659
1458+847668160+849042012+840738995+830907799+824474760+821808715+821608000
1448+821617470+820099240+817512520+815486156+815126241+817115207+821761230
1438+827390722+829487971+825698608+820360341+818136555+819028828+820276075
1428+820394446+820544107+821638056+822873157+823956675+826012752+828415775
1418+827527002+822161219+815778342+811313341+808959931+807715772+807206882
1408+807825976+809181026+809600160+808520828+808007683+809907786+813300729
1398+815887106+816526237+815165972+812154697+809050647+807902763+808981615
1388+810138488+809081869+806740537+806216825+808723258+813028923+817899883
1378+823290370+829216028+834489516+837253140+837324574+836949563+838088115
1368+840471855+842978358+845350776+847471768+848451738+847751191+846029844
1358+844242622+843057546+842855870+843497197+844393862+845068265+845505789
1348+845877026+845915797+845164128+844268767+844947630+847860297+851405509
1338+853418218+853389054+852274931+851179473+850822715+851517498+853241520
1328+855685235+858167994+859998790+861378201+863400997+866689636+870529504
1318+873887039+876888913+880403726+884305284+887279161+888738308+889900054
1308+892258679+895845474+899620222+902830840+905264124+906980529+908638196
1298+911186214+914514722+917216655+918116065+917218783+915101496+912453635
1288+910189775+908903826+908056225+906556660+904409730+902950926+903022840
1278+903782606+904039659+903923828+904271459+905140676+905778984+905668162
1268+905201954+905383455+906737613+908694122+910526908+912369369+914557061
1258+916736861+918470215+920051919+921841748+923345911+923752762+923125433
1248+922453569+922520200+923218139+924084130+924920272+925505056+925272364
1238+923940508+922175107+920954005+920476955+920290581+920166241+920131725
1228+919883112+918904035+917179120+915461479+914747139+915361499+916617667
1218+917708939+918648698+919781005+920918253+921713703+922465303+923954506
1208+926606759+929819435+932122958+932516085+931636576+931091248+931736762
1198+933016809+934184937+935788942+938903765+943058876+946279238+947404958
1188+946964483+945779544+944697741+945378525+949070379+954474589+958591273
1178+960268839+961143408+962654432+964334606+965456964+966790261+969544689
1168+973176980+975366319+974620482+972223704+970770184+971621970+974527295
1158+978579887+982459281+984822778+985710316+986405236+987126438+986642869
1148+984967156+984477068+987508517+993386004+998477785+999893015+998326820
1138+996342794+995280480+995175079+995975606+997165417+997690433+997611520
1128+998561365+1001715851+1006420476+1011005426+1014056295+1015385612
1120+1016316930+1018402720+1021679556+1024488401+1025404348+1024899850
1111+1024302920+1024189696+1024504252+1025042855+1025779153+1026654751
1103+1027359347+1027960806+1029048167+1030926174+1033145637+1034659406
1094+1034453270+1032496349+1030260761+1029888357+1032926806+1039490841
1085+1047191850+1051567439+1049988411+1045419999+1044238010+1049415087
1077+1057671510+1063562240+1064999978+1063120118+1058451863+1051172184
1068+1043983840+1041009482+1043840491+1050023339+1054890320+1055505709
1060+1053494921+1052309913+1053188050+1054720827+1055459252+1055554704
1051+1055154577+1053709840+1052060683+1052742016+1056801470+1061744276
1043+1064286187+1064600126+1064668335+1064042859+1061123192+1057295264
1034+1055885317+1057637817+1059677494+1059458801+1058268646+1057762432
1025+1055924019+1050377284+1043734541+1041806647+1046783077+1054612887
1017+1059395876+1059481720+1057718652+1056878257+1057334515+1058294379
1008+1059484602+1061739404+1066227737+1071887902+1073741823+1067559318
1000+1056368749+1047305485+1043878987+1044366605+1045526910+1046046642
991+1047164882+1050532504+1055350489+1058292251+1056662514+1051097456
983+1044145098+1037856300+1033491759+1031816526+1032557147+1033834999
974+1033553723+1031826887+1030456672+1029953135+1029145265+1027548260
965+1025512494+1022802737+1019942976+1019224519+1021522553+1023862444
957+1022452841+1017220251+1011462438+1008019403+1007078821+1006489096
948+1003636129+997978639+991612986+986776611+983686010+981606533+980989772
938+982564545+985402690+987776412+988970341+989169958+988379587+986637242
928+984259198+981497427+979090767+978427344+979867689+981757773+982194749
918+980767579+977998534+974583770+971796953+971176074+972752288+974344422
908+973780910+971421598+969333750+968731399+969272129+970108064+970876889
898+971591640+971707128+970369577+968013422+965969696+964414961+962646061
888+961339320+961844573+962956020+961859052+958872548+957561416+959524512
878+962243052+962875734+961785559+960654624+959753499+958566364+957728438
868+958844277+961933642+964488042+964050243+961126733+958308556+956862173
858+955925022+954801017+954035487+954002000+954146172+953776375+952652165
848+951021741+949250302+947224075+944739256+942527753+941632942+942160908
838+943871344+946517352+948981584+949739292+948945284+948760145+950321743
828+952099427+952195015+950784589+949485464+949571240+951240641+953386817
818+954496891+954983548+957153878+961354828+964066437+962222466+957603274
808+954211704+953934752+956335784+960111492+963658076+965976696+967473996
798+968433517+967880641+965492784+963113641+962930424+965180011+968354809
788+970660459+970920737+968824723+965011960+961102373+959310965+961064494
778+965033163+967329069+965458473+961670825+960349125+963047765+967354665
768+969987566+969757893+967528343+964971130+963610179+964045302+965693705
758+968024127+971126324+973622190+972853091+969283725+966531012+965930720
748+965306891+963092506+961640564+963674134+967143863+967517158+963863046
738+959934726+959425218+961948876+964385591+964692256+962986487+960327922
728+958305674+958717192+961527546+963397730+961212097+957136312+956481740
718+960974121+967360772+972202706+974915070+976132810+976094383+975045792
708+973960764+974400622+977107702+980151915+979557936+973424838+964658015
698+958405174+957693373+961418302+965457444+966562235+965121958+963029718
688+960657094+957864993+955907798+955288498+953818234+949285504+942721881
678+936987605+933799358+933705279+935949102+937193604+933258216+923993483
668+916621921+918899849+926258098+929515789+926759165+922211750+919464596
658+917726437+915860165+915272224+916991786+920378690+924464494+928698656
648+932050495+931739575+926031170+918301409+913757974+912378290+909684728
638+905278809+903752276+905202022+902721527+893678987+885069030+882585379
628+884383511+886949988+890472143+895985460+901117796+902432978+898907117
618+890501032+877507390+863578999+855338564+855784940+861435361+866816790
608+869798696+871506935+873844288+879065351+888380795+898315334+902082121
##END=
