##TITLE=<SNM>
##JCAMP-DX=4.24
##DATA TYPE=INFRARED SPECTRUM
##DATE=2/5/2025
##SAMPLING PROCEDURE=Instrument type and / or accessory
##ORIGIN=Admin
##XUNITS=1/CM
##YUNITS=ABSORBANCE
##RESOLUTION=4
##FIRSTX=4497.3318
##LASTX=599.83466
##DELTAX=-1.4281778
##MAXY=1.7463579
##MINY=0.19159937
##XFACTOR=1
##YFACTOR=1.6264226e-09
##NPOINTS=2730
##FIRSTY=0.21278648
##XYDATA=(X++(Y..Y))
4497+130830995+131247285+131707076+131656283+130879214+129755486+129043632
4487+129168967+129738545+130047485+129908838+129672937+129680697+129944304
4477+130161689+130087972+129989005+130378103+131216593+131811458+131731007
4467+131438366+131716385+132545677+132891741+131944004+130172729+128638922
4457+127841248+127748859+128248102+128925260+129057585+128452046+127848138
4447+128030442+128885075+129605276+129580355+128929905+128327435+128345475
4437+128814446+128876207+127931209+126464229+125588056+125792742+126519778
4427+127046094+127270194+127314190+126992103+126228209+125441089+124928956
4417+124417391+123722056+123303878+123696558+124797235+125954515+126519082
4407+126286414+125558939+124840489+124469183+124436008+124402457+123939716
4397+122884949+121498521+120349826+120051102+120813786+122122017+123120227
4387+123449452+123398054+123179853+122558217+121414543+120211527+119483649
4377+119250954+119269489+119434000+119720384+120144507+120748663+121293486
4367+121340221+120947614+120707810+120893889+121137797+121032692+120576730
4357+119968919+119342812+118875535+118924258+119640574+120489097+120693233
4347+120208879+119634747+119215754+118685324+118045116+117804176+118319470
4337+119248343+119829081+119692495+119214911+118938991+118957873+119114762
4327+119426863+119879590+120086009+119697580+119015383+118654439+118715412
4317+118835369+118856084+118818007+118617984+118310922+118342952+118922985
4307+119603358+119944558+120119175+120494566+121090375+121716630+122232556
4297+122432332+122091948+121436266+121149470+121543900+122056821+121989059
4287+121434506+121014139+120956153+120910362+120541109+119973537+119697708
4277+120128584+121102075+121851237+121786242+121239376+121094956+121731399
4267+122636423+123098394+123010083+122750883+122496190+122136823+121780213
4257+121719525+121958321+122312026+122753732+123237921+123590646+123822223
4247+124066581+124216424+124142881+123982914+123769570+123330933+122886919
4237+122997119+123615072+123986304+123798915+123634569+123953083+124446205
4227+124764545+125076628+125424598+125304916+124506023+123716467+123671290
4217+124170321+124509569+124509826+124583341+124981637+125438625+125542210
4207+125230521+124865079+124787322+124803731+124385031+123559294+123182831
4197+123910498+125213150+125929493+125626857+124900719+124440873+124391646
4187+124650470+125213681+126036514+126905458+127629269+128176373+128578398
4177+128863279+129120903+129513336+130135852+130900396+131560385+131765832
4167+131236648+130177026+129350712+129318856+129805354+130232730+130502457
4157+130743379+130796601+130546627+130323021+130473716+130888962+131238884
4147+131365831+131273443+130958373+130411745+129713753+129050750+128657731
4137+128688680+129040581+129369595+129392948+129157560+128994734+129221666
4127+129762009+130060385+129665745+128903802+128576108+128976777+129597241
4117+129846170+129707312+129539035+129511989+129517706+129502296+129565174
4107+129732123+129899905+130016298+130138445+130356343+130731899+131201210
4097+131534567+131533211+131230611+130843986+130616212+130698871+131124534
4087+131877598+132906950+133974451+134641274+134654239+134285233+134067656
4077+134197453+134318234+133974772+133225711+132604881+132434552+132459463
4067+132309107+132023658+131883563+131970253+132114306+132135241+132048816
4057+132089532+132446398+132953373+133256569+133283340+133195569+132954317
4047+132431913+131867163+131634505+131638408+131491909+131164196+130957173
4037+131023954+131302193+131722120+132212210+132662940+132973199+133033247
4027+132790465+132457603+132434323+132856898+133453101+133960021+134377988
4017+134657986+134487290+133699878+132658002+131922748+131757211+132152942
4007+132989618+133943942+134643519+135071079+135446489+135749858+135796016
3997+135667502+135610395+135592356+135385259+135028512+134854555+135074908
3987+135564375+136040117+136325942+136439284+136500312+136621047+136888631
3977+137349063+137905430+138305229+138334511+137989472+137447554+136953854
3967+136747903+137012601+137781918+138830720+139733976+140177853+140185146
3957+139961119+139651528+139395947+139528694+140427965+141883932+142891615
3947+142796505+142369120+142684785+143384087+143198943+141948029+140689382
3937+140325516+141232693+143428751+146108688+147583355+146860918+145096185
3927+144363387+145318114+146660611+147038220+146970266+147813282+149471133
3917+150217490+148820792+146087533+143792214+142909041+143359744+145087600
3907+148694275+154392176+160586865+164614777+165342454+163410222+159529854
3897+154834404+151489743+151185988+153393508+155323449+154979877+154299549
3887+156049972+159337912+161020151+160973792+161285315+161210206+158974751
3878+156461251+156668035+159589938+163485533+167383859+169929830+169122243
3868+166273342+164929618+165513012+165170741+162511309+159690536+159380258
3858+162977706+170973300+181482852+186859986+181193189+170820937+162887425
3848+159483385+160284650+163822729+168294994+172788570+177195639+180485064
3838+180633780+177654798+174084451+171479973+169460281+167730913+166927852
3828+167218523+168192161+170788925+176661224+183953878+186941857+184527158
3818+181346541+178612806+174090645+168564337+165411370+166479724+171121265
3808+176270230+178891145+180399693+184032213+188573046+189601582+187148476
3798+184540883+182303522+179685631+177643181+177496389+179163364+181949359
3788+185623254+189975572+194284352+198357542+203210119+209205719+214596467
3778+217977108+220946121+226187768+235162441+247721242+261631151+273393926
3768+281738131+288145578+293950024+300288152+308729894+319313347+329680944
3758+338310195+347378998+360713593+380707772+405696372+428093870+442214412
3748+452903336+466102958+480125980+488103635+490091039+493061445+500901634
3738+513377171+527348776+537943919+542427582+542273515+540395211+539033419
3728+539614688+542176179+544827384+545130607+542124469+536874283+531865752
3718+529342961+530188423+534500428+541354464+546864336+546301244+540963067
3708+536427951+535898721+539220762+544071928+547337861+548278168+549629918
3698+553545578+558879724+563277998+566785109+572144505+580478009+587419633
3688+587796518+583395349+579283221+578398069+581609763+588084386+595478645
3678+600764673+600525363+594137230+587466908+585159130+584394988+579662854
3668+570849559+562471162+557660822+556771089+558243190+560466643+563295589
3658+566609567+568930246+570423676+574384633+582723670+592080194+594907528
3648+588096003+577038366+567720029+562895872+562762694+565136806+567065134
3638+567782769+569082260+572849131+579479506+588367819+597587171+602442771
3628+599680707+594181793+592000889+594833829+602355220+612655495+621493088
3618+626089955+628336826+629914583+630022620+629175618+629843413+632108900
3608+633149329+632079729+631148877+631824807+633321499+634618975+636411340
3598+640346937+646214087+650954613+652293061+652616293+656181821+663808281
3588+671277448+673516989+670512977+665710809+661464660+658723706+658454565
3578+660955257+664409010+665789822+663911041+661138203+661416945+666782461
3568+674422334+677378044+672646826+665371891+661263904+660693446+660557190
3558+659204963+658121217+658964408+660688096+660902338+659957854+660903731
3548+664577663+667558366+666230987+661197572+655923455+653104294+653326159
3538+655044863+655655194+653860629+651057886+649753302+650927787+653312233
3528+655243493+656650032+658637730+661334414+662994702+661765758+657994636
3518+654126911+652238309+652284558+652913066+653073290+652449253+651169662
3508+649802190+649313016+650135610+651315080+651427075+650241596+648671462
3498+647415911+646325496+644937647+643249728+641883208+641488146+641944923
3488+642368131+642063588+641352623+641074247+641509402+642147878+642733142
3478+643922433+645899283+647245500+646678193+645006765+643807945+643322730
3468+642922097+642422809+641767841+640521600+638752908+637343878+636875813
3458+637055900+637375834+637599239+637412849+636334673+634627843+633458635
3448+633287490+633224163+632769292+632682657+633059322+632511365+630728748
3438+629751427+631239837+634036496+635582076+634830945+632605330+629968088
3428+627482715+625614122+624880801+625364698+626442506+627161314+626952789
3418+626298847+626515875+628075455+629255291+627864437+624519821+622172903
3408+622247151+623420317+624158109+624355420+624361210+624033580+623144140
3398+622036573+621115690+620140128+618809304+617717056+617979526+619841010
3388+622149228+623460190+623259507+621867261+619853983+618010824+617130986
3378+617233159+617597511+617890033+618452795+619275389+619786844+619890264
3368+620332602+621881407+624340981+626357190+626434590+624401743+621505841
3358+618951717+616955883+615263272+613928416+613351802+613901810+615481546
3348+617239389+618138651+618079795+617980992+618662346+620030552+621396851
3338+622085388+621588299+620039127+618436523+617564088+617221212+616900178
3328+616372085+615349761+613806416+612753748+613218184+614661517+615832191
3318+616518896+617096244+617294728+616776236+616173894+616429255+617399247
3308+617906524+617305649+616377949+616185475+616738489+617484050+618240751
3298+618888536+619246731+619545043+620039933+620463361+620714178+621348330
3288+622640161+623977949+624642005+624459866+623662925+622825818+622433615
3278+622093964+621222628+620409122+620774427+621987759+622405836+621516176
3268+620694828+621154170+622341262+622926306+622570823+621746837+620641395
3258+619335931+618412629+618338820+618624526+618391886+617514027+616679486
3248+616663727+617818203+619823932+621655877+622158610+620949236+618815754
3238+617017524+616092316+615733682+615639571+615791292+616018728+616026864
3228+615716458+615250592+615110451+615529628+615683108+614494807+612505423
3218+611592969+612540458+614164904+614919883+614350341+612862115+610858952
3208+608668922+607078851+606900157+607559266+607276822+605467306+603707153
3198+603383847+603689819+603008392+601384898+600242223+599973376+599543022
3188+598463161+597320888+596267011+594881398+593653077+593545699+594064227
3178+593583849+591588382+589208957+587805460+587950292+589184806+590175980
3168+589607501+587452213+585180055+584185180+584153810+583669364+582424258
3158+581684891+582147641+582742727+582262642+580808754+579164482+577941585
3148+577475793+577582511+577395461+576142696+574070085+572167447+571172865
3138+571044231+571268625+571568513+571913845+571961890+571277018+570204633
3128+569723338+570139876+570552786+569936445+568382436+566749231+565320630
3118+563414767+560655525+558164214+557483044+558589108+559966915+560500652
3108+560403902+560399321+560819194+561387233+561327167+559993594+557765744
3098+555806521+554620785+553420316+551372919+548984186+547594431+547875519
3088+549287958+550643667+551019965+550529253+550049974+549912398+549544639
3078+548730767+548118054+548078621+548195600+548036219+547490352+546544585
3068+545477697+544831891+544690871+544518553+543893527+542944865+542109224
3058+541678357+541418121+540763813+539598673+538410518+537600750+537203196
3048+537151670+537230462+537000608+536208175+534967027+533499396+532141563
3038+531333114+531067895+530699512+529773498+528766419+528525937+529095332
3028+529513556+528919350+527560820+526336274+525532773+524593382+523116480
3018+521528902+520599736+520557738+520858176+520756808+519990028+518881106
3008+517965243+517589164+517627241+517411313+516188196+513977130+511776326
2998+510609427+510533639+510773938+510636546+510028011+509233489+508642728
2988+508533958+508614436+508023235+506332200+504238737+502809330+502418226
2978+502657939+502880427+502714266+502185660+501308460+499943150+498365687
2968+497241335+496674322+496171039+495629826+495332980+495175908+494898265
2958+494585183+494193749+493294671+491817696+490363222+489441459+488909994
2948+488397879+487910721+487630513+487389628+486889863+486221592+485638271
2938+485162034+484783500+484461330+483777667+482353867+480577993+479270293
2928+478801166+478862771+478793213+478095808+476964750+476135082+475994062
2918+476065965+475528380+474160798+472665095+471876730+471737688+471444800
2908+470577312+469524131+468747896+468201992+467581583+466754517+465809776
2898+464910442+464192807+463619490+462935827+462013441+461142472+460678732
2888+460539288+460344981+459889524+459253210+458661716+458344567+458317704
2878+458276695+457895303+457217870+456528087+455828739+454785012+453335816
2868+451982893+451189433+450831972+450458385+449757864+448720148+447677264
2858+447123188+447157343+447257831+446876915+446043217+445155316+444377945
2848+443527609+442494437+441438727+440524660+439790166+439309605+439125524
2838+438999016+438550301+437638873+436443315+435294263+434480574+433988762
2828+433438057+432533446+431543225+431027995+431087511+431171727+430732944
2818+429756869+428517297+427212786+426034746+425152086+424459994+423754562
2808+423137818+422767713+422357625+421518466+420429517+419593876+419131052
2798+418788909+418422542+418018391+417412275+416423117+415221659+414211648
2788+413530514+412933193+412209071+411479012+410950626+410540318+409976493
2778+409251858+408673814+408367330+408017930+407274055+406165316+404999919
2768+404070607+403478380+403024168+402364546+401443113+400530402+399705719
2758+398684421+397354403+396108308+395377479+395090711+394840261+394447690
2748+394093857+393880457+393575768+392953490+392098646+391177506+390189777
2738+389160820+388310483+387787521+387401254+386826728+386009264+385170655
2728+384433010+383689465+382918581+382310852+381917585+381455605+380660386
2718+379622707+378622224+377778191+376994224+376190796+375464072+374943235
2708+374587166+374231024+373734741+373023445+372148848+371304815+370602682
2698+369932762+369227477+368629973+368196174+367719461+367074901+366443864
2688+366006657+365687236+365353485+365031315+364755505+364370520+363649367
2678+362578521+361432218+360548349+360018753+359607785+359013946+358173688
2668+357252878+356456816+355956575+355835821+355942796+355914210+355471616
2658+354631834+353623216+352693061+351981399+351495158+351160271+350872513
2648+350537333+350138240+349725917+349290798+348768899+348201409+347712089
2638+347307168+346866810+346318523+345697198+345108820+344717349+344632143
2628+344731421+344734830+344465799+343919528+343157146+342325610+341663423
2618+341236404+340794872+340147381+339496481+339126522+338949514+338622287
2608+337986083+337219962+336636788+336380950+336286985+336064424+335620913
2598+335130750+334802240+334652535+334537204+334368918+334201658+334039895
2588+333716296+333095594+332284653+331546459+331064138+330760915+330344414
2578+329645359+328862271+328318090+328066503+327891474+327611485+327277661
2568+327063126+326960036+326719041+326222867+325713208+325437910+325313198
2558+325128457+324862138+324636169+324505080+324392242+324174664+323788910
2548+323289659+322848494+322640665+322617907+322469740+321982289+321325745
2538+320796882+320455692+320211509+320029443+319857822+319589780+319246648
2528+318996381+318913557+318899594+318861078+318810687+318805373+318894903
2518+319079901+319253978+319254967+319025992+318694770+318468361+318434498
2508+318472319+318390778+318092539+317561733+316843255+316124044+315642713
2498+315436313+315361882+315359646+315458449+315553330+315436753+315083030
2488+314724725+314570585+314529576+314322517+313839573+313245331+312740289
2478+312380921+312123545+311900873+311657349+311378167+311063290+310692415
2468+310305012+310061269+310092602+310315384+310488361+310443871+310226953
2458+310026563+309975183+309996329+309875465+309514961+309073723+308793808
2448+308741475+308784719+308763464+308598146+308313833+308054954+307961392
2438+307930461+307684849+307200421+306824452+306816042+307031548+307181126
2428+307144332+306963292+306756013+306651603+306643321+306564437+306313015
2418+306001565+305826077+305872602+306066175+306254837+306345100+306384442
2408+306516007+306807393+307079465+307003513+306480404+305821423+305440452
2398+305472299+305736639+305956690+306004680+306001143+306127560+306331797
2388+306311513+305778399+304682394+303206133+301538938+299615776+297159483
2378+294072244+290704100+287597933+284993399+282715672+280557873+278567757
2368+276851142+275348806+273999548+272933081+272400517+272669823+274031138
2358+276741272+280805374+285937811+291958221+298806852+305764179+311351048
2348+314392807+314950438+314290193+313566768+312539606+310467069+307506484
2338+304339390+301233901+298032852+294698040+291566457+289119527+287585436
2328+286778417+286257434+285640726+284917264+284482182+284731405+285628229
2318+286742447+287645245+288217389+288642338+289162478+289871135+290731568
2308+291692342+292699916+293661900+294477696+295079213+295429272+295531537
2298+295450820+295298732+295230623+295428062+295950970+296581035+296969556
2288+297014963+296967724+297098648+297395329+297660054+297762301+297679367
2278+297415302+297034422+296687039+296482948+296413317+296433455+296499879
2268+296538561+296522509+296543215+296691803+296942693+297208792+297399305
2258+297418527+297246228+297022365+296943848+297080342+297344315+297608948
2248+297805179+297927270+298004450+298075749+298167130+298291530+298466028
2238+298692658+298942686+299209500+299522068+299874124+300254234+300749217
2228+301441711+302208271+302828680+303308582+303897932+304770055+305848359
2218+306978189+308100763+309202173+310275548+311422108+312826961+314544565
2208+316431592+318325032+320190363+322086552+324048743+326044137+328039421
2198+330008611+331845724+333470903+335068633+336939937+339066750+341102053
2188+342810496+344285053+345734945+347223209+348624250+349768135+350582153
2178+351105959+351449458+351734833+351985724+352072909+351838437+351285606
2168+350602749+349932793+349166050+348093775+346672833+344973406+343068899
2158+341097656+339141145+337044420+334647734+332020130+329291159+326542619
2148+323815590+321063934+318579147+317448162+318704738+322067202+326354616
2138+330870455+335545786+340238963+344781189+349289772+353897011+358513632
2128+363048821+367599952+372354515+377394600+382633022+388000627+393601458
2118+399519402+405635903+411800083+417994057+424249160+430663387+437631910
2108+445933420+456571918+470528827+488383367+509926277+534185954+559651231
2098+584117565+604985865+620866632+632430301+641020301+647466632+652220425
2088+655143958+655264603+651492235+643236461+630543970+614108686+594678406
2078+572768946+549330653+525670715+502701513+481144676+461765813+444769746
2068+429813527+416703215+405347852+395483831+387024626+380065411+374403341
2058+369665197+365675875+362314291+359456137+357096575+355144682+353446831
2048+352178307+351670004+351990378+353165670+355428848+359114031+364874426
2038+373818371+386849853+404154896+425530547+450586908+478365168+507237509
2028+535341640+561042745+583257114+601491726+615740718+626616803+635061972
2018+641459121+645571286+647414079+647447135+645881912+642308175+636094924
2008+627022200+615466447+602045400+587143529+570841533+553350099+535314814
1998+517461227+500242342+483993119+468842337+454372946+440093829+426270500
1988+413626458+402502525+392814852+384426267+377192744+370898905+365319916
1978+360271549+355652986+351471300+347762333+344578234+342070029+340295767
1968+338850858+337034085+334611453+332107462+330142632+328808399+327820744
1958+326961942+326155106+325324999+324422879+323532523+322846442+322504225
1948+322506498+322872351+323649906+324433434+324284461+322824490+320892240
1938+319475036+318739297+318379124+318184231+318071246+317979041+317873532
1928+317878260+318414599+319754292+321341834+322346310+322877372+323466960
1918+323660827+322626042+320834849+319630606+319619758+320330211+320892496
1908+320785008+320166542+319558630+319256653+319193326+319260391+319550567
1898+320225105+321129277+321780433+322123456+322844463+324217689+325240343
1888+324881122+323575621+322406486+321766067+321506602+321502131+321666715
1878+321903313+322168422+322526324+323427931+325744468+329733900+333707830
1868+334791503+332271570+328506862+325862840+324851511+324803539+325010305
1858+325159351+325237008+325316533+325453596+325796655+326606862+328126605
1848+330673034+334385153+337994108+338776390+336023965+332529094+330771250
1838+330770041+331276952+331684071+332841808+335843768+339926725+342495069
1828+342469599+341466734+340518255+338992099+336868731+335318093+334988631
1818+335422356+336005568+336801446+338281903+340334027+341882869+341997870
1808+341104838+340494911+341195945+343512262+346777499+349410123+350156747
1798+349615241+349825672+352370305+356716172+359636737+358148584+353922628
1788+350924846+350697410+352156978+353935125+355689010+357209194+358029552
1778+358627203+360643816+365326586+371825652+376641343+376726256+373303067
1768+369228759+366102674+365128761+366930875+370009392+371815244+372169554
1758+372597526+373281775+374102317+376581131+382002755+388588163+392349720
1748+391867106+389527517+387901605+387976366+389590478+391666753+392892948
1738+393953240+397490182+404106192+409188934+408000963+403279823+399104990
1728+396443048+395503254+396388699+398505983+401850856+407996968+418056578
1718+429325343+435166180+432861223+427059525+422564062+421375174+423996217
1708+429939155+437276757+443601967+449196678+456806719+466716954+474350743
1698+476684871+475485685+471609055+466541045+464103423+466073786+471257860
1688+478739818+489728814+503556064+512323989+510231516+504187980+501536446
1678+504163829+510846464+518316731+523940320+528921073+534965194+539715066
1668+540089386+538839809+540634300+545762669+550553697+552494449+553640935
1658+557491729+566256466+580445612+595072076+598342846+592526856+590519918
1648+594181170+596452851+591587979+583968336+579785771+580474821+585544480
1638+594205431+603117418+605303124+599236134+592461440+590172352+592012506
1628+595402638+598792257+602409128+605582526+606403471+605846829+607680827
1618+613106115+617918984+617297366+613555856+611598832+612733921+615350860
1608+617467558+618599752+619471454+620528227+621465162+621978523+622412432
1598+623423689+625089180+626565716+626955574+626394058+625805056+625832909
1588+626451302+627305193+628101181+628835235+629954382+632441442+637376347
1578+644473248+650177975+650166614+647000107+646800450+650924635+655537628
1568+656706543+655543492+655238803+657847826+665530210+680539421+699477487
1558+707583591+700717791+691977681+687835099+688435974+692617037+698828822
1548+706254232+715636850+727830272+742365923+757723874+769368387+769131936
1538+759345608+751990268+751274025+753544131+753729275+751834295+751766131
1528+755159708+760390800+765829172+771756938+777638527+781021916+781845976
1518+782307884+782057507+779848970+777469288+778177688+783714496+793926157
1508+805549635+809438469+800373294+788486466+782487311+783107683+788099686
1498+793627918+795437435+793054162+790704751+792060056+796952304+801516262
1488+801612426+797644140+793243117+790835070+790446458+791274403+793449664
1478+797691122+803817591+810490038+815479182+815894767+811407989+806282809
1468+804534567+806468026+809221661+809827154+809332264+811526215+818288815
1458+826572514+828726299+822805204+815670410+811564109+810649309+811865939
1448+813318434+812992049+810745252+808361319+807703567+809901036+815226680
1438+822047916+825917766+823824083+819328657+817100476+817365439+817468346
1428+816129312+814860569+815099219+816613942+819009015+822367264+825113643
1418+823916875+818655292+813080957+809730624+808423987+807895161+807553897
1408+807865989+809023983+809973232+809886670+809838955+811245787+813870715
1398+816660557+819121304+820448610+819274491+816175928+813825565+813572915
1388+813901279+812624620+810287303+809645162+812188952+817208880+823384751
1378+830053532+836919845+842965030+846400532+846847707+846627088+848075845
1368+850938763+853544268+855325273+856518009+856488764+854573629+851725809
1358+849378964+847878607+846891758+846209304+845689347+845108847+844481512
1348+844085424+843994097+844028326+844287719+845201786+846787019+848229179
1338+848668658+848199201+847550903+847197693+847285574+848025564+849586610
1328+851673550+853648347+855270521+857113241+859792921+862805948+864828241
1318+865425525+865603926+866249659+867172741+868101101+869427454+871401666
1308+873537787+875320697+876806835+878268345+879733960+880960852+881604605
1298+881518850+880953669+880176811+878956955+876810793+873772919+870565805
1288+867973787+866255009+864954896+863224611+860692109+857861147+855271401
1278+852864526+850653717+849243514+849129833+849929046+850687433+850807711
1268+850499577+850374608+850840401+851977799+853572267+854981517+855503161
1258+855148997+854541965+854073461+853809964+853981035+854801211+855973424
1248+856912485+857394255+857681867+858170967+859053077+860200150+861444559
1238+862989553+865187535+867914271+870627153+873048833+875421039+878056302
1228+880774461+882794703+883406279+882873129+882328690+882739658+884346879
1218+886853215+889691580+892366569+894829807+897272816+899574438+901435042
1208+902933346+904456864+906334326+908941663+912553734+916483906+919209103
1198+920259572+920956025+922426184+924304452+926132293+928491598+931776698
1188+935070520+937254723+938242965+938696443+939598563+941851151+945565762
1178+949856841+953404118+955293967+955932443+957027110+959759782+963296798
1168+966018256+967362934+967584066+967152796+966825385+967348641+968924639
1158+971477664+974990126+978744829+981057006+981173033+980772400+981789374
1148+983552934+983982006+983055845+982861172+984669223+987781639+990733025
1138+992601251+993273297+993221404+993291327+994261172+996277235+998713648
1128+1000681336+1002001313+1003506874+1005794570+1008316884+1010445236
1120+1012775956+1016069705+1019282462+1020349423+1018953293+1016859023
1111+1015707699+1016132299+1018252955+1021312158+1023676961+1024663004
1103+1025275900+1026363384+1027680576+1029099575+1030775254+1031715927
1094+1030612318+1028251913+1026805502+1027553921+1030893773+1036909273
1085+1044339814+1050081848+1051320247+1048471622+1044976824+1043629874
1077+1044271942+1045195464+1045384053+1044755545+1043755429+1043689024
1068+1045629739+1048346726+1049192262+1047720784+1046745808+1049343544
1060+1055859212+1063450563+1068200031+1068683561+1067267787+1066831753
1051+1067472574+1067592706+1066795691+1066438450+1067921069+1071041474
1043+1073741823+1073449448+1069458293+1063971986+1059987722+1058763982
1034+1059615014+1060799248+1060523584+1058402855+1056036440+1055244630
1025+1055820732+1055886624+1054780157+1053917910+1054301904+1055233855
1017+1055719877+1055637933+1055503436+1056038272+1057359568+1057999950
1008+1056113400+1052230356+1048830623+1047225966+1046773001+1046567407
1000+1046700438+1048037420+1050650621+1052575944+1051595985+1048149489
991+1044377414+1041106900+1037756348+1034093044+1030543274+1027748154
983+1026393142+1026344767+1026067197+1024306056+1022209441+1021904752
974+1023379748+1024196992+1022048264+1016830291+1010302530+1004139120+998817654
964+994210452+990573827+988276603+986702144+984463483+980900447+976502210
954+972224104+969191287+968038937+967927308+967180868+965296443+963340702
944+962193629+961333654+959901828+958482463+958485102+959477448+958847401
934+955491571+952178472+952349324+955895355+959514975+960723543+960134761
924+959644708+959906593+960113799+959658195+959004400+958717668+958538241
914+957940737+957142183+956503414+955272491+952523034+949299722+948005326
904+949403948+951630223+952575514+952060760+950926734+949463611+947669559
894+946093708+945436688+945636931+945887235+945423788+944014245+941765322
884+939185470+937340259+937121032+938426936+940262180+941454916+941382866
874+940375055+939330595+938792094+938591484+938125472+936734326+934299306
864+931445989+929009357+927882807+928995724+932261034+935633502+936744367
854+935759350+934906045+935487498+937045685+938729939+939880824+939670539
844+937959971+936277475+936243466+937347368+937645754+936429857+934821902
834+933840550+933504271+934145825+936887147+941482475+944981744+944531710
824+941009646+937970306+937912769+940685827+944423966+947447474+949679099
814+952069702+954632622+955872927+954451509+950496416+945210279+940553749
804+939383661+943358031+950361773+955658758+956569600+954679311+952551839
794+950627029+948178229+945551029+944234937+944939306+946691432+948155948
784+948841480+948745609+947989201+947352044+947906597+949273043+949495494
774+947402911+944244832+942535510+943616690+946443181+948797869+950054005
764+951772929+954995361+958169565+958780922+956760534+954792699+954938924
754+956336594+956891073+956023036+954357911+952095942+949520415+947807575
744+947868776+949281252+950879165+951779892+951577450+950472742+949315188
734+948666890+948265817+947899194+948544633+951721769+956834196+960593957
724+960487532+957842814+955414244+953697080+952210209+951767212+952650275
714+952973068+951151604+948067627+945396303+943737848+942876920+942620533
704+943118135+944040264+944057709+942457450+940323968+938679366+936920276
694+934265663+930753201+926520172+922032808+918781717+917874980+917870655
684+915471257+909102254+900954810+894740387+892247683+893023075+895970137
674+899259781+899888949+895164914+885686939+877587651+878346405+884868889
664+888707222+887979326+886174207+886877696+890298612+893521411+893367051
654+889645257+885432897+883317372+882326711+879636331+874464387+869360462
644+867000424+867221629+868201662+868035794+865115266+860089914+856661814
634+857217247+859328155+859505603+857963321+857282333+858526743+859820113
624+858011623+852200983+845342806+841147377+840372645+841257247+841332742
614+839874163+839460411+842609401+848418941+854166912+858316312+860580406
604+860333328+857061861+853083387+851778509
##END=
