##TITLE=<SNM>
##JCAMP-DX=4.24
##DATA TYPE=INFRARED SPECTRUM
##DATE=2/5/2025
##SAMPLING PROCEDURE=Instrument type and / or accessory
##ORIGIN=Admin
##XUNITS=1/CM
##YUNITS=ABSORBANCE
##RESOLUTION=4
##FIRSTX=4497.3318
##LASTX=599.83466
##DELTAX=-1.4281778
##MAXY=1.7322439
##MINY=0.18780114
##XFACTOR=1
##YFACTOR=1.6132778e-09
##NPOINTS=2730
##FIRSTY=0.20324087
##XYDATA=(X++(Y..Y))
4497+125980080+126789305+128244176+129542238+130245751+130314841+129815170
4487+128837636+127805707+127552957+128514670+129964461+130676536+130278033
4477+129427668+128868430+128879902+129472779+130481607+131379800+131492957
4467+130643580+129383499+128488133+128373027+128878914+129343754+129139062
4457+128442061+128113470+128591315+129343366+129543670+128882442+127788324
4447+127157687+127536664+128335314+128338620+127202180+125903739+125586472
4437+126417478+127581591+128094101+127690065+127021688+126875076+127284607
4427+127583955+127212580+126298843+125444192+125010101+124785135+124465715
4417+124250217+124609316+125555853+126534450+126979773+126641760+125549378
4407+124138353+123225844+123270457+123771947+123873051+123403223+122900975
4397+122814234+123046839+123147518+122796075+122206643+121989307+122511607
4387+123516805+124389597+124592414+123890748+122475391+120882192+119614713
4377+118927428+118921037+119411462+119713867+119222121+118277321+117847276
4367+118436745+119824327+121491150+122762583+122995244+122142024+120801954
4357+119589645+118807528+118576263+118856602+119411185+119942805+120199166
4347+120041452+119588693+119181471+119102471+119363829+119719603+119849118
4337+119620864+119204036+118823147+118468805+117985519+117351678+116745934
4327+116409667+116474878+116835963+117235205+117542256+117822789+118063726
4317+118095028+117928003+117815003+117845059+117905623+118116596+118776466
4307+119720656+120210527+119732045+118689873+118084332+118508476+119589894
4297+120454262+120624630+120316424+119977027+119828087+119816338+119759200
4287+119552440+119379476+119521673+119836021+119750213+118956551+117813165
4277+116940346+116689563+117059544+117903730+119124518+120610388+121961117
4267+122612267+122461305+121996382+121608298+121257779+120969219+120993308
4257+121259987+121392448+121432295+121789196+122395162+122729092+122694390
4247+122678697+122870227+123275703+124081511+125270193+126225209+126284730
4237+125422662+124137078+123040521+122645667+123075020+123848851+124287838
4227+124225952+124097823+124281908+124641284+124804162+124613907+124160262
4217+123589220+123118847+123088884+123692854+124630274+125234854+125072734
4207+124412171+124012680+124316997+124931460+125155660+124915435+124738435
4197+124941418+125344659+125673518+125825533+125887224+126074533+126425125
4187+126632468+126485135+126203226+126029994+125908247+125848394+126172690
4177+127101538+128343617+129308295+129713152+129871328+130231379+130721564
4167+130864316+130502140+130006459+129727857+129631649+129598120+129738248
4157+130179590+130746235+131077736+130995946+130667272+130437771+130487971
4147+130663023+130693143+130474006+130040607+129441163+128778346+128223838
4137+127883673+127748034+127767976+127880680+128034506+128290738+128775815
4127+129404863+129787303+129566281+128833959+128121709+127939360+128337466
4117+128933234+129348917+129546423+129724762+130030124+130434593+130760081
4107+130764459+130380568+129960092+130076814+130910628+131920001+132303531
4097+131786588+130849001+130193537+130099398+130276916+130300552+130200825
4087+130488590+131477402+132798787+133760046+133976570+133567233+133006961
4077+132843039+133259544+133870229+134123967+133874451+133433968+133165091
4067+133120728+133052414+132766043+132386087+132119400+131934354+131778709
4057+131909637+132538759+133299511+133558828+133182169+132606629+132301453
4047+132494100+133150035+133829395+133850888+132999341+131853433+131157152
4037+131067474+131223212+131383042+131713323+132423135+133324366+133934165
4027+133990961+133732808+133599755+133724079+133832239+133670211+133371076
4017+133263553+133392754+133432203+133107233+132571465+132273808+132488955
4007+133025693+133431621+133540484+133710474+134304339+135039931+135252104
3997+134795254+134225450+134065010+134351464+134890631+135466938+135862540
3987+136077226+136340588+136611358+136456443+135740941+135019952+134930302
3977+135534937+136445894+137262583+137755281+137846538+137574909+137128016
3967+136896002+137259166+138184366+139231294+139979642+140223164+139927621
3957+139363738+139033041+139124012+139395595+139753142+140295791+140698256
3947+140432326+139700651+139239210+139246147+139244512+138922470+138489099
3937+138307803+138664012+139689512+141127434+142264216+142516375+142127339
3927+141904867+142294891+142944693+143263142+143238084+143313907+143611611
3917+143669995+143058238+142026097+141245256+141088003+141444331+142181539
3907+143535058+145830180+148811294+151439044+152664433+152223183+150515636
3897+148328526+146731291+146628424+147986163+149398971+149445764+148820475
3887+149101775+150240672+151090336+151710775+152820531+153614590+152948938
3878+151796971+151785037+152950526+154466525+155983577+157039687+156788471
3868+155713592+155349173+156011989+156537273+155995807+154773411+153931423
3858+154575000+157596985+162613701+166083864+164506848+160262550+156884550
3848+155559046+156156634+157940918+159939935+161638301+163171775+164442876
3838+164727602+163880830+162811309+162060763+161325421+160479850+160087387
3828+160602105+161915435+163999779+166899528+169504851+170018165+169063324
3818+168750500+168881031+167878863+166106309+165296077+166281010+168635653
3808+170972561+172193895+173221076+175374620+177494230+177327214+175874079
3798+175686466+176713443+177340792+177371365+178045062+180018567+182831289
3788+185901452+189170128+192737053+196706563+201603943+207951687+215138702
3778+221893649+228225543+235517486+245039748+256959511+269778010+281019494
3768+289822763+297401779+304633444+311535031+318359899+325390262+332358962
3758+339212611+346917762+356852880+369895256+385550179+401356433+415183327
3748+427971955+441706927+456014972+467710101+476267122+484983197+495864289
3738+508372199+520773742+531512812+539564851+544557478+547236269+548847313
3728+549849924+549715883+548266369+546376529+544358116+541547722+538407360
3718+536769974+537662966+540466377+543627577+545167092+543961608+541132039
3708+538664174+537913499+539378013+542403657+545600768+548293229+550634775
3698+552483272+553866024+555740827+559170145+564198019+569389307+572450529
3688+573028037+573597047+575669328+578178684+579916933+581615354+584781800
3678+588785929+589948222+586033540+581000642+578954667+578698222+576521864
3668+571476588+565980937+562573380+562031378+562888495+563011267+561902583
3658+560460199+559519325+559882544+562416395+567063464+571845755+573394175
3648+570700235+566561881+563602888+562491581+562866549+564021638+565331827
3638+566817992+568987294+571755496+574624376+578188548+583317323+587982236
3628+588313238+585076077+582717315+583928156+588724007+595191272+600586022
3618+603851041+606570842+609855073+612841294+614753117+616158222+617864144
3608+620178275+623094372+626378677+629844831+633256895+635836264+636939259
3598+637321431+638553443+641526807+646104749+651275901+655167454+655957366
3588+653853792+651473859+650782002+651161589+651377503+651840514+653993818
3578+657660812+660591688+661218667+660238038+659072087+658420797+658337742
3568+658347791+657762119+656542374+655052625+653308834+651546865+650757913
3558+651574870+653283267+654623013+654703261+653165260+650915748+649994825
3548+651603540+654958781+658227420+659860890+658920016+655429995+650936438
3538+647686420+646742959+647275281+647937211+648597294+650128718+652742299
3528+655293441+656496191+656323504+655692239+655228268+654899520+654202491
3518+652471483+649816596+647293237+645338778+643237125+640674899+638359327
3508+636463243+634297894+632354149+632413485+634660263+636881844+637532838
3498+637347885+637146601+636420607+634953395+634124394+635507294+638788126
3488+641692917+642144179+640257258+637662298+635614808+634321835+633400468
3478+632856176+633372315+634875808+635542763+633732837+630329197+627806947
3468+627738818+629789190+632094269+632405209+630112913+627132529+625642485
3458+625845024+626614025+627279501+627937441+628555035+628821344+628565676
3448+627547436+625325042+621904628+618242695+615896199+616008774+618168618
3438+620160393+619814797+617279284+614664594+614009869+615979180+619370998
3428+621619476+620966340+618071006+614749423+612028956+610115507+609115482
3418+608948078+609144559+609209990+608997401+608608098+608240852+608242921
3408+608744984+609337862+609773089+610335412+611070754+611373418+610902611
3398+610208871+609853189+609538517+608621066+607124298+605679550+604469559
3388+603016978+601502254+601153665+602385824+603817900+604162941+603856915
3378+603787345+603669117+602691038+600855361+598878808+597371805+596682794
3368+597134093+598690123+600480023+601407597+601363668+601166375+601261992
3358+601196412+600565296+599830951+599633842+599698831+599201571+598153441
3348+597670516+598695591+600854548+602927494+604314791+605323831+605914935
3338+605246318+603057102+600494026+598832292+598285561+598452484+598905520
3328+598928131+597827316+596207073+595780159+597104942+598568053+598396178
3318+596809889+595293170+594526903+594053067+593372110+592526446+591927214
3308+592215580+594023879+597070028+599656712+600182790+599132001+598158281
3298+597449836+595918892+593871919+593109052+594032377+594967451+594960579
3288+595099054+596196507+597276410+597337408+596930888+597204660+598614309
3278+600791813+602861471+604092300+604590004+604910771+605225443+605324939
3268+604960612+603823553+601770447+599221891+596817057+594803299+593040886
3258+591347896+589997250+590040773+592492492+596738841+600474371+601800226
3248+600782540+598677081+596661660+595631819+596011406+597182308+597708829
3238+596725356+594892819+593373920+592461790+592118818+592847399+594759037
3228+596478259+596378615+594615907+592651805+591293807+590337008+589543069
3218+588920820+588411700+588056461+587874685+587358102+586095278+584663572
3208+583839337+583246423+581872353+579772805+578151159+577958114+579235015
3198+581314131+583081568+583557991+582597091+580853632+579107403+577583516
3188+575854540+573646149+571533448+570283444+569857306+569720567+569710518
3178+569820359+569575036+568498679+567008894+565928843+565120901+563620807
3168+561334866+559435568+558719031+558731925+558721137+558328213+557284628
3158+555567808+553845445+552899213+552764212+552953524+553201730+553388493
3148+553080250+551945519+550462088+549408047+548715045+547586668+545723910
3138+543738305+542449655+542245305+542799573+543246513+543045303+542511060
3128+542002605+541131263+539487153+537571118+536354107+536238613+536802044
3118+537343418+537448973+537124326+536524799+535698125+534659195+533559489
3108+532597296+531762901+530856461+529825215+528999946+528827259+529279740
3098+529606124+528865572+526815090+524198183+522116814+521159535+521170102
3088+521634110+521968400+521657423+520708532+519882523+519914223+520661979
3078+521372198+521400868+520533332+519152945+518086305+517805587+517876302
3068+517439338+516052670+514050956+512287546+511396697+511269565+511376377
3058+511271302+510644360+509513545+508470772+508102233+508223491+508198478
3048+507782832+507157922+506320239+505025567+503550079+502848432+503378316
3038+504346531+504744553+504542235+504193758+503669712+502603146+500894564
3028+498884538+497159257+496089292+495512375+495080399+494675652+494233516
3018+493585811+492732240+491902020+491211235+490517014+489617704+488516113
3008+487571766+487226761+487348832+487143928+486048766+484418621+483021016
2998+482191129+481804486+481701110+481711677+481561379+481158886+480763708
2988+480501316+479977343+478834077+477396534+476260952+475536140+474948768
2978+474364794+473774910+473131342+472561482+472310506+472186847+471590312
2968+470345850+468982827+468003972+467394653+466984956+466743512+466514149
2958+465921420+464825334+463647523+462931688+462649493+462226531+461314142
2948+460259695+459582617+459228302+458697606+457817951+456963753+456452859
2938+456084579+455410493+454294974+453100611+452323667+452064341+451978182
2928+451836974+451837158+452020116+451757170+450427288+448407396+446719025
2918+445848274+445494957+445280668+445117883+444928127+444510486+443799787
2908+442998865+442400556+442170935+442236552+442228941+441634364+440275812
2898+438632662+437425959+436887688+436588350+435930595+434729655+433346423
2888+432248563+431511854+430930578+430493836+430410042+430682927+430934864
2878+430715107+429929592+428938766+428154064+427570608+426905057+426135244
2868+425568710+425351170+425183692+424633266+423608302+422428274+421455700
2858+420791036+420350525+420045681+419715012+419086777+418110619+417202516
2848+416833496+416926786+416955936+416569219+415805909+414798051+413614328
2838+412411024+411501111+411123483+411132461+411033334+410451245+409482070
2828+408473066+407623154+406902885+406159748+405252531+404275339+403546684
2818+403166063+402818694+402266310+401730145+401487149+401361680+400933952
2808+400088436+399089408+398214520+397524696+396926905+396293978+395530852
2798+394614325+393605580+392650851+391936088+391502227+391097555+390400341
2788+389399096+388356767+387467765+386807018+386459538+386351174+386113499
2778+385444697+384433883+383319546+382221095+381278448+380672307+380308016
2768+379820731+379055463+378253543+377641380+377085227+376296867+375256016
2758+374284255+373695442+373441620+373166407+372599467+371794739+370947450
2748+370126244+369319928+368624968+368164248+367846067+367427502+366825758
2738+366149345+365428707+364601738+363799523+363310022+363155919+362990695
2728+362507179+361717341+360796159+359888277+359117319+358590169+358285916
2718+357989496+357414168+356434796+355208474+354048324+353173472+352566740
2708+352051192+351481295+350859932+350309284+349968455+349864045+349792553
2698+349394051+348498029+347402350+346644249+346412854+346321301+345874694
2688+345023821+344108144+343415696+342974964+342628814+342172342+341538787
2678+340882510+340347565+339838371+339189040+338454954+337836842+337395297
2668+337024910+336667307+336361724+336074097+335656493+335034761+334309542
2658+333652785+333188591+332918957+332708511+332423064+332062616+331662081
2648+331170141+330538877+329797586+328981184+328147934+327452087+326993473
2638+326641560+326209399+325724257+325320803+324981821+324621816+324319226
2628+324208313+324221909+324142364+323828764+323270173+322530730+321744623
2618+321083876+320657441+320429150+320227867+319866717+319297190+318652440
2608+318130647+317802490+317535701+317195758+316878722+316747304+316713683
2598+316566489+316310894+316074327+315809422+315384133+314831454+314280695
2588+313774309+313333023+313072994+313062723+313106542+312869125+312266605
2578+311563147+311022364+310657372+310397454+310267145+310240580+310108091
2568+309705007+309169175+308775660+308575965+308372446+308032115+307682770
2558+307562288+307753134+308128083+308508390+308753529+308691828+308159395
2548+307223342+306239832+305578955+305331526+305293212+305186604+304896760
2538+304507974+304156412+303922265+303832910+303833409+303761345+303491877
2528+303107044+302812915+302709983+302728899+302739170+302639230+302397011
2518+302085886+301850723+301783406+301858223+301985872+302072807+302047314
2508+301895834+301671200+301419338+301109173+300671452+300125109+299641075
2498+299417569+299462680+299563968+299532453+299402864+299298805+299178951
2488+298861785+298279419+297569071+296911261+296385959+295993755+295731972
2478+295617697+295636023+295689798+295655807+295483434+295201072+294886955
2468+294668639+294637050+294713898+294692396+294432663+293986777+293563465
2458+293346405+293296860+293220067+293067775+292998759+293075459+293098477
2448+292851934+292386171+291947027+291674622+291470956+291192473+290891601
2438+290760589+290856428+291006245+291012600+290850701+290621117+290413940
2428+290280213+290236136+290233587+290198728+290114288+290011023+289919581
2418+289862498+289833274+289804955+289819308+289966059+290198433+290325343
2408+290258415+290111886+290015512+289979526+289976016+290046122+290267430
2398+290612324+290880332+290868417+290610753+290343632+290237245+290252965
2388+290227860+290000622+289479495+288630118+287364227+285486634+282882770
2378+279752495+276505857+273412159+270520409+267934224+265859412+264246447
2368+262761391+261305171+260084779+259022093+257804953+256709624+256598397
2358+257976882+260704092+264747310+270680553+278737266+287414141+294047720
2348+296890460+296381119+294812730+294237845+294427232+293864669+291966627
2338+289358847+286759841+284211599+281427178+278644660+276609603+275609208
2328+275065561+274254997+273042788+271880643+271339213+271646459+272548632
2318+273549839+274288636+274744572+275125119+275611886+276296778+277265861
2308+278525379+279855723+280911796+281494310+281677175+281702557+281772331
2298+281903435+281983700+281973374+281988429+282138358+282363028+282542735
2288+282712374+282989526+283297825+283366268+283058450+282552747+282135956
2278+281913225+281784597+281642280+281485092+281360970+281315656+281372221
2268+281447573+281372756+281119582+280891051+280889000+281110512+281397935
2258+281576053+281568646+281465048+281431778+281534600+281692564+281788328
2248+281788495+281773827+281857326+282068049+282326507+282529305+282641289
2238+282708642+282791014+282917500+283147989+283610021+284369674+285296878
2228+286153349+286798782+287272729+287720408+288272200+288967511+289780976
2218+290704689+291746981+292873271+294059672+295390164+296955671+298649972
2208+300232696+301646982+303132002+304924027+306942292+308908168+310728382
2198+312571005+314547965+316525330+318313273+319915412+321517551+323243276
2188+324966636+326461520+327698076+328796785+329767216+330532891+331110916
2178+331584900+332027665+332499875+332965436+333245747+333166350+332675481
2168+331829226+330780099+329722807+328739038+327691130+326308747+324473514
2158+322388745+320307375+318206461+315938291+313495328+310964432+308453045
2148+306032194+303656713+301576138+300816337+302432738+306227030+310964063
2138+315783523+320663907+325702200+330712635+335478782+339994284+344456030
2128+349063825+353836178+358729161+363831925+369258117+374965951+380821237
2118+386732460+392681442+398677679+404714445+410918320+417867919+426549892
2108+437842233+452318051+470577577+493112639+519439796+547791720+575903678
2098+601720385+623678346+641298257+655204548+666033804+673992480+679237524
2088+681758222+681215186+676951583+667899075+653529329+634854305+613181791
2078+588990427+562951821+536394895+510497092+486198472+464296115+444954580
2068+427896068+413072141+400485203+389839127+380833282+373242369+366733872
2058+361142641+356539539+352752543+349444519+346633054+344518765+343097515
2048+342360806+342463775+343577410+345955791+350091190+356684147+366653108
2038+380997175+400290274+424372906+452498275+483377770+515128828+545704439
2028+573523154+597714187+618117484+635093274+649202400+661014797+670738472
2018+678004478+682597199+684972920+685396620+683288538+677991473+669577471
2008+658569543+645365084+630239195+613611772+595928868+577350311+557871816
1998+537789212+517878888+498967039+481268654+464384823+448089584+432783989
1988+419001468+406877097+396206193+386714320+378215341+370653209+363994267
1978+358090618+352724907+347757256+343180237+339076575+335523967+332478594
1968+329743090+327103573+324535177+322225516+320336969+318805434+317451574
1958+316208701+315097762+314064153+313017575+311981675+311047561+310221959
1948+309486174+308983612+308900981+309052905+308843678+307923733+306653076
1938+305627299+305056387+304782578+304639060+304593911+304628807+304667287
1928+304695292+304837203+305150470+305451841+305604910+305817813+306241458
1918+306492619+306122213+305393614+304982956+305168500+305691179+306125465
1908+306235953+306114455+306007514+306005112+306004447+305953313+305974188
1898+306234512+306740787+307299396+307804655+308443180+309280993+309859202
1888+309726196+309141114+308683294+308564382+308661496+308820069+308950656
1878+309066907+309258862+309595221+310220777+311429771+313233822+314845900
1868+315173835+314171186+312883756+312113130+311892228+311942364+312046294
1858+312075518+312044705+312151184+312581350+313322345+314203403+315114832
1848+316238960+317824362+319417634+319836458+318803291+317559457+317112924
1838+317343691+317690580+318017555+318772922+320326957+322187720+323270099
1828+323336676+323174704+323096562+322690670+321958838+321487329+321573894
1818+321984626+322446381+323007448+323893420+325116269+326297035+327001158
1808+327230853+327398626+327936379+329043328+330556463+331923661+332599557
1798+332713166+333081373+334404051+336472711+338030625+337991056+336955193
1788+336316022+336628735+337569942+338736226+340010799+341239005+342177109
1778+342992329+344377815+346908710+350207830+352708983+353179347+352280332
1768+351199432+350489619+350675053+352126784+354166737+355554846+356179128
1758+356783938+357526707+358403147+360086531+363049809+366373461+368371739
1748+368696238+368502972+368770906+369739971+371251813+372813903+373881318
1738+374912785+377258580+381174111+384361247+384526212+383005835+381802642
1728+381301724+381455938+382344090+383869418+386111947+389695849+394965167
1718+400632729+403951615+403961738+402610649+401835257+402432014+404628619
1708+408286081+412620030+416606424+420449874+425445494+431595833+436558866
1698+438980179+439942298+439880376+439193359+439513240+441788910+445497728
1688+450066101+455900956+462838768+468072138+469447538+469279432+470307574
1678+473406444+478143883+483092101+487173448+491191469+496164588+501021216
1668+503988817+505979409+509267630+514262104+519250150+522745344+525477412
1658+529156266+534874260+542606935+549705501+551470315+549865331+550357345
1648+553260770+555380379+554571329+552767943+552272789+553474282+556245661
1638+560471948+565003560+567322494+566798004+566061480+567059658+569639507
1628+572737602+575834700+579197625+582554825+584979536+586798181+589622984
1618+593983165+597999375+599440207+599189305+599458791+600990215+603264703
1608+605620066+607885133+610113808+612149734+613757710+614995153+616193949
1598+617610877+619236070+620852175+622150616+622891685+623128363+623254793
1588+623711450+624604885+625660441+626559566+627388715+628790014+631411428
1578+634925316+637542814+637812595+637429906+638876427+642195018+645510135
1568+647557034+649205652+651590018+655127552+660573880+669059336+679612603
1558+687160510+690505406+694667111+701934818+711390114+721719487+732104057
1548+741692138+749881507+756879284+763417966+769957904+774912550+774766908
1538+770598700+767549744+767304347+768136895+768003297+767215232+767561715
1528+769606397+772416458+775224673+778169662+780762110+781678600+781177534
1518+780711715+780522698+780432475+781132977+783380790+787322516+792807933
1508+798759908+801574847+798680252+793954303+791573705+792274429+794922444
1498+797466566+798233423+797632898+797559153+799087104+801594132+803330239
1488+803179129+801847954+800575819+799932805+799993028+800803186+802573727
1478+805424946+809071250+812912927+816086688+817453922+816913767+816141072
1468+816448761+817401532+817591806+816628394+816218290+818262159+822755347
1458+827012890+827177153+823797749+820835691+819589197+819371583+819481018
1448+819500008+819352075+819402470+820019769+821184907+822742489+824614115
1438+826291625+826502884+824826187+823006581+822734066+823893219+825193433
1428+825734031+825710312+825518339+825156634+824627637+824061768+823238678
1418+821762156+819984522+818663840+817844001+816907043+815479438+813924738
1408+812756939+811882199+810828490+809722540+809327879+809978504+811347586
1398+813133200+815082339+816375386+816272232+815543355+815628036+816533959
1388+816768495+815509660+814420853+815949100+820378739+825719326+830127168
1378+833709481+837549457+841678871+844878051+846523935+847544170+848952785
1368+850747192+852674237+854835744+856859736+857616544+856684980+854999268
1358+853566786+852822614+852858821+853301142+853402671+852755298+851653707
1348+850736330+850508002+851040546+852048810+853382350+855046707+856535273
1338+856939909+856170835+855185699+854768280+854986706+855886792+857815537
1328+860765920+864036924+866896272+869132262+870795436+872048802+873324854
1318+875100419+877511830+880247777+882671676+884260515+885285774+886740055
1308+889097967+891518763+892850455+893065335+893169745+893915100+895045361
1298+895901998+896294885+896340772+895854263+894572300+892722030+890722644
1288+888536753+885907359+882969685+880044425+877173919+874380927+871966929
1278+870141487+868703389+867385071+866346880+866204859+867468644+869733082
1268+871625620+872089517+871583205+871518327+872720264+874704428+876319425
1258+876924901+876795219+876471939+876158561+875835207+875412024+874590338
1248+873204852+871853874+871530520+872482848+873903654+874829307+875101601
1238+875444019+876646400+878675195+880826135+882831506+885194813+887980268
1228+890025393+890144508+888768111+887795906+888886191+892056553+895792267
1218+898402006+899326550+899346206+899753280+901244950+903514413+905979248
1208+908538519+911201534+913709153+916126845+918915330+921887068+924081309
1198+925197161+926332816+928822036+932680634+936514182+939043156+940307310
1188+941177987+942490319+944772345+947795956+950474932+952060224+952963782
1178+954048452+956022714+959316772+963308081+966250853+967079485+966618765
1168+966498837+967701587+970337631+973802233+976958186+979028066+980503258
1158+982525920+985433150+988369863+990067841+989919613+988904402+989176771
1148+991710326+994908472+996834113+997787918+998958746+1000109624+1000416130
1138+1000357016+1001135253+1002700815+1003948122+1004738182+1006036327
1130+1008188375+1010865356+1014186016+1017880350+1020336022+1020480113
1121+1019340911+1018467722+1018575605+1020046364+1022724453+1025166012
1113+1025789666+1024960295+1024720735+1026275879+1028564776+1029835433
1104+1030019130+1030537930+1032503104+1035884503+1039452111+1041235213
1095+1040129928+1037355409+1035729846+1037167500+1040886736+1044015422
1087+1044277150+1042428431+1041531892+1043869411+1048990980+1054281986
1078+1057170004+1057350154+1056712240+1056622312+1056481251+1055714098
1070+1055689566+1058394848+1063814870+1069324154+1071967440+1071134523
1061+1068698505+1066763776+1065693146+1064648452+1064024799+1065627825
1053+1069500314+1072901442+1073741823+1072874841+1071874262+1070816858
1044+1069317356+1068276431+1068843557+1070197786+1070326138+1068923730
1035+1067838543+1068277539+1069161516+1069118289+1068570745+1068573331
1027+1069156122+1069816722+1070374537+1070938560+1071505907+1071482261
1018+1069713716+1065901301+1062023935+1060662686+1062194849+1064972989
1010+1067388759+1068539267+1067728370+1064668699+1060399776+1056840960
1001+1055049804+1054681597+1055128869+1056255953+1057216113+1056285731
993+1053502936+1051306553+1050682825+1049042779+1044122049+1038044162
984+1034991363+1036437737+1040241284+1043058439+1042848658+1040234634
975+1037570436+1035971179+1033954871+1029975533+1025018744+1021064973
967+1018542501+1016446686+1013509012+1008967203+1003490506+999116803+997176753
957+996481349+994665587+991372932+988436071+986718586+984885975+982056480
947+979517161+978351283+977331122+974837469+971425848+969190670+969396166
937+971127913+972222484+971722452+970913550+971390305+972882197+973772603
927+973200378+971665038+969957380+968481745+967322592+966340263+965462937
917+964871870+964623517+964500633+964488737+964779800+965084754+964776401
907+964010947+963692470+964107451+964402800+963654415+961916831+959986904
897+958836840+959254407+961180343+963144630+963181724+960818565+957431255
887+954503335+952457544+951123339+950337639+950106873+950689073+951951158
877+952856712+952308429+950658777+949655611+950583258+953141937+955782341
867+956804054+955614605+953268811+951317677+949909284+947969603+945351441
857+943087076+941490627+940160708+939747944+941455454+944924342+948277440
847+949969211+950010073+949672828+950055517+951071467+951883029+951664898
837+949900934+947175258+945421713+945813491+946915008+946428573+944522366
827+943558141+944772862+946914343+947826326+946653133+944683969+944083000
817+945671765+948369584+951090088+954264957+958113948+960375062+958672798
807+954634568+952676266+954954597+959046916+960903542+959390665+956832577
797+955788253+956670309+958226044+959361625+959674117+959158199+958715213
787+959861065+962870267+966182946+968400094+969333800+968634481+966074398
777+963349387+962530066+962661594+960879009+957394900+955972837+958889451
767+964312725+968496154+968857045+965137661+959327930+954557424+953061838
757+955001814+958793391+962101193+963212464+962401493+961583354+962144198
747+963617765+964696670+964708493+963709096+962269373+961739193+963628553
737+967845382+972090585+974031966+973648537+972357338+970560048+967694271
727+964333932+961967300+960883812+959802025+957613917+954658657+952508973
717+953381719+958913614+967584763+973905905+973649424+968503469+962487799
707+957660322+955147308+955786997+957825250+957755643+954214858+948559931
697+942792540+938487410+936785294+938077454+941062419+942802663+941295033
687+937519195+933601631+929968184+925808327+920825749+915043284+908763374
677+903710893+902115774+903416505+902890168+895610787+883099810+876347726
667+884572637+898512328+905251480+903655696+898719892+895216792+895277014
657+897615345+898496736+895292753+889568515+885652651+886185121+889436395
647+891185655+889521741+886222363+883648241+881993564+879393283+874797238
637+870649055+870770830+874973841+877629541+873944443+866170868+860474857
627+859756695+860972672+859190973+854038590+849748312+849475205+852178714
617+854790004+855761101+855634966+854426305+850926456+845894296+843113644
607+845308771+850720222+854690545+853888736+848705392+842353954
##END=
