##TITLE=<SNM>
##JCAMP-DX=4.24
##DATA TYPE=INFRARED SPECTRUM
##DATE=2/5/2025
##SAMPLING PROCEDURE=Instrument type and / or accessory
##ORIGIN=Admin
##XUNITS=1/CM
##YUNITS=ABSORBANCE
##RESOLUTION=4
##FIRSTX=4497.3318
##LASTX=599.83466
##DELTAX=-1.4281778
##MAXY=1.7773005
##MINY=0.19758353
##XFACTOR=1
##YFACTOR=1.6552401e-09
##NPOINTS=2730
##FIRSTY=0.21985269
##XYDATA=(X++(Y..Y))
4497+132822236+132982857+133236780+132931309+131962343+130609010+129274285
4487+128410386+128239916+128559700+129081687+129725099+130248382+130026878
4477+128831861+127556696+127417842+128499132+129682103+129951627+129278453
4467+128344569+127947661+128583673+130100689+131768134+132966968+133651089
4457+133990939+133976760+133666708+133339965+133018714+132314383+131176540
4447+130338883+130525125+131490797+132212791+131961956+131046708+130453736
4437+130778706+131569694+131845402+131147048+129859073+128662543+127998399
4427+128005511+128604145+129474651+130170034+130389414+130017668+129043121
4417+127831710+127222967+127744360+128898947+129696966+129642601+128881590
4407+127818657+126963661+126753464+127102263+127349937+127024797+126467295
4397+126256963+126286644+126057892+125695257+125837882+126618275+127508542
4387+128012236+127876848+126904578+125196946+123391376+122170874+121640064
4377+121511906+121700587+122266380+122952508+123341269+123372606+123296509
4367+123278396+123281268+123142702+122751908+122258953+121912324+121687129
4357+121460718+121493865+122173160+123258654+123942621+123827696+123399307
4347+123226713+123141028+122677268+121971938+121648967+121974657+122544159
4337+122740997+122342748+121663038+121083958+120628588+120241025+120166350
4327+120608603+121245191+121471773+121049496+120306518+119703986+119395942
4317+119368502+119775492+120700545+121758185+122421537+122558905+122289255
4307+121677883+120921923+120463421+120665471+121569386+122886323+123994214
4297+124190944+123311867+121972064+121049073+121067753+121969048+123132674
4287+123710764+123331537+122445384+121807986+121789801+122231541+122754131
4277+123121673+123362316+123622198+124007943+124519235+124948497+124953935
4267+124475492+123912823+123639456+123533677+123252748+122854328+122822802
4257+123430051+124359181+125091168+125411501+125460258+125596797+126163653
4247+127009286+127474368+127250199+126816598+126712773+126897223+127043729
4237+126997285+126835341+126761044+126882865+127020043+126873934+126388677
4227+125844274+125622472+125850837+126269683+126602637+126938112+127456931
4217+127965981+128072993+127687087+127127874+126864500+127163848+127817198
4207+128361332+128712318+129187240+129787233+130067515+129873522+129596103
4197+129576037+129727043+129797748+129684894+129500659+129468152+129669410
4187+129943596+130153209+130384094+130724007+131076704+131384748+131772392
4177+132279535+132727135+132990410+133169297+133445429+133900420+134357121
4167+134422785+134009421+133614809+133601855+133610677+133279136+133005138
4157+133333096+134034079+134333814+133854417+133036395+132603613+132726072
4147+132947217+132918850+132730430+132475013+132064053+131595720+131446064
4137+131824084+132447808+132800991+132709013+132519476+132575669+132678126
4127+132341813+131474169+130473335+129723199+129317442+129270108+129676333
4117+130508894+131419894+131951612+131992997+131893439+132001945+132247117
4107+132396566+132579009+133199807+134360173+135604325+136251248+136009947
4097+135342022+134981304+135029962+134974291+134560495+134023132+133595895
4087+133478431+133968082+134959194+135749525+135873281+135682655+135782456
4077+136322124+136986196+137323634+137078579+136422906+135802918+135505668
4067+135508521+135677830+135872156+135893834+135578785+135021563+134630660
4057+134813724+135479642+136006004+135949622+135546566+135197596+134908429
4047+134635071+134570785+134660908+134510351+134090281+133770605+133549496
4037+133086259+132479676+132261071+132707221+133652313+134765885+135723580
4027+136291651+136386446+136066068+135617199+135496287+135880663+136431026
4017+136698758+136529296+135988512+135280706+134772313+134729317+135063901
4007+135544333+136064655+136597382+137132747+137682362+138093782+138019755
3997+137415584+136814961+136688702+136799738+136654160+136294414+136202968
3987+136672876+137543617+138336559+138589428+138282436+137892091+137881460
3977+138273191+138812390+139329957+139770950+139994462+139783022+139123595
3967+138416167+138321993+139272270+140962960+142417417+142842962+142372936
3957+141720630+141388216+141518742+142179033+143312888+144422544+144760188
3947+144246465+143825809+144254514+144925005+144656697+143395773+142181563
3937+141888894+142903593+145244554+148030604+149384379+148239478+145972157
3927+144908215+145760582+147252760+148070944+148536612+149717963+151541646
3917+152439259+151062519+148071493+145428375+144351803+144735504+146310873
3907+149557990+154855490+161004123+165539702+167023589+165657634+161920587
3897+156924911+153159110+152848923+155665329+158292108+157991176+156760203
3887+157914115+160934840+162810692+163158005+163582469+163121761+160320767
3878+157536391+157848307+161150646+165589468+169963058+172704024+171933615
3868+169290199+168363688+169359302+169292540+166763743+163809834+162934403
3858+165606752+172741942+183110548+189279400+184201425+173509308+164712920
3848+160358109+160682700+164686453+170416474+176242028+181535683+185298171
3838+185643378+182557043+178654387+175674371+173335399+171336791+170355689
3828+170627796+171597825+173814940+178687696+184805973+187544328+186210224
3818+184608964+183079489+179093453+173607218+170239774+170972931+175397043
3808+180881117+184431436+186700802+190244081+194012979+194491943+192202557
3798+190105786+188353501+186158262+184636709+185200657+187620831+190964148
3788+194951463+199516876+204053879+208444051+213888335+221051612+228346037
3778+234130810+239663641+247545779+259089200+273745369+288996022+301500271
3768+310303843+316677266+321191546+324570261+328865314+334908276+340747856
3758+344794587+349230078+358115427+373852156+394548137+412666833+422616556
3748+428950009+437893730+449809833+459806297+466261210+473922051+486124935
3738+502244231+518854158+531589374+538125488+539826117+540293666+542746105
3728+548157746+554646976+559243970+561229003+561366164+558894208+553409000
3718+547461031+544442232+546308325+552929675+560295957+561573760+555487262
3708+547703664+542743116+541237300+541747053+542706134+544014041+546708177
3698+550952924+555731515+560342769+565125393+570500376+575399708+577043441
3688+574213909+569466647+565782858+564237899+565005769+568431081+575080770
3678+584240081+591087392+590139833+585123939+583208008+584131224+582035497
3668+574623051+565442494+558108621+554180615+553295245+553874281+554598903
3658+554633400+553487861+552926650+556547638+565701368+576881650+581976117
3648+576595229+566778345+559451638+556299748+555792155+555922402+555926219
3638+556464456+558607571+562735288+568468819+575531395+582936423+586564001
3628+582923568+576887987+575044796+578451743+584830712+591438486+596065872
3618+597883280+598119756+598582840+600388113+603943527+608753879+613046375
3608+614809264+614099298+613141369+613870780+616055703+617868790+618496150
3598+619100248+620718451+622993974+625426427+628754008+633952724+639586653
3588+641313676+637395032+632200350+629920866+630453953+631898301+633253344
3578+634188443+634629706+635376690+637307385+640035117+642654676+644776366
3568+645614599+643950016+640072711+635617451+631879720+629218029+627410272
3558+626370672+626582625+628471260+631214765+633164472+633822369+634024815
3548+633956973+633008767+631705433+631433848+632035209+631847959+629959756
3538+626992127+623977758+621446422+620094187+621201413+624912785+628939170
3528+630305089+628411196+625080446+621931617+619438667+617985965+618248908
3518+620384857+623278810+624774436+623393753+620050472+617032789+615605654
3508+615709146+617018746+618700109+618769464+615856786+611585607+608917075
3498+608673433+609191612+608747253+607253356+605603825+604606429+604732823
3488+605881532+607233911+607810930+607188106+605806199+604448563+602969718
3478+600336727+596657367+593905400+593645374+595235345+596900972+597754221
3468+598451189+599880736+601218748+600607195+598225948+596331876+595835626
3458+595361775+593777998+591508993+589377653+587674143+586261916+585068448
3448+584592832+585573771+587731759+589236243+588108168+584312209+580020180
3438+577710052+578249405+580661945+583320826+585229303+586332675+586821794
3428+586368829+584221140+580279162+575894733+573102111+572814034+573970376
3418+574757151+574353411+573229837+572116886+571171597+569983710+568203644
3408+566336759+565522292+566108493+566910789+566650511+565801691+565767626
3398+566459768+566328116+564540848+561773361+559203099+557729368+557548275
3388+557743988+557208344+556312819+556506803+558183197+560045942+560646043
3378+559728876+558099079+556921815+556964342+557973765+558882325+558852941
3368+558046541+557049793+555924347+554551694+553506190+553475221+554131174
3358+554495051+554293325+554141796+554294549+554233909+553727217+553431182
3348+554022316+555137284+555613836+554892238+553732402+553119194+553019195
3338+552930971+552935869+553220597+553253798+552441204+551048170+549715092
3328+548696234+548181656+548628536+550095750+551525046+551439127+549633782
3318+547461427+546125792+545809735+546430830+547907046+549573250+550386384
3308+550046561+549210452+548390728+547368450+546068681+545289936+545755541
3298+546892078+547509932+547472410+547652602+548380718+548972933+548912148
3288+548641572+548817083+549420641+549997444+550354228+550624228+550778998
3278+550453614+549460396+548298436+547890950+548768866+550487679+551871603
3268+551984313+550859695+549157302+547533806+546686247+547167876+548455654
3258+549000804+547941472+545993601+544201220+542876712+542106573+542088424
3248+542552985+542802892+542654424+542681035+543209513+543595969+543063062
3238+541881657+540863844+539991221+538604057+536802817+535525158+535067835
3228+534483795+533036602+531602409+531678569+533358673+535179934+535846725
3218+535289547+534087652+532729296+531342419+529702287+527755712+526127859
3208+525615298+526161708+526902355+527331698+527777822+528414149+528505938
3198+527222805+524823841+522496896+521307353+521521647+522414686+522643816
3188+521366265+519089085+517135705+516335498+516357104+516206764+515312427
3178+513926091+512379584+510538950+508366559+506416491+505286472+504884604
3168+504551622+503848498+503013794+502505877+502297489+501910961+500971865
3158+499496585+497909315+496872597+496714946+497068849+497349581+497225455
3148+496468964+494979424+493077826+491260490+489767025+488726382+488364016
3138+488632072+488857673+488165927+486356801+484252288+482913953+482513562
3128+482316769+481749292+480918837+479992201+478817169+477463782+476480142
3118+476248600+476447229+476351839+475536472+474313656+473461055+473247806
3108+473025590+472210043+471134290+470368725+469837510+469211734+468564028
3098+468122334+467875271+467698284+467478913+466996059+466023366+464707537
3088+463667542+463506939+464155113+464829538+464812613+464093896+463054693
3078+461896802+460711832+459731613+459106125+458695975+458389137+458341784
3068+458596732+458718121+458188959+457028007+455619597+454063511+452230979
3058+450428947+449353303+449248335+449599825+449786679+449628381+449234543
3048+448730407+448211796+447734596+447311122+446954699+446659131+446325358
3038+445762743+444847953+443664711+442448809+441446012+440730788+440072819
3028+439100846+437751456+436357882+435079538+433661226+432078745+430899032
3018+430573181+430835259+431161507+431334677+431206915+430523775+429459005
3008+428702982+428526391+428355885+427688266+426779238+425993219+425121749
2998+423811501+422251310+421028962+420455220+420240566+419904596+419384977
2988+418938457+418607348+418215095+417697564+417060085+416274678+415486534
2978+414944553+414553704+413898832+412801761+411522662+410400133+409573423
2968+409058412+408866301+408959962+409138642+409061113+408510525+407632646
2958+406768558+406065649+405452260+404950645+404689719+404564838+404212267
2948+403432622+402383588+401273374+400127439+398956836+397936646+397219514
2938+396662912+395965981+395061995+394190200+393603711+393337996+393230147
2928+393071776+392754459+392283669+391672116+390927400+390176923+389639299
2918+389406748+389362276+389317120+389106680+388554867+387568059+386343118
2908+385282129+384619227+384299749+384207924+384255673+384251064+383945738
2898+383268288+382361133+381369498+380320897+379279569+378493190+378177925
2888+378155059+377903568+377066955+375850117+374874795+374596224+374830215
2878+374986389+374778433+374406561+374019565+373450828+372644932+371881239
2868+371281750+370502969+369305359+368108650+367489428+367340420+367036138
2858+366322066+365567232+365176959+365137348+365179660+365138753+364980994
2848+364543189+363557316+362126688+360835849+360117637+359839750+359703489
2838+359639824+359607200+359411271+358956865+358408078+357952051+357552020
2828+356994698+356156429+355195331+354357314+353621240+352811743+352019062
2818+351512334+351259582+350914178+350278679+349497017+348823420+348390908
2808+348120332+347758506+347113105+346297918+345629507+345243627+344927714
2798+344372625+343502704+342521152+341715976+341237912+340975509+340661001
2788+340164212+339582259+338984499+338253395+337310193+336368576+335777874
2778+335590840+335407262+334774356+333660902+332375825+331162875+330095404
2768+329212987+328545728+328093807+327841271+327673790+327359894+326800196
2758+326183134+325733193+325430532+325090457+324586537+323911932+323153136
2748+322454873+321887757+321332163+320607937+319700313+318757364+317917151
2738+317234587+316714284+316336398+316057539+315794417+315431979+314907535
2728+314265878+313571936+312854659+312209186+311792734+311568610+311210170
2718+310467038+309516599+308702565+308028356+307233766+306313647+305579230
2708+305192774+304980677+304736568+304444241+304174637+303919905+303562509
2698+303006880+302359282+301884512+301706300+301630410+301345339+300757608
2688+300055581+299454274+298968989+298489125+297960017+297362472+296627191
2678+295756513+294979730+294590052+294579771+294581157+294265317+293691629
2668+293158938+292844645+292718737+292691640+292706134+292714272+292606837
2658+292213054+291483372+290626216+289890790+289306515+288821645+288522621
2648+288468228+288462557+288222228+287677798+286993218+286384133+285969193
2638+285700057+285403139+284954135+284418383+283967020+283669976+283454062
2628+283258547+283113843+283016635+282835326+282432918+281843007+281261829
2618+280859601+280631840+280460830+280292449+280164039+280057972+279850430
2608+279446096+278871796+278235847+277689130+277389458+277367996+277443850
2598+277380059+277124841+276827761+276643716+276588513+276556662+276406286
2588+276048170+275528874+275033399+274739470+274635060+274524457+274261622
2578+273931755+273728553+273688528+273646415+273449460+273116641+272758434
2568+272420034+272064852+271679747+271333874+271147758+271248801+271677262
2558+272222665+272470681+272208351+271675408+271235478+270967836+270754406
2548+270550574+270379240+270222129+270033835+269758703+269348931+268870489
2538+268496024+268290913+268140068+267965404+267852207+267882239+267992051
2528+268058345+268021489+267904277+267794268+267792971+267914072+268057336
2518+268122676+268110901+268084145+268045435+267890269+267542974+267143717
2508+266948725+266977334+266935077+266598909+266111878+265774953+265689593
2498+265729473+265762296+265750845+265656482+265405638+265010810+264581179
2488+264165267+263746583+263405931+263271147+263298983+263309281+263214702
2478+263055863+262864202+262616473+262289470+261900745+261501596+261122324
2468+260760715+260462285+260307426+260251358+260112415+259794180+259400936
2458+259100652+258977300+258994765+259028272+258977012+258854525+258693436
2448+258460562+258204497+258121513+258282908+258467944+258444249+258233017
2438+257962512+257669501+257380056+257195614+257159136+257164556+257102835
2428+257012127+256992934+257040016+257068914+257065961+257088611+257140465
2418+257164574+257143040+257112756+257112090+257158506+257223720+257221811
2408+257107913+256972462+256928206+256946517+256945077+256978980+257164898
2398+257464048+257733094+257969714+258337931+258981117+259998048+261633067
2388+264347170+268604719+274640246+282525445+292417787+304570995+319045045
2378+335537401+353559484+372641907+392286225+411821218+430334328+446780952
2368+460402473+470995617+478458765+482399807+482715720+480123276+475196361
2358+467098903+454489362+437502917+418115600+399795069+386646823+381454733
2348+384867802+395813984+411314814+426537109+437091075+441529986+441447668
2338+439730223+438235138+437045486+435518388+433127238+429550110+424793701
2328+419268017+413358111+407016376+400071912+392758672+385479606+378215700
2318+370697313+362988075+355475414+348423317+341718605+334995888+328053980
2308+321148046+314709806+308852581+303372018+298116461+293134955+288561061
2298+284506913+280983115+277840425+274872850+272027672+269440810+267228970
2288+265327137+263610952+262107963+260948686+260145148+259548180+258980505
2278+258335266+257632375+257014701+256573565+256204970+255759729+255239227
2268+254730176+254291812+253989565+253873308+253864072+253798318+253614111
2258+253404300+253268562+253180086+253053332+252892729+252751157+252574421
2248+252263766+251871171+251561145+251415720+251404233+251468492+251547768
2238+251601314+251644868+251701151+251745533+251782641+251930839+252326927
2228+252950794+253611932+254117004+254404163+254529584+254615089+254824305
2218+255292845+256011850+256824336+257591990+258340577+259196077+260208327
2208+261300338+262388010+263489240+264670825+265902140+267049282+268068103
2198+269092416+270235705+271426581+272545329+273601025+274670386+275752620
2188+276766959+277665904+278490525+279274582+279946198+280426081+280785584
2178+281175640+281607702+281917097+281977936+281877991+281777812+281640147
2168+281274217+280638106+279889429+279135873+278319389+277352152+276259870
2158+275155490+274076766+272918803+271592873+270181637+268904230+267997344
2148+267529813+267304536+267225927+267733159+269416647+272278534+275837963
2138+279777925+284023033+288439997+292921670+297577090+302561980+307879204
2128+313452276+319251813+325295964+331597259+338128009+344807478+351520292
2118+358186366+364859498+371737452+379061423+387136123+396594602+408487371
2108+423830658+443124494+466418428+493366551+522675180+551952048+578857104
2098+602119638+621329319+636757877+649212613+659088409+666138885+670258319
2088+671205446+667888235+659098419+644632471+625461068+603063631+578378608
2078+551789393+524180348+496928556+471018807+447084334+425746553+407301537
2068+391592643+378274035+366827570+356721601+347848927+340358196+334153838
2058+329009893+324800759+321333064+318458376+316381662+315394925+315518835
2048+316722566+319195314+323336894+329773370+339268687+352467167+369875464
2038+391912229+418527515+448798646+481111597+513647412+544755768+573176615
2028+598014391+618780339+635722095+649631045+661155219+670580462+677848725
2018+682537328+684278684+683123998+679295666+673013779+664478192+653647420
2008+640385635+624908896+607644133+588810608+568560319+547335861+525781482
1998+504524471+484264784+465632121+448578591+432395090+416729588+402049743
1988+388842549+377093170+366659297+357484826+349389384+342090045+335440031
1978+329444710+324112398+319370897+315099826+311269514+308002573+305344483
1968+302980016+300387788+297397672+294397940+291839975+289779826+288062849
1958+286665512+285576166+284574089+283431016+282221649+281245841+280696316
1948+280542212+280751752+281351674+281977738+281737787+280177686+278027639
1938+276362318+275567855+275401454+275490092+275560887+275483808+275266310
1928+275099027+275402894+276425425+277710376+278609447+279274672+280109034
1918+280519598+279617754+277932556+276924321+277234166+278294687+279133766
1908+279224384+278785607+278414545+278462744+278822679+279228309+279619068
1898+280156873+280870260+281515734+282123685+283212509+284760385+285606900
1888+284927470+283557194+282698165+282469378+282417614+282403588+282517072
1878+282751153+283015302+283318756+284124076+286315012+290085782+293685327
1868+294349507+291594966+287867677+285450474+284725995+284888525+285143239
1858+285220570+285222047+285280886+285429786+285767071+286534239+288004244
1848+290525190+294213643+297762305+298452719+295626914+292147354+290521319
1838+290663215+291181881+291542662+292771546+295877235+299860211+302192737
1828+302122950+301309150+300529270+299024876+296903025+295452681+295239702
1818+295656406+296119202+296874289+298459471+300658797+302328601+302580237
1808+301868434+301436498+302225614+304469628+307540209+310037803+310863901
1798+310548888+310938117+313525628+317898606+321066412+320053172+316207556
1788+313322497+313105827+314671419+316605390+318412428+319883747+320627526
1778+321113477+322980254+327572927+334184014+339370666+339914376+336800116
1768+332911072+330041786+329450831+331624807+334919980+336772677+337120422
1758+337624990+338516913+339564326+342087848+347285087+353569171+357358216
1748+357368262+355669002+354527100+354909918+356765713+359058520+360444784
1738+361603179+365217866+371922254+377038868+375703629+370674627+366155846
1728+363203665+362053660+362767084+364684851+367763713+373536459+383005382
1718+393364679+398193935+395256195+389273512+384676230+383085575+384916235
1708+389925756+396485673+402217764+407227213+414166852+423293862+429973368
1698+431271444+429197287+424733961+419230675+416292755+417657665+422162763
1688+428770357+438432687+450479649+457767790+455151435+448870125+445521082
1678+446872669+451947871+457897317+462432410+466743452+472345548+476832568
1668+477197562+476225445+478689227+485108598+491650583+494982521+496772022
1658+501040968+510481478+525572266+541178100+545537790+540713575+539301744
1648+543200835+545755937+541641796+534938525+531280879+531999128+536868679
1638+545479059+554960692+558625072+554323609+548926264+547800530+550999809
1628+556111633+561491154+567225081+572603413+575728116+577489637+581515842
1618+588999803+595932997+597673596+596319920+596251142+598364765+601243378
1608+603635356+605410021+606954188+608378082+609481274+610346010+611655538
1598+614135308+617743548+621556252+624589130+626741212+628636041+630679445
1588+632797102+634923401+637095576+639113630+640859234+643155355+647519511
1578+654314031+660756808+662947709+662661504+665072135+671387727+678139755
1568+681976802+684525926+689072939+696924847+709169358+728445694+754404559
1558+774349738+779607870+781001516+786219317+794895558+804293433+812047035
1548+817523313+822332260+828292293+835741973+843856031+848370059+841596785
1538+826769732+815508284+811246612+810262612+807833976+804016447+802397308
1528+804256415+807710751+811180858+815192191+819223834+820629363+819205325
1518+817157167+814477399+810520225+807096498+806661141+810229483+817776389
1508+827008620+830025078+821705620+811021120+805981062+806903630+810882986
1498+813895411+812942811+809324776+807519395+810026461+815073576+817774085
1488+815083730+809502808+805090471+803484440+804079752+805527989+807228293
1478+809740112+813835779+819430241+824616858+825757932+821785778+816942117
1468+815472203+817691262+820381185+820215756+818554918+819755481+825853358
1458+833709875+835579281+829291273+821789307+817933319+818210954+820892018
1448+822914537+822294810+820362099+819714862+821228204+824300477+828330391
1438+832233551+833405233+830684631+827119530+825442559+824816567+822961709
1428+819742301+817302862+816909420+817935120+819662143+822068526+823884421
1418+822315552+817293716+811950457+808224753+805911060+804253174+803082140
1408+802809115+803539103+804405351+804459078+804177914+804813197+806588113
1398+808611137+810021923+810164017+808584201+806210300+805015859+805720136
1388+806802155+806277926+804711578+804819102+808029292+813223111+818435870
1378+822906471+827064363+830917397+833605951+835010184+836386618+838585800
1368+841125418+843447465+845711681+847721525+848356375+847015591+844666105
1358+842645314+841410759+840766546+840738890+841665275+843233496+844196466
1348+843634140+842011256+840655852+840723982+842595405+845519246+847854185
1338+848446976+847800458+847341479+847978058+849726039+852241746+855201021
1328+858111106+860279609+861572068+862920341+865371232+868820382+872332981
1318+875469999+878523043+881601437+884278036+886101637+887125392+887990848
1308+889347477+891195205+893225214+895451692+897681122+899165585+899827586
1298+900640685+901998681+902952073+902446930+900326824+897184909+894045586
1288+891678310+889839513+887876050+885814928+884008683+882293759+880336201
1278+878327294+876839663+876261419+876538406+877302027+878184192+879081048
1268+880072178+881258121+882821445+884783827+886469944+886930004+886245676
1258+885572223+885691487+886378408+887226363+888190774+889169661+889762524
1248+889637499+888844566+887615628+885895662+883371816+880279018+877734935
1238+876683741+876988238+878010265+879487958+881418580+883639296+885847841
1228+887629816+888450980+888046231+886833282+885740748+885521089+886113160
1218+886780996+887143541+887879939+889956688+893207353+896178007+897692789
1208+898155874+898926408+900967364+904279534+907968220+910765235+912141380
1198+912973060+914527957+916921880+919110331+920286335+920874949+922057723
1188+924390789+927208906+929647120+931780693+934270762+937171052+939580315
1178+940776484+941381663+942619675+944772117+947419548+950525526+954018103
1168+957054367+958800620+959634603+960449286+961155796+961304012+961759102
1158+964125009+968388554+972344000+973928641+973339451+972333341+972293658
1148+973351262+974862804+976506861+978679036+981544326+984275443+985951549
1138+986845813+987990128+989646069+990915770+991382815+992554282+995806171
1128+999353987+1000001153+998104956+997713099+1001262212+1006706153+1010411764
1118+1011158028+1010302583+1009330970+1008536309+1007911757+1008323635
1110+1010748094+1014477760+1017137002+1017203404+1015951635+1015314985
1101+1015076168+1014413086+1014563751+1017520145+1022957604+1028580586
1093+1032552524+1034517140+1035088109+1034640149+1033143731+1031351746
1084+1030734684+1031818791+1033951428+1036606709+1039445279+1041565168
1075+1041956593+1040839213+1039916862+1040642889+1042614130+1044736828
1067+1047653251+1052255790+1056686348+1057744384+1054540460+1049555786
1058+1046716927+1048653167+1054322241+1059263560+1060229483+1058562668
1050+1057230238+1057467470+1059907269+1065204291+1071309802+1073741823
1041+1070824176+1065671336+1062213544+1061526119+1061497672+1059487684
1033+1055807568+1053169716+1053166619+1054766096+1055096881+1051864149
1024+1045950642+1040716132+1038603157+1039534727+1042162425+1045107439
1015+1047100934+1047994550+1049342536+1052436271+1055930073+1056697007
1007+1053470541+1048786187+1045899364+1044808487+1043440120+1041609100
998+1040921531+1041347958+1041357969+1040826034+1040844039+1041546731
990+1042245967+1043119778+1044732651+1046175342+1045762671+1043322224
981+1039986792+1036339157+1032399915+1028689551+1025990483+1024428671
973+1023366962+1021649373+1018452075+1014657664+1011993813+1010574456
964+1008522193+1004344639+998951759+994428657+991468590+989209200+987054453
954+985211046+983500515+981244293+978555595+976351228+975049766+974052802
944+972438561+969664592+965788584+961931228+959909861+960336144+961876421
934+962981342+963324658+963171617+962710189+962539935+963328403+964154825
924+963084978+960152783+957598977+956952747+957651335+958435193+958602350
914+957853349+956300828+954807147+954171001+954141185+954171721+954450292
904+955029903+954817950+952943143+950310548+948466853+947921379+948377189
894+949633206+951341289+952303323+951432537+949655388+949054099+949833204
884+949914154+947773955+944185304+940904031+939123208+939133939+940297052
874+941448785+941989722+942406066+943235801+944007704+943807130+942424791
864+940420925+938537547+937620309+938277125+939708438+940267884+939892447
854+940123485+941401972+941837761+939587805+935791954+933702889+935211334
844+938915217+941542482+941051238+937959160+934358841+932568945+933786504
834+937065112+940067454+941553357+942241574+942738435+942343121+940645913
824+938748348+937857685+938074895+939103115+940858154+943018374+944896711
814+946221938+947584904+949887146+953271839+956575582+958088996+957042483
804+954172081+950974638+948438549+946443182+944621813+943398780+943683905
794+945850175+949376889+953207958+956379257+958516287+959742056+960322532
784+960673842+961307252+962295718+962944900+962188337+959351855+954486517
774+948591807+943889808+942557811+944344322+946693233+947964230+948650718
764+948912581+947912160+946121976+945224615+945478555+945675528+945690940
754+947006877+950476985+954774379+957544746+957875603+956764201+955228965
744+953433667+951864365+951874160+954323465+958258170+961451291+962875041
734+963780324+965074872+965336878+963207915+959779290+956681523+954321593
724+953417102+955028967+957893032+959123194+958771092+959805073+962535182
714+963680650+961863242+959432661+957743304+955492771+951997817+947952203
704+943745770+940244478+939079781+939862919+939590110+936925683+934330610
694+933750350+933557122+931480012+927914839+924565004+922048360+919997394
684+917618883+914234838+911272323+911637677+914875162+915582536+910234885
674+902974111+899877352+901233188+902784124+901046154+897077024+894057181
664+892880961+894473885+899064614+903037560+902301667+898293070+895795008
654+896343003+896875874+894443853+890494024+888653282+889908291+891875571
644+891904523+889829574+888193727+888905494+889281939+885161713+877367420
634+871474726+871735364+876079282+878081060+873882909+866938228+863292609
624+863812301+865089420+864617117+861833930+856618362+850684832+846679477
614+843956354+840235979+836796480+836903933+840051754+842917403+846271272
604+853620773+863949210+872160350+875108102
##END=
