##TITLE=<SNM>
##JCAMP-DX=4.24
##DATA TYPE=INFRARED SPECTRUM
##DATE=3/5/2025
##SAMPLING PROCEDURE=Instrument type and / or accessory
##ORIGIN=Admin
##XUNITS=1/CM
##YUNITS=ABSORBANCE
##RESOLUTION=4
##FIRSTX=4497.3318
##LASTX=599.83466
##DELTAX=-1.4281778
##MAXY=1.7103738
##MINY=0.17796931
##XFACTOR=1
##YFACTOR=1.5929097e-09
##NPOINTS=2730
##FIRSTY=0.20113923
##XYDATA=(X++(Y..Y))
4497+126271582+125827057+125325459+124996773+124789127+124505802+124140548
4487+123888103+123856643+124055795+124571546+125400942+126160046+126250506
4477+125390801+123987954+122991297+123188419+124453621+125791789+126266699
4467+125766064+124855292+124226929+124355575+125222080+126181758+126498479
4457+126147735+125717205+125535144+125390109+125114903+124925125+125095053
4447+125567174+125861603+125320772+123728596+121741203+120361463+119969100
4437+120170843+120526470+121002820+121661389+122193886+121954930+120637922
4427+118891702+117845409+117957525+118670623+119167385+119118553+118694103
4417+118236154+118020155+118130765+118458843+118777575+118828147+118483389
4407+117913670+117464038+117287945+117220096+117093424+116997941+117009672
4397+116866779+116346790+115843302+116016934+116924067+117984158+118675965
4387+118804479+118318232+117368395+116408951+115840842+115578780+115168942
4377+114363494+113422095+112775173+112591774+112803209+113211718+113452171
4367+113307398+113054943+113023773+113035532+112776697+112408956+112332444
4357+112606872+112971677+113271148+113590648+113982488+114248600+114161714
4347+113824768+113551433+113441132+113365734+113323600+113447886+113630181
4337+113512144+112999367+112481763+112328468+112387636+112254996+111902493
4327+111725924+111976386+112426776+112712852+112813583+113018703+113515006
4317+114151312+114560410+114452654+113899063+113339999+113254824+113804861
4307+114718729+115555936+116141118+116558327+116738479+116535679+116195768
4297+116052211+115865791+115282863+114744941+115051026+116186731+117345944
4287+117953774+118127257+118199072+118215340+118052877+117802977+117738775
4277+117948133+118264864+118510396+118583840+118456055+118255135+118210532
4267+118398626+118677050+118909252+119056812+119060433+118903096+118772168
4257+118880645+119174232+119451861+119696317+120075537+120649232+121172252
4247+121299438+121103018+121207079+122090367+123404868+124290475+124190970
4237+123149915+121628667+120316158+119825412+120220769+120923071+121306155
4227+121319345+121303367+121353929+121312347+121318175+121781616+122704361
4217+123544992+123936925+124085842+124287117+124446671+124292655+123818410
4207+123370892+123385653+123987187+124813187+125376722+125556800+125536042
4197+125409155+125126064+124704458+124289016+124049882+123986804+123826165
4187+123391435+123033861+123290367+124132887+124942338+125236224+125115886
4177+124969251+124996520+125217571+125787823+126868962+128104472+128768243
4167+128677072+128394318+128319583+128214511+127902364+127792812+128273062
4157+129016582+129347176+129043822+128452148+128014508+127927800+128086352
4147+128224661+128201724+128125371+128143753+128236027+128257870+128107045
4137+127888650+127938792+128492140+129296595+129836145+129998271+130164167
4127+130529458+130776234+130622509+130261680+129999001+129862937+129806500
4117+129888008+130114606+130459934+131018427+131797887+132489853+132754357
4107+132564569+132116115+131684733+131590625+131934456+132393069+132576758
4097+132479918+132361189+132338139+132302974+132145011+131929966+131867336
4087+132089080+132499067+132932778+133342195+133650207+133645006+133291895
4077+132950992+132977185+133261324+133430532+133378239+133388520+133769573
4067+134483410+135167611+135491190+135452677+135334780+135387568+135528319
4057+135387727+134762507+133951091+133462693+133534499+134115341+135073391
4047+136189891+137130775+137583177+137374296+136583386+135687591+135350720
4037+135824376+136736728+137616985+138380579+139093696+139514610+139277703
4027+138503275+137814836+137627995+137751458+137827156+137852395+138068301
4017+138515511+138895770+138914516+138672586+138556700+138743728+139027147
4007+139201443+139395600+139894859+140738866+141558898+141816469+141288360
3997+140323780+139523525+139225354+139427929+140032008+140831029+141427773
3987+141537700+141278154+140938402+140644861+140437561+140491426+141056102
3977+142134678+143243049+143693299+143307699+142604161+142089009+141767619
3967+141598281+141911429+142905616+144064923+144607167+144407968+144026644
3957+143918017+144059553+144285394+144677916+145524665+146795180+147780593
3947+147841071+147406190+147267601+147208311+146520648+145523308+145212433
3937+145872434+147141528+148792329+150516940+151453586+150999791+149864937
3927+149354190+149850802+150504470+150511523+150319415+150853025+151913640
3917+152114429+150625632+148322275+146642811+146148079+146659705+148239271
3907+151357111+155909202+160494006+163380954+164146316+163098461+160116208
3897+155869164+152612837+152319175+154666582+156872388+156591916+155329726
3887+155875927+158005773+159425551+160032277+161289827+162099512+160550564
3878+158319866+158253822+160485100+163617496+166856947+168918569+168133094
3868+165838035+164926253+165332022+164652760+162216633+159960564+159858580
3858+163053035+170271817+180067028+185267314+179979655+170105304+162373716
3848+158662659+158923205+162285708+167120019+172010534+176468526+179714431
3838+180080574+177423601+173922930+171155554+169085382+167588969+167071992
3828+167482233+168423650+170680822+175469334+181047249+182955230+180997220
3818+179126602+177726824+174205254+169187441+166164682+167160937+171659116
3808+176923070+180190959+182287680+185449019+188350336+187837643+185061024
3798+182999964+181287627+178576753+175865429+174933797+175942063+178022731
3788+180658880+183514284+185929494+187909693+190661671+194738834+198581943
3778+200518062+201414371+203615303+208572124+215786977+222983346+228304906
3768+232611763+237459489+242590681+247707635+254128632+262784087+272313738
3758+280808873+288938053+299386033+314010093+331463308+346493510+355805346
3748+363240858+372931296+383491758+390478357+394547531+400860144+412178072
3738+427745533+444403936+458295637+467496264+472908583+476479302+479506589
3728+482554381+485820774+488948231+491076271+491778957+491742287+492323063
3718+494760481+500262118+509967636+523182582+535500600+542253782+545331060
3708+549687086+556906804+565863835+574334199+579715086+581474215+582335706
3698+585301402+591225047+599119126+607829680+617021514+625451952+628765941
3688+624077675+615621867+609337879+607715965+610177742+615014112+621521527
3678+629065291+633363355+630213447+625105343+625010187+627488055+625797589
3668+620231330+616517409+616425359+617498640+617570709+617539128+620143396
3658+626964567+636663387+646147087+654334902+662407543+670044180+673816661
3648+671886453+667640027+664926571+664441475+664337600+662852302+661020056
3638+661648392+665412266+670013721+673819654+678261331+684980836+691279978
3628+692565835+690326025+688496998+689341539+694246385+702197639+707815461
3618+706490913+701363351+698556947+699910906+702996304+705102454+705626765
3608+705759676+707243927+710832383+715699661+720087754+722303017+722222118
3598+721858408+722684314+723274407+722020057+720149196+718773758+715843797
3588+709716108+703748944+702136721+704635618+708966012+713686608+717042693
3578+716534622+712344473+708331615+707760755+710848248+716091435+721821588
3568+726496309+728738364+728212855+725964065+723334502+721106890+719141958
3558+717288534+716674418+718414913+721115646+721951132+720744677+720431333
3548+722969070+727082810+730194326+731134434+730493826+729587469+729410703
3538+729484942+728325336+725988986+724634353+725310734+726418029+726318046
3528+725509951+724955406+724257696+723097267+722561880+723745060+725906964
3518+727123297+726358084+724190418+722106344+721383265+721997830+722465190
3508+721570134+720069344+719377771+719417510+719321269+719697327+721699528
3498+724117676+724259717+721887520+719611339+719688796+722719562+727643866
3488+731469332+731945597+730691846+730733530+731923820+731454813+728506742
3478+726043767+727272223+731610775+735142952+735385650+733832399+732485549
3468+731434757+730943524+731982567+734178148+735517514+734080410+729705787
3458+724580919+721724599+721794497+722807347+723677033+725373822+727974648
3448+729171448+726955287+722469381+718618021+716994947+717351922+718880102
3438+720937309+722799863+723653983+723229654+722208498+721909971+722723529
3428+723473849+723333080+722869237+722881361+723611400+725110020+727430879
3418+730029908+731377132+730129966+727262270+725692106+726714535+728287244
3408+728188458+727144476+726759737+726584093+725707672+725444020+727570151
3398+731091927+733313925+733509251+733114184+732855621+732001875+730120088
3388+727983254+726677715+726533204+727081313+727878182+728775483+729595253
3378+730110284+729801579+727917846+724901822+722682293+722390502+723274781
3368+724664288+727096730+730691172+734258673+736248451+735640846+732805405
3358+729599593+727382234+725690384+724046954+723389956+724649246+727377520
3348+730114475+731125005+729434202+726089642+723598079+723460154+725029270
3338+726873564+728768598+731653058+735317922+738011621+738704317+737854912
3328+736300762+735064373+734836792+734893594+734202320+733425059+733416677
3318+733035605+731370172+729980516+730586474+732382573+733589177+734020391
3308+734397272+734871517+735137339+734790318+733446462+731252378+729163815
3298+728397255+729598770+732346427+735510778+738264946+740072495+739935542
3288+737419582+734305072+733267601+734851311+737109605+738170875+737828868
3278+736610889+734619913+732212842+730875796+731968722+734480416+735373077
3268+733323729+730557213+729610744+730339885+731239356+732025599+733278302
3258+734534075+734663768+733930361+733700461+734217737+734840235+736039131
3248+738633894+741160856+740671793+736777851+732517206+730652631+731126876
3238+732261711+732862506+732445661+730913065+729308775+729502903+731848608
3228+734106454+733860538+731192807+728508239+728070589+729597947+730705092
3218+729690595+727073680+724457587+723122038+723772226+725904345+727372655
3208+726432098+724315172+723886952+725832201+727831109+727758293+726191646
3198+724729472+723609978+722429642+721616009+721765984+722501711+722919229
3188+722606932+721952853+721724000+722450597+724151203+725970202+726018247
3178+723122787+719065549+716941214+717228140+717577856+716312280+714114454
3168+712479480+712391471+713946968+715786023+715791187+713611546+711387527
3158+711065501+712232442+713286377+713472423+712747099+710806863+707445090
3148+703325963+699908661+698655508+699889278+702355920+704480255+705734456
3138+706111637+705445135+704077855+702846853+701877035+700538118+698615769
3128+696718041+695750842+696096741+696779183+696074888+693578610+690721391
3118+688925891+688389906+688568917+688797021+688617861+688128274+687746379
3108+687475991+686879312+685935612+685313338+685432629+685810259+685879783
3098+685802177+685634466+684548126+682053345+679181907+677151417+675765577
3088+674329073+673249842+673544103+675204147+676965296+677650433+677189659
3078+676187960+675014135+673639371+671942432+669891586+667866335+666836497
3068+667476956+668994285+669770948+669327911+668607750+668230869+667603955
3058+666172091+664585163+663891869+664209628+664796953+665074225+665008069
3048+664687091+664130675+663441497+662661541+661636492+660375482+659166108
3038+657988167+656435664+654582914+653108766+652244693+651581783+651082467
3028+651143085+651462043+650985178+649313011+647326600+646197303+646278053
3018+646946202+647289780+646932806+646088265+644922897+643283957+641214552
3008+639481017+638990832+639637801+640247577+639754847+638161259+636255748
2998+634811160+634113825+633806393+633139591+631700916+629807005+628089486
2988+627033567+626950984+627934048+629448609+630113913+628623750+625291127
2978+622048907+620462166+620258982+620191778+619716074+619089946+618387784
2968+617580775+617188364+617653442+618375735+618233320+616857770+614825559
2958+612938383+611731368+611154072+610525026+609304427+607736133+606369602
2948+605399110+604650324+603809637+602719368+601704797+601288476+601465205
2938+601667266+601398861+600514058+599086197+597393187+595802218+594485640
2928+593308859+592089719+591056289+590791963+591315638+591540113+590446888
2918+588498532+586920735+586005435+585052418+583572694+581747858+579967326
2908+578543543+577790304+577787274+578025144+577794084+576944155+575799142
2898+574489636+572933242+571352825+570311387+570130056+570432250+570357936
2888+569388267+567910752+566690752+565940357+565336493+564755306+564358892
2878+564065791+563484154+562354071+560915733+559868084+559758335+560187303
2868+559873210+557981544+555245899+553205905+552525445+552615250+552647692
2858+552268117+551465036+550377012+549116001+547553657+545664798+543976502
2848+542980229+542376291+541619347+540734395+539918891+538965462+537782581
2838+536898676+536753866+536889920+536434572+535171578+533597896+532125619
2828+530837255+529841094+529232815+528804857+528245709+527474172+526503905
2818+525214381+523577312+522001123+521069172+520829618+520625461+519866310
2808+518694281+517596678+516758199+516145916+515774423+515480237+514801985
2798+513450159+511713706+510157761+509022589+508102575+507187799+506395046
2788+505823775+505084531+503651955+501666293+499941664+499097385+498960470
2778+498861086+498315521+497333355+496159080+494921942+493614121+492291444
2768+491138685+490249130+489434375+488448279+487310413+486140704+484862480
2758+483444835+482185994+481328656+480667804+479920328+479177828+478631739
2748+478149562+477444518+476451201+475289013+474014344+472686091+471544671
2738+470759439+470041261+468893704+467265354+465581511+464140666+462855856
2728+461628335+460624204+459987412+459506432+458822043+457777762+456386047
2718+454761962+453204296+451956307+450897357+449830212+448850740+448081673
2708+447373561+446534596+445569268+444621302+443876033+443369458+442802041
2698+441815272+440490387+439303914+438588132+438268688+438106328+437885445
2688+437252994+435783299+433576492+431458668+430183849+429708070+429481013
2678+429131373+428655631+428187373+427773822+427304404+426604299+425608924
2668+424445763+423355307+422494190+421809577+421139295+420347365+419329127
2658+418079417+416816759+415825537+415113010+414387012+413412142+412297101
2648+411382700+410869091+410641398+410443490+410103653+409620428+409113255
2638+408630104+408026989+407194011+406307374+405632004+405194093+404851187
2628+404479694+403929190+403064518+402013576+401136369+400575649+400037419
2618+399230222+398307177+397608906+397220313+397028729+396914415+396663821
2608+396039640+395131674+394302064+393680502+393093926+392507874+392059335
2598+391632350+390929589+390028247+389364776+389088364+388869988+388426052
2588+387867241+387428843+387136977+386871978+386583180+386273204+385869830
2578+385308212+384697539+384257756+384103367+384129710+384082637+383799078
2568+383387397+383010927+382602652+382079875+381624414+381400575+381272753
2558+381093293+380941335+380862606+380689881+380292943+379810654+379513624
2548+379494503+379577572+379557666+379409862+379208212+379012288+378896327
2538+378892398+378859432+378620289+378273567+378141180+378303353+378401876
2528+378113116+377634381+377404592+377503116+377624876+377502106+377105243
2518+376568396+376077425+375741779+375547164+375458744+375452682+375449053
2508+375385628+375310266+375253427+375115240+374805600+374372067+373900703
2498+373416879+372957901+372638083+372532301+372515799+372342101+371948419
2488+371566935+371418233+371438289+371432564+371318550+371061483+370599175
2478+370031046+369637139+369505388+369368810+368982125+368437532+367993597
2468+367846915+368116854+368734450+369312569+369437398+369084764+368519367
2458+367954569+367546443+367427639+367490203+367429135+367157625+366865422
2448+366641883+366381074+366033567+365685760+365442014+365354679+365361414
2438+365273031+364972372+364582992+364287908+364067475+363785263+363453957
2428+363230343+363163027+363107236+362919693+362618135+362330273+362171318
2418+362163311+362216483+362216221+362159195+362149878+362238036+362338243
2408+362348197+362282527+362238298+362261198+362302770+362318337+362348159
2398+362422024+362412557+362145387+361695128+361376620+361355515+361436041
2388+361288237+360725047+359744565+358409053+356652731+354239260+351092234
2378+347585950+344200678+340958832+337536404+333841941+330138161+326698146
2368+323676172+321216939+319402842+318203160+317754847+318558526+321093345
2358+325305533+330684886+336892540+344152707+352509580+360681829+366492545
2348+368472220+366927275+363915817+361559448+359903669+357531696+353818898
2338+349459056+345373343+341823392+338584876+335677890+333523395+332323489
2328+331715809+331200217+330633173+330269538+330481141+331410210+332842300
2318+334367936+335629658+336552665+337412735+338531180+339883905+341186562
2308+342308488+343380721+344509981+345528332+346095787+346106002+345918946
2298+345999022+346399963+346862047+347275936+347696110+348042907+348213873
2288+348383754+348799626+349354097+349695468+349699546+349549984+349399485
2278+349198959+348857213+348396402+347946367+347666213+347618953+347685259
2268+347683874+347559532+347347705+347042630+346641090+346229147+345934287
2258+345869441+346095936+346516410+346881991+347006708+346899054+346705974
2248+346648835+346898119+347382092+347860004+348220796+348511689+348718914
2238+348766323+348678913+348579005+348584693+348771225+349133364+349547364
2228+349834366+349890457+349777564+349700220+349851317+350239798+350681825
2218+350988696+351164040+351372724+351700849+352048768+352308567+352524286
2208+352815104+353248562+353818038+354449329+355013042+355406949+355655297
2198+355903383+356292650+356838589+357449562+358049422+358629150+359188672
2188+359687501+360080884+360407849+360808416+361385712+362069016+362713852
2178+363299568+363908183+364557136+365189325+365794049+366420776+367080655
2168+367740796+368462790+369469241+370956935+372857432+374904648+376979067
2158+379266585+382018919+385255040+388751371+392230526+395506797+398536853
2148+401374951+404079950+406728560+409472961+412397683+415341638+418062129
2138+420562785+423125518+426050652+429424736+433084025+436766626+440306287
2128+443704281+447112266+450717335+454454642+457837145+460227416+461273269
2118+461082583+460107414+458810219+457333152+455549140+453367853+450828170
2108+448030072+445190104+442672086+440810504+439668485+438915283+437950105
2098+436238161+433551160+429946427+425669804+421039761+416261241+411369229
2088+406421501+401647097+397311914+393497374+390100503+387044890+384378020
2078+382149361+380336274+378916159+377861887+377033848+376213218+375304616
2068+374444846+373838850+373481015+373138746+372658477+372137533+371729744
2058+371441283+371164571+370804491+370400706+370155351+370203509+370371706
2048+370373278+370222929+370262444+370785782+371779810+373050887+374541686
2038+376449929+379034702+382392246+386406601+390793759+395158766+399082306
2028+402195805+404219784+405002808+404570547+403172995+401227671+399049302
2018+396634186+393856706+390810074+387769092+384925531+382344126+380045381
2008+377975078+375996152+374030172+372155943+370523888+369184897+367993110
1998+366749013+365537769+364750179+364545312+364487051+364019766+363113148
1988+362100747+361178712+360376006+359718484+359190618+358719254+358278537
1978+357890392+357542398+357188978+356805249+356455122+356334671+356590990
1968+357001436+357060595+356584591+355962954+355608000+355480552+355340755
1958+355141987+354934463+354627517+354108257+353501251+353120590+353140834
1948+353478463+354098267+355101388+356160113+356355963+355276320+353732499
1938+352725374+352421534+352441291+352477999+352424378+352290007+352152418
1928+352166937+352626326+353679476+354891880+355673183+356148925+356689027
1918+356808767+355767329+354036601+352891999+352932486+353712891+354364127
1908+354346914+353802808+353228057+352877818+352651996+352463031+352467259
1898+352850951+353452794+353848272+354036376+354577114+355536081+355947949
1888+355127020+353784211+352934731+352686870+352628983+352545352+352434256
1878+352351336+352384003+352638600+353449538+355451739+358751434+361825195
1868+362281966+359748307+356415571+354254340+353495339+353388733+353334139
1858+353225026+353174960+353221808+353319583+353552290+354178642+355490131
1848+357811476+361193941+364393766+364979930+362366083+359014787+357148828
1838+356885999+357201289+357549620+358578859+361098599+364404805+366470318
1828+366601994+366070798+365450097+364061600+362019698+360518795+360180119
1818+360564072+361069225+361699468+362893799+364690721+366249098+366648094
1808+366110051+365793114+366637879+368796341+371618722+373895652+374760997
1798+374764776+375559849+378362811+382556327+385368905+384525637+381635228
1788+379915463+380469784+382374772+384612112+386935178+389034930+390355624
1778+391291578+393430021+398047304+404416606+409340087+410134374+408038477
1768+405642107+404215107+404611970+407309710+411017231+413494613+414612984
1758+415854050+417462457+419177132+422109750+427359072+433559579+437474326
1748+437867335+436629486+435959130+436798544+438993750+441547354+443405193
1738+445290161+449473724+456382118+461918443+461880612+458631507+455792773
1728+454252806+454251010+456007894+459092730+463382450+469971176+479585954
1718+489861210+495406515+494216824+490244752+487511651+487640259+490899280
1708+496742288+503484843+509127960+514096755+520922790+529879373+537016246
1698+539842781+540030586+538282870+535517289+534785192+537779999+543666376
1688+551570071+562243312+574938923+583260323+582894293+579632765+579345501
1678+583340137+590273976+597326357+602870989+608665091+616224346+622962784
1668+625522000+626120887+629208755+635413527+641458147+644662013+646689210
1658+651006058+659775585+673369806+688055083+694903158+694656195+696658470
1648+702615232+707293021+706294465+702948183+702141061+705083969+711266216
1638+719737889+727544183+729168380+723766688+717745791+715605515+717103162
1628+719548625+720796090+720744153+719372533+716299632+713365331+713403348
1618+715982920+716327547+710952123+703048989+696634522+692376047+689256823
1608+686352756+683620815+681553730+680202839+678996609+677648338+676676948
1598+676533933+676659810+676071064+674699817+673385447+672618064+672036802
1588+671063017+669554818+667898965+666638478+666171043+667043722+670105247
1578+675358761+680096345+680516857+678066155+677584277+680584360+684595423
1568+686857310+688136057+690726855+695901939+704938186+719702117+738344797
1558+749822242+749976856+748943201+752193167+759004647+767411511+776086817
1548+784678904+793875677+804353668+815755227+827165992+835882234+836208076
1538+829262188+823957636+824068545+826907204+828161180+827766637+829225892
1528+833978968+840262918+846223571+852131688+857977016+861765437+862814883
1518+862726649+862085592+861062265+861427771+865018920+871947221+881013852
1508+889378134+890983248+883530486+874847621+870829225+871874928+876675301
1498+882705702+886167907+885616056+884373979+885966295+890126059+893391816
1488+893227398+890935127+888926191+888029713+887875997+888239183+889722985
1478+893002212+897803783+903009400+906756885+906511119+902210885+897945001
1468+897241005+900162883+904197220+906839581+908464751+911374281+916781960
1458+922768132+924047777+918819110+912038238+907514914+905647944+905299202
1448+904949636+903680019+901683131+899730098+898666509+899386145+902313861
1438+906346477+908716878+908021114+906615143+906795876+907961618+908434067
1428+908381456+909420574+911684257+913700303+915196977+917432072+919843185
1418+919409802+915726677+911984580+910070388+909113666+907477869+904950085
1408+902762137+901697275+901216145+900766672+900780891+901634337+903022572
1398+904627535+905950961+905526483+902275469+897650441+894189882+892667464
1388+891719798+889548090+886335693+884331022+885129912+888110537+891668160
1378+895307954+899719621+904776013+908667485+910143280+910353797+910916500
1368+912112851+913921448+916783980+920269459+922514134+922335122+920929002
1358+920382164+921587421+923754040+925471784+926438310+927545979+929066900
1348+930033276+929955146+929903882+931199917+934036555+937714367+941141473
1338+942958900+942418873+940384642+938714120+938746600+940484550+942831078
1328+944699993+946134627+947847656+949596532+950173529+949314844+948288972
1318+948152843+948541848+948549931+947917105+946957240+945986823+945344418
1308+945582401+946972806+948957944+950599354+951410667+951411939+950798272
1298+949970645+949492957+949585157+949773972+949193982+947198516+943832777
1288+939775240+935762157+932176396+929159324+926860767+925309836+924073521
1278+922482777+920357019+918108079+916062323+914123210+912138970+910126142
1268+908121396+906178691+904429815+902882700+901207913+898931882+895893482
1258+892440931+889150329+886447575+884519987+883316226+882488075+881659999
1248+880926667+880727449+881063021+881295017+881041842+880745934+880959670
1238+881588305+882221205+882816088+883678290+884942444+886288994+887173498
1228+887370919+887277522+887605235+888864824+891100443+893820784+896171204
1218+897526136+898049474+898555375+899862261+902363703+906029765+910359709
1208+914324223+917036033+918563540+919485313+920142460+921009676+922706615
1198+924956004+926761757+927947556+929192926+930646793+931776315+932408467
1188+932962039+933958051+935838417+938792400+942413260+945700270+947652106
1178+948234341+948671092+950389285+953618371+957135581+959604993+961003779
1168+962226249+963615307+965002194+966895132+970032842+973808840+976623551
1158+977777245+978098373+979044168+981320648+983825607+984499144+982908998
1148+980955816+980632892+982499413+986113538+990598246+994925347+998274697
1138+1000166662+1000751667+1001263256+1002896283+1004942564+1005847797
1130+1006159645+1007859727+1010734159+1012059754+1010269493+1007022970
1121+1005207488+1006455403+1010415276+1015276417+1019300202+1021979981
1113+1023485262+1023861469+1023570726+1023905773+1025848478+1028633554
1104+1030279304+1029924649+1028933353+1029072251+1030331541+1031507836
1095+1032100997+1032535877+1032692961+1031896017+1031153331+1033053154
1087+1038123690+1043073888+1044829948+1044911521+1045935746+1046750576
1078+1045049895+1042106988+1041328155+1044032929+1048853134+1053615864
1070+1056886784+1058292231+1057933087+1055938818+1053042011+1051025141
1061+1051242469+1052935442+1053879965+1053170731+1053001673+1056405729
1053+1063458111+1070611148+1073741823+1071466540+1065836819+1060811559
1044+1059377075+1061146008+1063528308+1065061428+1066274543+1068229297
1035+1071133888+1073701186+1073660999+1070157858+1065590229+1062858588
1027+1061763866+1060482349+1059040980+1059074133+1061281538+1064575059
1018+1066885516+1066602181+1064054864+1061128047+1059242293+1058580954
1010+1058991587+1060485268+1062802385+1064915420+1065114413+1062440396
1001+1058022817+1053981370+1051367747+1049805141+1048622710+1047263662
993+1045034703+1042210787+1040642793+1041603107+1043708210+1044021255
984+1041015783+1036023826+1031910236+1030361625+1030249444+1028966131
975+1025723500+1022430353+1020846793+1020236269+1018447429+1014572272
967+1009633225+1004810027+1000206476+995444046+990163740+984164322+978347432
957+974761221+974126824+974176741+972201481+968491640+965274079+963492424
947+962509284+961769067+961005201+959454569+956518397+953086576+951025254
937+951129802+952388268+953277262+953180422+952444247+951552409+950784577
927+950456265+950616117+950424459+948919478+946725244+945815595+946969962
917+948766735+949821643+950543974+951852208+953613881+954885968+954810981
907+953145249+950378808+947303663+944473011+942376964+941555698+941774747
897+941727225+940363388+938282009+937269832+938550226+941709414+944984300
887+946562922+945963025+943957231+941178367+937753507+934337477+932136582
877+931801011+932988457+934514243+934823995+933244626+930509616+927573893
867+924918511+923193732+923160729+924724383+926957233+928881603+929626310
857+928909741+928182621+929679519+933501992+937131608+938475089+937897120
847+936540541+934600006+932215835+930418988+930031779+930658169+931596331
837+932701605+933859191+934530632+934228738+933245973+932358401+931766511
827+930972710+929947437+929578190+930519794+932453145+934648277+936343644
817+937133778+937848850+939712901+942275185+944019272+944969707+946444454
807+948431987+949477840+948710981+946336463+942995944+939774716+938079948
797+938931747+942343811+946637385+948738895+946774188+942530605+939839151
787+940477590+942836391+944251866+943844601+942758710+942175427+942234698
777+942758785+943538591+943677714+942204613+939792827+938645719+940326792
767+943966212+946824254+947333223+946683559+946290588+945523280+943597563
757+941621255+940471528+939091151+937146051+936566959+938377277+940664758
747+941346228+940575851+939360042+938361411+938412825+939992119+942014152
737+943432322+945409751+949214412+952922009+953345589+950866075+948495374
727+947773717+948100606+948377730+948213387+947965974+947999950+948059147
717+948008033+948040437+947784194+946664700+945176857+944642144+945442755
707+946536279+946401347+944122323+939596528+933230107+926528489+922168385
697+921707835+923440846+924219005+923317064+922311324+921703045+920131534
687+916336452+910773336+905808994+903910967+904790232+904954425+901339852
677+894934216+889349022+886622769+884989816+880630535+872147636+864494983
667+865097125+871913619+877716589+879862329+879394744+878120936+876720503
657+874148490+869212736+863202915+859817868+861407265+865481640+866367042
647+861355478+853346674+847011984+845269319+848600708+854534569+858813699
637+858880529+854901946+848724863+843502706+841871699+843714646+846553529
627+848308617+848634534+847655885+845320732+841266713+834944296+827482030
617+822114838+821683625+826461846+834128718+840412294+841345068+837511969
607+833969314+833970960+835108415+832511555+824297398+813669657
##END=
