##TITLE=<SNM>
##JCAMP-DX=4.24
##DATA TYPE=INFRARED SPECTRUM
##DATE=3/5/2025
##SAMPLING PROCEDURE=Instrument type and / or accessory
##ORIGIN=Admin
##XUNITS=1/CM
##YUNITS=ABSORBANCE
##RESOLUTION=4
##FIRSTX=4497.3318
##LASTX=599.83466
##DELTAX=-1.4281778
##MAXY=1.7147894
##MINY=0.17757775
##XFACTOR=1
##YFACTOR=1.5970221e-09
##NPOINTS=2730
##FIRSTY=0.19881409
##XYDATA=(X++(Y..Y))
4497+124490511+124796601+125572281+126422466+127102918+127296575+126709718
4487+125514646+124363289+123910419+124392689+125442008+126225078+126074883
4477+125152087+124305038+124198454+124744956+125347703+125441569+124844626
4467+123878107+123191571+123253555+123997147+125049152+126023145+126451372
4457+125928785+124625665+123272253+122455266+122306014+122754004+123490076
4447+123821592+123252790+122140004+121231690+120763481+120480213+120307924
4437+120532502+121292124+122138073+122320066+121560537+120392329+119631139
4427+119655697+120226020+120777449+120852924+120370346+119516485+118468407
4417+117322834+116183009+115225737+114811804+115378731+116800377+118073201
4407+118326965+117961831+117940370+118265541+118169054+117488275+116833128
4397+116576471+116506604+116380473+116232611+116133212+116008929+115814106
4387+115700506+115805419+115924132+115731885+115304441+114935845+114478114
4377+113563240+112518774+112252833+113059202+114224238+114974632+115220270
4367+115187911+114945344+114533333+114085632+113599938+112893145+111952500
4357+111193046+111214908+112221800+113685732+114731608+114928474+114543093
4347+114046798+113690304+113560217+113693309+113990610+114192440+114054608
4337+113536490+112827430+112205173+111872612+111896069+112261455+112940573
4327+113828500+114607091+114829057+114331232+113460221+112705619+112261007
4317+112092067+112197755+112543341+112902075+113058829+113118703+113393162
4307+113942902+114434186+114589382+114561147+114646699+114879078+115144682
4297+115431729+115741607+116008126+116257785+116619821+117100169+117525430
4287+117709858+117608873+117367705+117165203+116900364+116282996+115429527
4277+114962260+115242476+115899835+116385073+116633061+116923056+117404738
4267+117969081+118371052+118368215+117857421+116952932+116011709+115540141
4257+115857857+116818105+117982190+119000186+119737386+120186906+120329954
4247+120110162+119680162+119543749+120050969+120804442+121079975+120819735
4237+120641446+120872341+121166964+121134325+120765450+120165446+119455005
4227+119045056+119418243+120421197+121203820+121123446+120495338+120197422
4217+120598059+121215567+121498246+121519819+121660543+121967631+122121875
4207+121936355+121742960+122046783+122715954+122974215+122438070+121634585
4197+121302752+121670508+122443417+123119549+123428513+123595110+123924042
4187+124322318+124620384+124966110+125399955+125477641+124900367+124206824
4177+124247617+125149242+126287583+127144514+127676134+127923712+127837227
4167+127491425+127057394+126627441+126304089+126270200+126588793+127055454
4157+127319715+127154190+126645178+126114417+125842206+125923914+126330345
4147+126930778+127460840+127624993+127313482+126679683+126000807+125559424
4137+125650257+126440456+127674604+128733700+129167498+129063490+128851863
4127+128874592+129132807+129383436+129477339+129510892+129608145+129735731
4117+129818979+129883341+129989850+130124966+130246171+130398269+130603924
4107+130632047+130242299+129774593+129968520+130995324+132201340+132942824
4097+133132832+132894361+132222138+131166195+130061201+129422989+129589773
4087+130403298+131306546+131816864+131803969+131397846+130905470+130728964
4077+131032217+131509290+131721655+131604238+131439553+131464419+131683670
4067+131920601+131944357+131698795+131425362+131377244+131496965+131568661
4057+131533923+131501005+131626249+132068930+132867461+133769990+134299930
4047+134119299+133383629+132640466+132296344+132363450+132749942+133399062
4037+134060013+134382282+134344773+134262533+134394207+134708470+134890986
4027+134592388+133935449+133620841+134149960+135163421+135922315+136168111
4017+136138374+135987088+135635129+135074043+134445814+133903016+133657006
4007+133973406+134834107+135883789+136921575+138011938+138916353+138996633
3997+138060056+136837945+136235002+136431178+137033001+137748116+138518338
3987+139246114+139710647+139643495+138888501+137720815+136853629+136800818
3977+137345762+137829525+137803213+137335685+136853601+136721004+136957087
3967+137406794+138028715+138833618+139704881+140443089+140871998+140873678
3957+140452709+139786066+139172440+138906229+139077147+139432997+139580112
3947+139383573+139051730+138869625+138972905+139286096+139614701+139857240
3937+140086138+140425875+140918175+141469772+141870745+141976320+141924414
3927+141978504+142194479+142414000+142608057+143023493+143758295+144376158
3917+144226486+143184613+141892000+141209607+141513028+142430440+143293007
3907+143875693+144427187+145033172+145461968+145754678+146263037+146841757
3897+146805377+146053705+145431056+145638662+146266788+146447867+146286876
3887+146350287+146364806+145897940+145644754+146303037+147117728+147028285
3878+146428450+146317192+146893300+147871043+149084748+150124997+150427989
3868+150263985+150253908+150198764+149636578+148907345+148562505+148580784
3858+148953392+150194370+152629729+154933788+155032235+153303258+151330873
3848+150103182+150060308+151149113+152888233+154835154+156873263+158739830
3838+159657549+159227241+158138156+157233723+156711322+156374861+156167441
3828+156225160+156725597+157919073+159797415+161437248+161643715+161008787
3818+161085559+161812711+161988499+161417952+160889225+160956741+161701490
3808+162785014+163790143+164970743+166751972+168438719+168920588+168746833
3798+169063962+169690474+169972239+170188820+171045499+172567039+174221017
3788+175738190+177270236+178887489+180610550+182845376+185956084+189471982
3778+192589444+195330044+198407871+202486907+207766716+213611828+218990205
3768+223895595+229219762+235176300+241387078+248169933+256297214+265531944
3758+274576254+283015551+292115136+303475915+317281067+331225935+342686627
3748+352239361+361950790+372116246+380734354+387198103+393978644+403247430
3738+415198538+428251551+440345192+450642545+459222360+465880484+470612512
3728+474462240+478563446+482504090+484883242+485739977+486915109+489930682
3718+494718432+500486119+506920906+514119943+521949504+530085481+537875667
3708+544021355+548211798+552314161+558346314+565757976+571906687+575383825
3698+577318318+579679891+583547011+588741911+594582974+600283629+604720065
3688+606970379+607069172+605849850+604558235+604253124+605057011+606198665
3678+606446373+604747534+602528122+602963786+605676973+606864272+604518001
3668+601534153+601333769+604199791+608382620+611922796+614312995+616778996
3658+620447822+624659838+627786258+629512642+630925592+632568672+633245849
3648+631939640+629968796+628860396+628906825+630423979+634167487+640077932
3638+646757815+652550022+656369668+657817627+657465229+656932863+658098963
3628+661194778+664483849+667258469+670243960+673368066+675492903+676499935
3618+678002832+680814400+684057789+687703288+693056436+699742663+704547918
3608+705061698+702618949+699968613+698840731+700190979+703892388+707803548
3598+709456929+708994579+708821105+710729099+714310404+717521845+718064288
3588+715108804+710404021+706288559+702866993+699426319+697048063+697794510
3578+701915945+707054787+710401185+711289830+711053057+710843380+710408276
3568+708817448+706434265+705142463+706333271+710053564+715410444+720395742
3558+722161463+719840833+716493240+715619524+716818990+717082337+715365433
3548+713419146+712943211+713735267+714222398+713213724+711215634+709649736
3538+708801474+708062117+708389136+711871238+718089443+723077652+723023983
3528+718466474+713539324+711395154+711898260+713539548+715734924+718190662
3518+719698336+719025638+716241464+712782203+710801430+711664696+714169699
3508+715866225+716698513+718748780+722161761+724108123+722628888+719235986
3498+716803240+716766440+718561944+720673420+721791374+721053586+718615763
3488+716524964+717070991+719455442+719742152+715758811+710534202+708461168
3478+709984742+712282008+713671744+715104624+717450410+719532102+720018860
3468+719653325+720114480+721352687+721482345+719619436+717215577+715725071
3458+714588307+713021663+712326347+713965695+716583784+717638888+716931032
3448+716141066+716005138+716460098+717847445+719592490+719833965+718008752
3438+716140395+716171745+717492285+718206262+717441826+715819198+714463725
3428+714112073+714711844+715329305+715026322+714216053+714354071+715829649
3418+717286938+717415775+716290207+714786190+713661070+713406830+714279800
3408+715958933+717290371+717155264+715885110+715143290+716174507+718411237
3398+719862480+719136485+717078604+715847339+716554225+718455352+720011023
3388+720220924+719206427+718195663+718999288+721862287+724125142+722957997
3378+719193961+716850490+718146173+720848910+721883934+721791076+723012338
3368+725160091+725032150+721433751+717442871+716372913+717624183+718573216
3358+718938676+720347073+722759890+724415361+724497619+723498350+721728897
3348+719269427+716837576+715436271+715590785+717043521+718833353+720167553
3338+721063663+721829443+722387338+722465416+722471239+723383397+725056335
3328+725567054+723668391+721327308+721968133+726052768+729713271+729065952
3318+724832326+720772548+719096251+719197694+719779400+720563394+721609390
3308+722260890+722074651+722040986+723401611+725851675+728028390+729335494
3298+730361486+731633133+732941357+733778722+733766629+732874923+731437415
3288+729855768+728299499+726827132+725541899+724401477+723444158+723076831
3278+723537016+724321905+724664152+724440665+724140668+724217477+724930633
3268+726336194+727800873+727809009+725170691+720962967+718163267+718607702
3258+720874961+721720014+719918389+717635902+717327544+718884037+720473298
3248+720976403+720782700+720794643+721323053+721325964+719131409+714871733
3238+710978711+709633464+711096277+714273306+717242748+717954486+716331709
3228+714631750+714587112+715848086+717394426+718437437+718170358+716785848
3218+716288415+718381827+721955667+723783418+721875872+717733313+714675342
3208+714654218+716997689+719312273+719457457+717324111+714654367+712915518
3198+712256480+712636421+714368553+716707919+717624854+716074707+712951870
3188+709551131+706803607+705550546+705842258+706525182+706554145+705824418
3178+704561653+703125115+702313950+702967689+705066176+707244832+707654109
3168+705634521+702182128+698717119+696168151+695141487+695762681+697048809
3158+697391578+696208608+694502677+693531699+693422717+693198634+692097176
3148+690778204+690642649+691702305+691920193+689566496+685749537+683319254
3138+683708675+685871880+687751210+688047923+686776126+684897020+683511539
3128+682897735+682501446+682091049+682355665+683507060+683761673+681162170
3118+676979751+674691368+675547767+677490097+678160183+676941608+674259846
3108+670930616+668316707+667620197+668733897+670307258+671039150+670720641
3098+670039134+669713459+670021294+670814320+671274505+670077278+667024159
3088+663857879+662395514+662817779+664268275+665809092+666322722+664984939
3078+662452841+660392571+659583198+659293054+658543771+657340423+656459167
3068+656406766+656889121+657251894+657017435+655836854+653796291+651871651
3058+650872680+650216329+649115618+648227420+648459565+649132786+648920721
3048+647751560+646523953+645662702+644921480+644077770+643192857+642406251
3038+641751915+641274114+641215891+641690333+642077366+641347564+639290878
3028+636844695+635023364+633951540+633012509+631698911+630300218+629707614
3018+630360307+631593513+632213213+631619489+630276108+629079702+628281377
3008+627151703+624926768+621963820+619523683+618446522+618371766+618219752
2998+617276690+615776405+614573580+614476542+615623458+617017598+617043052
2988+615160698+612579483+610667123+609590186+608865871+608279984+607890152
2978+607685961+607488265+607078801+606481307+605902101+605284976+604449888
2968+603667611+603284124+602873354+601675380+599775672+598075414+597123022
2958+596637682+596173354+595669241+595255933+594935334+594541732+593739787
2948+592200612+590142470+588418289+587699871+587722787+587516655+586304910
2938+584181790+582016495+580623214+580122236+580253946+580827740+581385374
2928+580969416+579003908+576145687+573704319+572610661+573116753+574581469
2918+575305896+573793370+570601524+567810109+566725894+567133044+568199456
2908+569016219+568761382+567257999+565020561+562512759+560088373+558534307
2898+558532664+559510884+559929827+558884316+556930527+555307191+554760119
2888+555085235+555405050+554839317+553144695+550894157+549031397+548133421
2878+548007160+548005965+547687046+547124187+546657844+546347583+545699219
2868+544179228+541969893+539825798+538291849+537421454+536996688+536647873
2858+536055194+535258846+534485452+533780358+533148379+532737758+532566411
2848+532340872+531752634+530750864+529517957+528357530+527476498+526721318
2838+525697976+524326640+523076341+522397111+522084760+521532053+520444143
2828+518924339+517173435+515593766+514743413+514557809+514134797+512933539
2818+511531338+510652807+510261556+509995672+509636332+508835767+507295996
2808+505508702+504367907+503851402+503033408+501533721+499995815+498973854
2798+498226511+497301663+496204609+495251396+494585677+494064768+493505642
2788+492856905+492111838+491159483+489828344+488186794+486704499+485843024
2778+485507197+485183202+484531180+483510899+482162068+480698546+479535731
2768+478787305+478041268+476988255+475900457+475132288+474492770+473501413
2758+472033897+470360362+468739228+467348037+466415836+466008574+465805242
2748+465365286+464482052+463151062+461473869+459725167+458239513+457093045
2738+456057013+454969775+454048771+453601948+453408730+452779176+451401757
2728+449754123+448481991+447733005+447246732+446750233+446076452+445122492
2718+443904962+442612227+441456353+440459884+439499318+438534497+437611179
2708+436654383+435500898+434154680+432785621+431499306+430361944+429598888
2698+429403617+429502335+429271048+428383224+427059661+425686422+424502481
2688+423582522+422822788+422021104+421107116+420173572+419297019+418519482
2678+417931580+417543353+417112839+416302309+415084257+413849035+412958076
2668+412347893+411787870+411272598+410843838+410306882+409446265+408298714
2658+407055245+405892205+404907529+404104762+403484465+403072799+402765113
2648+402366473+401846050+401246242+400430114+399340301+398321475+397725549
2638+397377406+396810889+395895073+394911069+394094829+393414741+392832139
2628+392442418+392209863+391860152+391214550+390413537+389716840+389242809
2618+388889404+388412051+387659296+386767888+386034504+385627466+385471682
2608+385334411+384997614+384391797+383572235+382647163+381800020+381240483
2598+380994230+380832960+380500082+379941403+379287515+378698942+378280595
2588+378055056+377888673+377511232+376835473+376182332+375872332+375723491
2578+375344407+374754490+374288819+374065556+373935861+373778846+373535467
2568+373118539+372522202+371935569+371602989+371559397+371558688+371340837
2558+370938763+370589986+370399529+370280882+370167982+370058739+369883958
2548+369548990+369105824+368743835+368594470+368611415+368649260+368630449
2538+368607683+368628098+368579840+368305745+367885569+367635547+367732884
2528+367988131+368090096+367932297+367595836+367168010+366710624+366318553
2518+366100441+366065544+366017622+365654102+364906834+364135381+363813662
2508+364030393+364428249+364630201+364583510+364429033+364200657+363819148
2498+363299397+362814094+362575791+362655997+362819245+362644016+361999048
2488+361250511+360792304+360584083+360365672+360082134+359842860+359649083
2478+359425895+359236932+359216106+359279927+359129705+358612641+357917437
2468+357367119+357150947+357241827+357451504+357586611+357586798+357474159
2458+357247239+356919064+356577713+356341798+356302722+356470822+356699272
2448+356729727+356396438+355785770+355196226+354905335+354912165+354954153
2438+354823338+354565552+354334452+354181020+354034268+353799847+353443157
2428+353010852+352596872+352283290+352087049+351966721+351920031+352019719
2418+352276795+352544322+352662074+352647257+352646250+352712534+352737018
2408+352657484+352615235+352744258+352941880+353030558+352969237+352767958
2398+352451166+352178712+352114704+352186998+352203942+352079099+351757940
2388+351099685+349961876+348241576+345764602+342238161+337366136+331028761
2378+323400069+314935505+306232620+297800079+289839311+282260519+275014624
2368+268406699+262987398+259060077+256431929+254968183+255217067+257964759
2358+263351179+270931818+280510268+292401398+306213044+319421691+328304079
2348+330498074+326668613+320297162+314955510+311283885+307909850+304083131
2338+300058660+296296864+293033341+290231886+287913160+286459491+286276126
2328+287205602+288564752+289805684+291044898+292864699+295618568+299072977
2318+302679717+305979500+308794576+311276663+313785678+316581608+319591172
2308+322484775+324952456+326904341+328475314+329902783+331364513+332830909
2298+334062286+334854864+335319751+335805091+336510969+337316162+338033199
2288+338658498+339248079+339710765+339891554+339773877+339502207+339272227
2278+339194074+339176047+339023697+338747363+338608262+338733964+338879857
2268+338732396+338297815+337840392+337547187+337386067+337260701+337202664
2258+337337921+337677704+338040440+338213765+338122549+337866368+337696738
2248+337866965+338334988+338719819+338728813+338492003+338308265+338261015
2238+338285461+338428144+338804914+339380947+339966348+340424555+340788859
2228+341152864+341508359+341761106+341887965+341964999+342019601+342005941
2218+341993065+342188560+342665614+343251986+343792003+344320376+344884130
2208+345406233+345818608+346179104+346608312+347178635+347843981+348476520
2198+349023965+349556144+350101387+350593594+351070238+351726328+352628484
2188+353529222+354133061+354460527+354792920+355309686+355930543+356486833
2178+356908688+357259369+357677417+358250390+358918273+359575744+360242658
2168+361025084+361985799+363186571+364729068+366590782+368552520+370480407
2158+372587367+375275921+378764816+382878748+387100244+390881224+394051162
2148+396852616+399544604+402201322+404912792+407836813+410965733+414106448
2138+417149639+420219553+423527770+427096162+430692060+434176663+437783609
2128+441787515+446087164+450403831+454626223+458625949+461932412+463910012
2118+464281780+463391754+461891731+460208529+458419743+456577436+454937752
2108+453891345+453849582+455157992+457893236+461601363+465274555+467727568
2098+468117139+466192536+462193221+456571315+449744756+442092513+434068204
2088+426093907+418414307+411200528+404578421+398462330+392710281+387509446
2078+383232863+379899938+377136030+374679771+372633161+371139931+370046236
2068+369054805+368101106+367345104+366825092+366349157+365721992+364927884
2058+364126535+363520420+363164402+362952150+362841004+362950619+363375796
2048+364047860+364853612+365835788+367238437+369361706+372409526+376519241
2038+381868133+388632066+396830932+406194442+416090953+425620398+433881704
2028+440162126+443961170+445053110+443600337+440131335+435344256+429857681
2018+424075625+418255650+412625720+407354234+402435072+397701625+393033157
2008+388530213+384399336+380691098+377272593+374050030+371092531+368515048
1998+366315903+364362711+362522793+360771404+359168856+357763893+356537106
1988+355442927+354498036+353750283+353119982+352410708+351578195+350835928
1978+350399630+350267509+350278033+350230709+349986658+349595743+349248906
1968+349006610+348701425+348195632+347591047+347102049+346846690+346782794
1958+346746404+346570392+346241545+345898440+345637631+345428776+345251270
1948+345172110+345238133+345392834+345505473+345430156+345120493+344713903
1938+344399611+344235281+344171124+344170676+344208259+344219232+344163435
1928+344113199+344205050+344482915+344822735+345063502+345169161+345141655
1918+344898163+344468023+344150074+344185903+344462835+344716777+344868529
1908+345016998+345203348+345331700+345283144+345041556+344730847+344542593
1898+344583013+344750553+344818517+344709685+344576183+344526806+344471979
1888+344339410+344215873+344189113+344268348+344431895+344577714+344553603
1878+344376247+344258794+344350644+344632764+345073056+345655173+346193026
1868+346340150+346001263+345519954+345274336+345305462+345387124+345338493
1858+345194167+345089217+345090112+345202303+345474495+345979803+346709455
1848+347560555+348350333+348768829+348582553+348064108+347752839+347812966
1838+348032944+348218063+348436734+348926814+349758730+350605201+351017016
1828+351016979+351007574+351134544+351249833+351327389+351492130+351739764
1818+351950523+352148183+352535439+353230233+354104845+354922429+355559596
1808+356056693+356522401+357069697+357775500+358628801+359547566+360478423
1798+361450484+362533094+363767121+365056198+366090699+366652886+367043540
1788+367784986+369106421+370879420+372797678+374585867+376126311+377465475
1778+378749775+380171048+381891534+383820130+385500533+386654727+387625967
1768+388747504+389993922+391405902+393142773+395061851+396780770+398236567
1758+399631863+401029847+402536477+404454996+406861355+409294699+411159698
1748+412377079+413250459+414043858+415023197+416450852+418277596+420126620
1738+421892043+423970003+426553196+429047413+430832691+432315770+434016998
1728+435911892+437904608+440035342+442281402+444688657+447577707+451178569
1718+455026393+457997664+459589202+460522149+461710419+463669096+466546278
1708+470152813+473951110+477411118+480748484+484739850+489507558+493970231
1698+497464873+500728080+504222200+507732630+511371262+515502587+520116826
1688+525052821+530552608+536730654+542401713+546376769+549640983+553582673
1678+558544384+564135759+569660067+574658278+579444947+584682395+590475311
1668+596143459+601210941+605992123+610919944+616017247+621030200+625883788
1658+630773839+636064956+642242107+649188844+655039350+658849963+662427760
1648+666944737+671842999+675836567+678770702+681385059+684057565+686928999
1638+690143499+693300524+695136710+695129917+694411835+693937766+693865435
1628+694163193+694765054+695178212+694515292+692695902+691163669+691148889
1618+692043283+691808301+689291206+685666532+682262210+679339719+676663257
1608+673960521+671253530+668932825+667407012+666835233+667203978+668392098
1598+670056228+671638398+672628560+672730749+671805154+669965012+667743436
1588+665791177+664366806+663331857+662529799+662044161+662138288+662892274
1578+663912518+664581410+664904696+665676747+667274443+669312617+671270101
1568+673226689+675888296+679697790+684517153+690226430+697417330+706774944
1558+716539445+724216358+731062773+738951154+748101031+757936818+767853595
1548+777193443+785651214+793465174+800513727+805803725+808244981+808273794
1538+808335301+809717125+811556968+812837573+813779067+815242627+817174880
1528+819148786+821475686+824677796+828363977+831621548+834448269+837817508
1518+841826304+845257872+847202740+848241496+849508292+851293570+853053768
1508+854187621+854792169+855842794+857776316+860054026+862242833+864209573
1498+865707319+866369269+866375390+866480042+867190809+868532324+870241838
1488+871849835+872928750+873501573+874030805+875021863+876665465+878710432
1478+880666199+882249787+883564430+884689102+885406811+885819970+886512673
1468+887649214+888772095+889352234+889293861+888930789+888661471+888810163
1458+889599009+891022932+892823288+894670372+896042343+896191931+894718444
1448+892198512+889921474+888810014+888884808+889791742+891280232+892940257
1438+893790087+892847249+890712858+889200332+889171817+890316420+891761392
1428+892444242+891886198+890723980+890231623+891159457+892989672+894470698
1418+894910206+894666192+894168685+893412758+892449766+891559180+890903351
1408+890219083+888945942+887048025+885613577+885687924+886762658+887491340
1398+887359891+886656887+885479814+883977514+882807906+882299799+881675172
1388+879660287+876246410+873619288+873961161+876933589+880413974+883001982
1378+884900272+886677563+888633106+891290160+894938496+898670584+901189097
1368+902334894+903039241+904115768+905706970+907517478+909085764+910181175
1358+911116175+912444851+914278872+916083110+917235401+917585485+917491433
1348+917585485+918514065+920521785+922974686+924684647+925241870+925672272
1338+927117319+929272387+931010266+931992740+932831299+934162289+936176129
1328+938580660+940542324+941247866+940974069+940871358+941378121+941750300
1318+941541220+941586828+942785622+944650546+945903682+946163520+946170686
1308+946538834+947115987+947470699+947443678+947169358+946888470+946787326
1298+946844803+946754632+946020352+944280159+941764109+939368535+937923637
1288+937258851+936298845+934394136+932100378+929952102+927395147+924134068
1278+921356164+920113329+919495345+917720144+914387779+910716975+907987516
1268+906350482+905102049+903883473+903103436+902901522+902374157+900438395
1258+897098566+893319527+889772036+886188416+882132595+878026836+874977374
1248+873749916+874144712+875077846+875258263+874217267+872650997+871608881
1238+871689348+872889561+874557871+875587670+875395683+874749335+875083594
1228+877005397+879814204+882532989+885032468+887643242+890016721+891108550
1218+890450034+889155321+889132106+891040175+893670655+895796090+897621527
1208+899721358+901844702+903592881+905204088+907092525+909333435+911765883
1198+914295294+917160159+920691005+924628141+928182947+930847466+932654615
1188+933920590+935247624+937165844+939421683+941418205+943245284+945299806
1178+947321783+948810124+949918972+951212341+952987243+955258086+957911781
1168+960394763+961659842+961417695+961248251+963047338+966424714+969227773
1158+970816138+972729731+975772325+978640624+979883832+979799035+979952132
1148+981401359+983761103+985969393+987752357+989795906+992409666+995124794
1138+997460353+998973252+999082532+997955023+996948588+997504542+999957518
1128+1003155074+1005446892+1006472585+1007378623+1009231380+1011864323
1120+1014070150+1014418815+1012551727+1010182727+1009898256+1012679295
1111+1016877613+1019707843+1019994031+1019165250+1019324393+1021114821
1103+1023789939+1026628156+1029361945+1031264565+1031508952+1031380712
1094+1033566608+1038007746+1040921279+1039536246+1035837749+1033610873
1085+1034319923+1037081256+1040399214+1043126957+1045077946+1047198976
1077+1049914402+1051598014+1050764979+1049118764+1049521771+1051793808
1068+1053219298+1052791584+1052131127+1052223612+1052341028+1052416942
1060+1053894758+1057251607+1060363172+1060903152+1059626429+1059353752
1051+1060839555+1061791201+1060716018+1059457881+1060242323+1062583629
1043+1064349649+1064354128+1063679713+1064163933+1065729159+1066498074
1034+1065806938+1065107219+1065429908+1066382524+1068053745+1071048641
1025+1073741823+1072865494+1068540429+1065270392+1066125821+1069030695
1017+1070084380+1068582603+1066566225+1065038098+1063544531+1061705434
1008+1059390701+1056642058+1054053304+1052421346+1051588161+1050374811
1000+1048304913+1046731103+1047168447+1049149966+1050755798+1050465206
991+1047918775+1043544594+1037984382+1032122606+1027177765+1024068812
983+1022685944+1022341981+1022590100+1022539416+1020787579+1017372732
974+1014252880+1012946523+1012898750+1012238816+1009369323+1004095747+997631961
964+991228264+985527048+981330148+979148208+977878426+975590864+971823395
954+967845651+964794622+962757120+961378282+960397600+959441923+957733156
944+954704147+951244662+949488122+950493288+952733899+953831475+953390325
934+952887891+953042779+952790853+951194202+949229478+948878573+950803288
924+953424886+954430723+953174900+951269743+950642503+951395818+952052915
914+951601016+950412000+949100865+947365898+944678613+941628629+939593440
904+939249402+940183656+941609445+942848772+943358297+942823392+941389094
894+939568434+937719111+935715870+933421366+931227258+929621799+928685456
884+928590731+929994127+932912587+935320850+934541186+930642865+926749171
874+925420495+926321606+927475763+927387458+925907701+924152057+923447933
864+923847432+924167583+923693664+923145846+923822277+926241363+929546781
854+932268925+933592377+933305666+931388640+928869455+927647073+928216911
844+929106751+929359050+929738469+930908227+932259893+932874444+932410974
834+931123054+929884175+929826624+931081178+932128817+931307427+928898641
824+926869722+926716775+928303349+930552246+932536079+933864681+934765941
814+936049532+938254463+940652276+941700810+940858370+939408023+939074585
804+940094903+941192704+941544952+941768961+942563778+943460336+943739358
794+943736745+943869837+943103236+940431700+937374177+936753506+939439000
784+943752122+947540492+949522160+948954487+946117912+943328887+943056433
774+944378317+943335679+938189970+932635133+931613694+935441849+939797593
764+941419101+941867791+943772052+946466130+947697768+946617435+943993150
754+941775828+942306552+945884125+949519249+949903520+946969609+943235805
744+940748866+940045265+940798878+942140990+943529233+945664595+949015845
734+951874888+951822039+948857225+945283459+942924163+941882048+941731265
724+942728668+945008542+946929823+945905474+942089859+939066075+939375403
714+941676999+943136452+942919609+942095009+941010869+938123685+931981916
704+924353374+919486238+919610298+922916761+925948233+926918465+926217327
694+924875290+923643502+922341176+919643664+914692479+908760089+904226391
684+902184932+901448786+899883113+896504692+892462306+890156157+890745403
674+892610402+891733923+883985949+868906593+854525613+853294049+863692807
664+874418659+879739037+879821146+877486856+875248633+873206727+869991405
654+865409487+861233562+858841571+858090795+859223752+862120341+863881509
644+861413605+855593854+849670794+845470684+843533280+844744017+848835295
634+852506099+851618947+845635873+838608145+835628029+838879852+845502035
624+849164926+846029922+838369208+831113217+827669333+828567607+832106589
614+835880328+838106309+839258600+841790400+845558690+845045955+835520690
604+820281519+806971542+800543809+801258085
##END=
