##TITLE=<SNM>
##JCAMP-DX=4.24
##DATA TYPE=INFRARED SPECTRUM
##DATE=2/5/2025
##SAMPLING PROCEDURE=Instrument type and / or accessory
##ORIGIN=Admin
##XUNITS=1/CM
##YUNITS=ABSORBANCE
##RESOLUTION=4
##FIRSTX=4497.3318
##LASTX=599.83466
##DELTAX=-1.4281778
##MAXY=1.7208146
##MINY=0.18937387
##XFACTOR=1
##YFACTOR=1.6026335e-09
##NPOINTS=2730
##FIRSTY=0.21061327
##XYDATA=(X++(Y..Y))
4497+131416989+132110447+132968626+133365304+133055106+132239372+131225582
4487+130391010+130156693+130751574+131998277+133236630+133705282+133360999
4477+132949054+132938083+132988106+132785253+132630052+132789623+132923336
4467+132606389+132167313+132530071+134064963+135847998+136361522+134996029
4457+132705532+131063240+130765214+131213820+131582836+131790171+132006580
4447+131929249+131298208+130509159+130057903+129928913+129948977+130255037
4437+131044059+132073553+132666342+132291979+131122189+129927555+129371883
4427+129442687+129566098+129252098+128591685+127980719+127406117+126430765
4417+125091836+124286069+124789570+126235927+127542675+128134023+128211493
4407+127960171+127228210+126162975+125474771+125645313+126300891+126731617
4397+126710679+126483642+126185458+125677159+124993650+124557261+124678190
4387+125029028+124926482+124129510+123121467+122490407+122129397+121320608
4377+119818417+118445105+118164177+118979345+120203453+121310120+122021253
4367+122112819+121712478+121377428+121455075+121668415+121628109+121476720
4357+121628964+122067101+122421222+122621257+122912570+123349340+123699742
4347+123701731+123216073+122356341+121470955+120779162+120243509+119913712
4337+119926859+120095328+120034371+119760565+119691315+120033115+120562734
4327+121003921+121263575+121258972+120867511+120223741+119767418+119747065
4317+119909844+119907724+119785363+119874437+120341397+120985688+121466372
4307+121636384+121602726+121564604+121761581+122444262+123570659+124590566
4297+124818217+124097925+123029455+122500105+122909818+123782614+124258807
4287+123991882+123334677+122645488+121897479+121195281+121063446+121727634
4277+122589672+122912338+122692805+122496804+122717519+123226515+123606921
4267+123650333+123590714+123741815+123991269+123939405+123555085+123367118
4257+123860187+124889680+125857046+126358018+126538444+126834508+127342872
4247+127530932+126906456+125913001+125513422+125891950+126315591+126283030
4237+126038959+125955576+126021219+125928584+125411294+124638302+124220156
4227+124568103+125424423+126208647+126601447+126688894+126723621+126798377
4217+126754258+126538128+126492865+126993624+127904420+128659086+128795115
4207+128346415+127855820+127881371+128321702+128476912+127973048+127276680
4197+127046585+127296569+127505177+127368534+127142418+127236169+127684868
4187+128170982+128439934+128458827+128222986+127759001+127400036+127710280
4177+128907936+130523087+131799078+132347200+132318534+132083204+131936213
4167+132087230+132652246+133448232+133975312+133893277+133431449+133055608
4157+132816364+132365628+131658493+131228492+131499741+132140851+132470500
4147+132292686+131931220+131650014+131490378+131469169+131506770+131381294
4137+131090223+130956184+131159093+131524780+131851462+132022860+131844052
4127+131265675+130648200+130342875+130231616+130102905+130163453+130692941
4117+131443274+131853936+131780845+131686899+132057198+132795164+133327870
4107+133265742+132796010+132424865+132499490+132987101+133565469+133897015
4097+133867261+133596413+133312361+133208085+133244635+133128328+132716578
4087+132342746+132455409+133087119+133920176+134633326+134981329+134873324
4077+134632480+134830954+135588995+136316938+136363716+135698794+134806993
4067+134159309+133958948+134197235+134712070+135175330+135189026+134602959
4057+133763887+133248438+133308131+133741925+134270159+134786008+135230262
4047+135479874+135454277+135218342+134939870+134765190+134689532+134536535
4037+134143521+133621452+133380078+133783943+134748053+135802029+136598972
4027+137164723+137594287+137788613+137667350+137439077+137451768+137797205
4017+138106435+137827507+136842327+135722466+135212113+135515206+136213081
4007+136781016+137033325+137142510+137391471+137864308+138255007+138093557
3997+137325186+136531460+136373842+136925041+137699028+138147550+138057500
3987+137667517+137412578+137469388+137655839+137757940+137768902+137895930
3977+138424201+139355397+140184837+140343506+139804663+139008399+138392997
3967+138241311+138732901+139850902+141264623+142432154+142924544+142731324
3957+142231040+141867259+141929889+142636215+144128932+145998511+147110878
3947+146855324+146246747+146479567+146969847+146260099+144436005+142980090
3937+142811965+143934903+146164024+148968110+151009496+151127282+149889013
3927+149059555+149492243+150229968+150098542+149727471+150745389+153299500
3917+155334425+154710980+151745232+148650716+147046843+147099757+148719381
3907+152461850+158517131+165252397+169860224+170870630+168602811+163769509
3897+157962138+154010494+153974455+157057302+159586225+158898755+157410232
3887+158724680+162184697+164434682+165056899+165765810+165433205+162425364
3878+159418862+159883015+163479711+167807392+171610819+173927489+173449055
3868+171580303+171183356+171967003+170999387+167433820+163904924+163332469
3858+167369255+176745633+189521183+196700759+190190819+177140628+166672897
3848+161657672+161956600+166036844+171698963+177434275+182784801+186620566
3838+186741588+183199600+179077348+176273373+174165014+172117128+170860160
3828+170950629+172162780+175223619+181377430+188493372+191140639+188952038
3818+186412534+183779270+178370520+171631999+167676198+168536368+173668542
3808+180040594+184182056+186975821+191292827+195361189+194853746+191174298
3798+188360598+186189458+183126481+180259597+179237811+179974541+181974580
3788+185509483+190471802+195622126+200317428+205521252+211524660+216528634
3778+219450376+222155644+227144685+235611373+247503025+261009057+272942233
3768+281803636+288501078+294072170+300004468+308594483+320318028+332506228
3758+342732269+352640581+366184529+386050135+411105804+434609649+450677537
3748+463115256+477587992+491929442+498494854+498097126+499650548+508066246
3738+522630326+538916789+550470685+552887066+548235613+542995267+541935527
3728+545284155+549869667+552367684+552032996+549551790+545029317+539080990
3718+534104742+533267037+538821727+550042980+560614234+562293699+555895911
3708+549023184+546066780+547199787+550475445+553082843+553704130+553812246
3698+555504208+559914696+567359170+577343725+588504170+598262339+602261673
3688+598348772+591205142+586655780+586567524+589666447+594202346+600684076
3678+610485462+619830208+620676951+614081117+607534785+601279180+591143069
3668+578679874+569388460+565815827+566894906+569760860+572457295+575232093
3658+578212188+580122353+581787090+587117440+597853379+609433867+612145736
3648+602439747+588879211+579582739+576101820+576458489+578177451+580035845
3638+582433259+586337345+592163534+599834766+609239540+618633008+622513737
3628+617670822+610487879+607570005+609420924+613802328+618560410+622335292
3618+625113362+627959419+631418543+635031344+638193381+641083696+643785672
3608+645142574+644433477+643608342+645623834+650667474+655598124+657984566
3598+658891820+660227448+661782582+662513770+663508573+667473654+674697916
3588+680459578+679561324+673834176+669416622+669670567+673382446+676563154
3578+676475456+674388556+673092128+673609762+676173459+681594743+688790739
3568+692992359+690637679+684442138+678984928+675897571+674949853+675570507
3558+676621321+676702548+675398682+673695749+673252201+675122496+678624986
3548+681613190+682585083+682133873+680842281+677800670+673219249+669394158
3538+667773419+667510697+667894143+669891039+673941958+678038920+679358927
3528+677538915+674874725+672952510+671325151+670143124+671121266+674278840
3518+676281836+674362596+670264890+667673299+667371823+667025940+665184505
3508+663365311+663465059+665336099+667445983+668331517+667039776+663709111
3498+660406563+659743733+661958201+664448482+664749586+663003808+660902031
3488+659478408+658723714+658291695+657922159+657863024+659054051+661694958
3478+663618512+662334134+658598676+655435820+654285481+654467720+655256333
3468+656350066+657355655+658024733+658657587+659624943+660780712+661735571
3458+662349011+662683587+662506927+661198821+658685183+656048516+654431942
3448+653733780+653091033+651994175+650135930+647528644+645448885+645639232
3438+647896916+649937773+650320326+649960460+650030752+650237017+649720276
3428+648215351+646211984+644643461+644083131+644199095+644709365+646250440
3418+648908902+650724674+649477860+645727450+642548602+642361082+644945086
3408+648076924+649666496+649684646+649837429+650977503+651733015+650499665
3398+647671981+644611105+641724286+639130463+637795133+638476261+640484538
3388+642378860+643245277+642977794+641990727+640865381+639821559+638646674
3378+637359246+636393452+635898431+635495422+635130348+635675132+637695385
3368+639936407+640436263+638959233+636927376+635250254+633766529+632660151
3358+632943849+635011112+637482202+638332701+637232869+636024511+636617049
3348+638802284+640381443+639784665+638182968+638074070+640271355+643106180
3338+644366755+643742976+642875220+642814077+642675426+641224950+639003342
3328+637800860+638267765+639180969+639049683+637884690+636999900+637184817
3318+637874723+638493667+639542249+641460225+643379539+644081569+643532769
3308+642565711+641807595+641546212+641841365+642453540+643170299+643897471
3298+643961589+642255011+638917057+635578880+633247035+631570880+630570573
3288+631397865+634584523+638641467+641356534+641803727+640619469+638987721
3278+637867805+637846457+638903519+640459917+642081995+643736356+645120408
3268+645562394+645079720+644554276+644453709+644449321+644382822+644628138
3258+645435496+646498211+647056384+646312550+644182805+641506119+639353464
3248+638424044+638884700+640185442+641181213+640947723+639515992+637828159
3238+636948055+636983015+636950361+635970285+634356612+633175999+633157850
3228+634259691+635605360+635924986+634830063+633269946+632318657+632287416
3218+633181578+635043096+637067068+637373900+635172970+632445406+631769856
3208+633078185+634036243+633022323+630272147+626707993+623440963+621924323
3198+622861814+625036226+626274858+625669155+624176503+623305995+623690110
3188+624704774+625336140+625160819+624204174+622382934+619911546+617747548
3178+616778481+616922860+617443506+617697748+617330815+616282902+614827034
3168+613393926+612388709+612051641+612217442+612201858+611342767+609708751
3158+607840724+605910884+603672130+601238790+599405649+598850674+599177961
3148+599276259+598875370+598947745+599963561+600797994+600205233+598442905
3138+596638438+595419109+594649873+593878183+592929609+592295305+592519533
3128+593169793+593109356+591823193+589879779+588248031+587588994+587761117
3118+587972254+587785106+587506503+587365621+587214920+587148793+587417540
3108+587690936+587264831+585813686+583428546+580561885+578314763+577945524
3098+579621381+582008902+583254563+582343255+579743593+576913157+575120443
3088+574704677+575282301+576165083+576591821+576142359+575084442+574046682
3078+573298274+572714327+572309347+572035913+571295799+569572633+567440508
3068+566129129+566067800+566417848+566187967+565321475+564402394+563743097
3058+563083130+562058536+560676567+559271094+558311436+558175798+558706226
3048+559094024+558577989+557177834+555601427+554669887+554837658+555888249
3038+557043051+557628299+557562135+557001248+555753987+553484253+550424902
3028+547437554+545344108+544451061+544591980+545249901+545713124+545544794
3018+544925850+544214336+543320285+541989752+540446149+539127889+538067740
3008+537169449+536748811+537005397+537218951+536394895+534577635+532652072
2998+531136883+530071713+529699164+530230819+531122192+531455021+530984323
2988+530145687+529206002+528102822+526980712+526151969+525530310+524738871
2978+523831320+523319971+523402202+523623232+523413992+522693775+521841192
2968+521174234+520567489+519694451+518572006+517538486+516739534+516046281
2958+515390852+514734790+513868596+512739680+511829934+511741529+512397999
2948+512916935+512379813+510721696+508773893+507408995+506801729+506554144
2938+506235783+505651464+504882340+504151226+503465746+502546516+501304537
2928+500067839+499016058+497800671+496160443+494602186+493980489+494493660
2918+495393067+495691307+495060239+494046356+493412386+493224122+492782917
2908+491654521+490326555+489432429+488858822+488131836+487217069+486456053
2898+486017377+485730964+485316388+484671149+483989723+483539183+483293941
2888+482934930+482266298+481465263+480787073+480185869+479444081+478555460
2878+477694398+476850035+475771364+474346216+472860408+471732459+471082088
2868+470710914+470430043+470156684+469778444+469314404+469068344+469166269
2858+469157827+468549110+467498891+466518333+465740840+464938541+464056503
2848+463319959+462860344+462509143+462008729+461322207+460641414+460037197
2838+459283694+458271039+457346639+456816174+456340381+455337209+453821425
2828+452358453+451353236+450784314+450459668+450216435+449912690+449357344
2818+448316200+446716474+444888242+443416901+442612631+442209064+441703555
2808+440966155+440404412+440465480+440959014+441018149+439984704+438196825
2798+436574226+435643615+435270174+435023258+434514476+433650773+432718972
2788+432032451+431586448+431226210+430904278+430587666+430120687+429321103
2778+428137589+426686034+425158274+423715385+422489622+421580954+420928240
2768+420307660+419585211+418852089+418254418+417817267+417463239+417102592
2758+416670610+416116119+415409366+414588694+413727371+412845743+411939493
2748+411037222+410126733+409140930+408138874+407356212+406916978+406580022
2738+405949065+404970068+404030048+403428807+402987490+402381043+401600798
2728+400837960+400155269+399524833+398984698+398537951+398001275+397136531
2718+395934570+394677789+393674803+393000778+392531010+392097913+391591325
2708+391054649+390634383+390309774+389856853+389219202+388619374+388144064
2698+387534009+386527156+385188813+383848276+382841757+382301882+382103204
2688+381977273+381652218+380962163+379974761+378954928+378089217+377327680
2678+376538696+375692064+374886343+374270858+373885998+373559455+373074178
2668+372457540+371986247+371859349+371940352+371893119+371542104+370964257
2658+370266466+369506008+368817515+368337445+367984198+367543960+366949116
2648+366273492+365516604+364606486+363599112+362691672+362022556+361598274
2638+361390930+361324766+361209435+360894384+360437372+359960761+359464624
2628+358914038+358357204+357831016+357256776+356538196+355724702+354977037
2618+354379441+353903871+353541661+353294299+353047607+352647238+352062288
2608+351378593+350749161+350338787+350135312+349923654+349612620+349376713
2598+349302255+349144228+348613614+347760771+346956798+346523962+346419751
2588+346329672+346048131+345633518+345204066+344774167+344333185+343947135
2578+343699439+343566293+343420947+343169085+342810037+342377312+341908808
2568+341412857+340778515+339887179+338887504+338109863+337666798+337433197
2558+337377558+337538227+337731846+337677881+337373170+337046478+336828572
2548+336689289+336578086+336455428+336276313+336041521+335793825+335524334
2538+335151822+334637944+334086280+333641430+333275947+332825259+332299033
2528+331945898+331908298+332051523+332222679+332407261+332551862+332526089
2518+332340056+332163023+332066027+331921761+331615450+331233268+330955335
2508+330801436+330577653+330102306+329438174+328862930+328580608+328469368
2498+328215869+327728658+327248886+326991593+326895230+326816346+326762939
2488+326812367+326915797+326894263+326632582+326222283+325843635+325554841
2478+325318674+325141047+324987371+324687903+324163426+323632217+323380355
2468+323409997+323457230+323298198+322951869+322585755+322281824+321990464
2458+321719225+321598092+321650346+321647929+321358615+320871441+320522583
2448+320505549+320683214+320807434+320782330+320633116+320346815+319873737
2438+319251185+318653589+318310793+318337013+318603529+318820431+318792649
2428+318576453+318376250+318328682+318416046+318557374+318701603+318790417
2418+318735113+318541158+318363866+318308227+318265084+318081543+317813615
2408+317671022+317758906+317970526+318106239+318043720+317838050+317690659
2398+317765600+318010842+318224025+318270775+318138075+317840355+317426003
2388+317011241+316624782+316060770+315019366+313335884+311014342+308181841
2378+305103039+302091851+299297695+296685370+294266459+292140155+290218665
2368+288210500+286086296+284293192+283331657+283388653+284443335+286465559
2358+289517750+293759816+299273595+305965682+313453819+320667630+325996567
2348+328281810+327738179+326015646+324721710+323736800+322009506+319266285
2338+316034662+312871360+309975522+307191185+304388624+301840101+299921753
2328+298555200+297360696+296264471+295584217+295557941+296099470+297031104
2318+298223395+299442650+300391261+301005296+301499722+302089117+302828395
2308+303677147+304546410+305315868+305918132+306371722+306702914+306909532
2298+307012516+307071223+307164760+307377906+307722171+308061972+308243319
2288+308301171+308414810+308675914+308997604+309207458+309184009+308970640
2278+308744812+308612186+308514465+308397999+308333118+308381226+308474503
2268+308528858+308580815+308699903+308845118+308931570+308961360+308972499
2258+308961119+308944643+308969319+309012462+309028175+309070295+309204501
2248+309349660+309376903+309345476+309488274+309900897+310351902+310544443
2238+310493863+310468740+310646293+311013207+311509400+312095281+312737805
2228+313436450+314228075+315117887+316027037+316856040+317615643+318441485
2218+319445288+320599495+321791154+322957820+324166848+325564065+327224004
2208+329072506+330960133+332782414+334556234+336396181+338386234+340504896
2198+342681949+344833674+346863075+348751632+350613857+352563780+354570569
2188+356485235+358172733+359599964+360797983+361811568+362766055+363838664
2178+365014739+366033829+366677654+366939260+366900023+366609742+366085302
2168+365368098+364552223+363670446+362593337+361166218+359379083+357351727
2158+355240057+353116598+350907076+348510147+345867863+342928306+339791262
2148+336698438+333710718+331012424+329599958+330612316+333884775+338164163
2138+342630922+347253142+352016802+356771685+361505146+366230982+370937590
2128+375729590+380689400+385720431+390747148+395897713+401378541+407254976
2118+413380671+419548317+425665643+431723053+437752458+443982512+450852636
2108+458786701+468238746+479991691+494960267+513497535+535067412+558360715
2098+581257444+601224099+616822405+628501004+637380594+644150225+649006121
2088+651497220+650757403+646256911+637771479+625230813+609131164+590192412
2078+568907162+546184491+523382602+501388888+480721801+462074744+445898665
2068+432122827+420544310+410821510+402402540+395037879+388820990+383625869
2058+379187227+375441392+372247407+369330909+366742256+364767898+363454846
2048+362641389+362208664+362173964+362748984+364204965+366763604+370963401
2038+377832855+388305885+402786097+421338316+443731469+469153252+496226124
2028+523265746+548487066+570423430+588412492+602664905+613927367+622871187
2018+629632598+634052979+636112953+635941425+633756710+629742835+623694759
2008+615160717+604140411+591228758+576999330+561615434+545142380+527982210
1998+510856813+494516347+479404881+465316930+451592676+438040694+425288854
1988+413929880+403972178+395279401+387848167+381520671+375929682+370811101
1978+366134544+361953938+358215727+354765342+351672370+349382403+348145556
1968+347391718+346159037+344177352+342024400+340234215+338829150+337694023
1958+336844416+336206467+335546909+334759859+333968457+333323144+332893877
1948+332812539+333415491+334904125+336567821+336878595+335204448+332780517
1938+331132479+330541652+330433275+330337023+330135518+329887971+329684421
1928+329690594+330291575+331688495+333252368+334171858+334734680+335567365
1918+335936120+334635452+332262734+330639838+330596361+331509454+332277648
1908+332277462+331701326+331135975+330841566+330628717+330389538+330430486
1898+331113697+332221228+333016089+333338392+334048196+335533557+336575817
1888+335929574+334247357+332984104+332569082+332585781+332682219+332744515
1878+332776352+332896778+333331735+334579776+337394220+341817651+345944329
1868+346814131+343888112+339806139+337045697+336040554+336010541+336198136
1858+336281073+336272631+336322579+336532712+337029035+338091676+340062687
1848+343307996+347840399+352006016+352564227+348833082+344332665+342083832
1838+342024028+342546013+342964829+344389047+348020072+352779604+355634735
1828+355492812+354264333+352999369+350886175+348047370+346063343+345721848
1818+346286641+346858612+347585301+349197709+351605722+353488886+353698610
1808+352653487+351775837+352285029+354679318+358324736+361391042+362288031
1798+361584550+361660681+364456529+369433075+372811456+371021941+366003666
1788+362432074+362117804+363770603+365756156+367660556+369219223+369838799
1778+370100108+372057543+377269624+384703796+390142783+389962440+385675652
1768+380741951+377094079+376088007+378348852+382104804+384379522+384853232
1758+385201756+385707005+386367938+388939706+394819154+402036536+406199848
1748+405651010+402950001+401051626+401205451+403179288+405581871+406924714
1738+408156540+412331902+420010535+425742184+424063202+418278370+413147999
1728+409824513+408654760+409795987+412456271+416467878+423554122+434971078
1718+447577275+453761435+450632907+443725406+438478998+437095058+440140946
1708+446990725+455200641+461819609+467374262+475413208+486460739+495131944
1698+497766417+496528083+492430786+486813465+483853639+485808508+491516540
1688+499755392+511602878+526514328+536367596+534752101+528620307+525786933
1678+528448816+535392914+543021115+548543895+553635139+560331057+565686139
1668+565770415+563708917+565245269+571124568+577021013+579181552+579445613
1658+582298365+590950193+606267255+622519390+626079528+619475995+617317649
1648+621613513+624441606+619328344+610851540+605619785+605501627+610665618
1638+620530379+630605459+632011825+623650576+615279508+612725554+615001834
1628+618753472+622148961+625623260+628594355+629062896+628197594+630020582
1618+635419625+639420856+637279433+632477316+630383796+631773278+634251137
1608+635494232+635459346+635638759+636770799+638096460+638675088+638701940
1598+639033616+639888504+640686117+640996593+640986626+640903986+640755963
1588+640556169+640505812+640905474+641897227+643380580+645690482+650073150
1578+656999359+663145359+663497639+660299600+660061499+664095310+668222992
1568+668908360+668023273+668544031+671757169+679691421+695038274+714014068
1558+720376078+710897107+700524866+695609389+695636539+699061299+704121302
1548+710039318+718148445+730044281+745399911+762229819+775377379+775548089
1538+764620055+755999021+754981754+757764436+758446830+756826908+757262126
1528+761352765+767131833+773334737+781132644+789762529+794550810+793779231
1518+791221484+789059383+786825129+785198439+786396012+792342665+803593671
1508+816915139+821606647+811335865+798033737+791555838+792171583+796969609
1498+802163428+804070766+802345072+801035181+803748761+809774186+814263446
1488+813051295+807499468+801702995+798378653+798160710+800182152+803485072
1478+808201870+814999990+823686704+831674958+833739618+827984650+820331047
1468+817035789+818872761+821844377+821911842+820928197+824171684+833847250
1458+845307274+847439548+837648241+826420442+820198421+818881538+820169412
1448+821266120+820392413+818129820+816389695+816714899+820132518+826963441
1438+835173506+839499420+836967633+832142607+830018664+830474857+830669444
1428+829371454+827976096+827717539+828651720+831180086+835680875+839587639
1418+838321485+832282596+826370754+822950011+821266344+820273251+819832083
1408+820198719+821178348+821870857+821798036+822006607+823712590+826549869
1398+829226406+831028567+831468842+830042764+827846743+827168739+828535459
1388+829555925+827526597+823600568+821966365+824898186+831035931+837716599
1378+843765976+849569814+854880861+858010616+858161168+857054269+856812449
1368+858090429+860922725+865553834+871203996+874944364+873925163+868944749
1358+863510895+859978279+858132307+856829334+855821364+855381982+855156154
1348+854520027+853653163+853528646+854929880+857568779+859951799+860410596
1338+858813956+856777042+855749361+855693871+855883177+856310956+857720967
1328+860363288+863336615+865417415+866325636+866925984+868250008+870589961
1318+873467928+876274413+878868905+881431264+883716172+884853122+884299338
1308+882727617+881592824+882001115+884105643+887242316+890397064+892652070
1298+893445815+892769670+891219298+889475305+887615497+885294885+882456043
1288+879357381+876112108+872623602+868894392+865178124+861880039+859432082
1278+858030402+857246550+856304559+855111003+854476290+854960600+856102236
1268+857142339+857969184+859003783+860498889+862058931+862792500+862266461
1258+861209176+860778942+861421391+862643361+863451462+863106621+862088833
1248+861979118+863637049+865991878+867420783+867790022+868286828+869780967
1238+872174773+874978506+877845464+880609550+883174959+885434428+887133568
1228+887934230+888024755+888514867+890447347+893336397+895649051+897072303
1218+899015568+902336786+905973166+908461439+909708625+910530189+911420558
1208+912504101+914074632+916538655+919857567+923376794+926487804+929233741
1198+931903211+934387691+936410918+938313348+940898765+944012156+946071459
1188+946030772+945177446+945701030+948037933+950811243+952895167+954350181
1178+955643559+957248454+959678187+962841266+965781492+967698873+968814251
1168+969963103+971814282+974566392+977899139+980992223+982893537+983319679
1158+983105455+983652099+985817399+989180717+992354656+994241167+994912254
1148+995122164+995585944+996844809+999051020+1001586749+1003314600+1003514394
1138+1002610562+1002126028+1003607225+1007008479+1010372467+1011826588
1130+1011602471+1011340567+1012167636+1014068205+1016350733+1018412046
1121+1020248720+1022400408+1025253903+1028133655+1030020315+1030743917
1113+1030791820+1030671542+1030882196+1031729050+1032900514+1033690763
1104+1033915698+1034169123+1034865574+1036053254+1038211264+1040986136
1095+1042364088+1041584030+1040977284+1043120641+1047271011+1049966218
1087+1048907296+1045387772+1042910955+1043775438+1046973477+1050043056
1078+1052964463+1058004309+1065002892+1069340782+1067309892+1061337354
1070+1056757867+1056345931+1059780361+1065491740+1071088642+1073628612
1061+1071888189+1067863602+1064457736+1062996772+1063390855+1065106136
1053+1067460147+1069521682+1070285376+1069500111+1068292422+1067892984
1044+1068175120+1068497349+1068769741+1069239248+1070011422+1070948430
1035+1071706991+1072257503+1073014800+1073741823+1073538682+1072120860
1027+1069933320+1067198615+1064229900+1062567878+1064190254+1068568831
1018+1071754522+1070287682+1065417877+1061415977+1060449737+1061125658
1010+1061288261+1060207619+1058259369+1056215686+1055040578+1055509342
1001+1057609556+1060292044+1062264989+1062926034+1061890320+1058481106
993+1053120148+1048403349+1047130500+1049558523+1053158827+1054795633
984+1053033491+1048898147+1044806094+1042484440+1041524151+1039834309
975+1035548637+1028757732+1021582488+1016397446+1013765167+1012170983
967+1010014981+1007516741+1005940557+1005521258+1005135505+1003611241
958+1000401375+995419846+989329038+983639081+980008131+979243396+980358700
948+980828431+978855858+975431322+973106842+972989613+973836914+973682569
938+971583396+968197836+965155407+963642003+963510865+963517039+962503491
928+960407145+958149907+956854818+957185452+958948412+961156111+962908732
918+964153240+965117472+965410691+964430541+962554146+961105902+961072801
908+962247315+963553710+964022251+963287566+961650239+960046236+959273467
898+958939189+958019364+956660751+956176739+957100803+958524129+959257326
888+958556114+956250006+953101135+950160909+947601674+945536122+945232043
878+947378524+950164851+951090403+949671317+946905743+943770707+941325354
868+940493822+941206415+942668494+943986196+944310507+943383467+941996292
858+941353173+941917594+942868065+942673924+940883963+939292902+940179701
848+943543392+947192119+949118203+948849902+947111711+944809471+942320231
838+939997610+938967103+940368486+943915085+947810394+950028804+949927717
828+949126682+950181959+953627100+956925333+957238338+954700898+951921935
818+950972803+951853577+953385131+954679104+955378605+955448674+955759076
808+957470638+960171200+962328095+963397431+963624523+962554444+960063940
798+957644546+956313753+954994043+953016635+952110943+953831803+956892158
788+958728907+958515650+957398411+956685298+956894910+958025835+959703031
778+960774301+959872030+957308482+955274766+955539571+957864795+960572201
768+962009511+961767914+960840428+960474759+961001914+961691894+961452305
758+960090346+958996761+959909371+962646307+964665147+963815168+961121746
748+959604697+960467469+961704911+961310456+960403128+960837229+961700374
738+961202452+960325025+961477819+965161432+970032428+974464636+976782050
728+975498937+970857191+965567789+963041729+964752770+968992623+972039886
718+971223231+966977577+961729086+957261397+953726327+950404589+946600028
708+942300520+938868471+938368391+941208944+944898434+946558001+945898518
698+944317499+942754853+941594250+940894376+940202239+939132383+937220879
688+933118487+926211172+918836135+914278293+913242654+914057747+915395011
678+917023040+917863944+916139291+912248371+908288126+904137533+897171381
668+888083146+884149083+888205209+895068861+900145824+901710701+900130129
658+896998589+893625005+890572981+888325338+887314096+886959362+885409435
648+881553327+876833032+873623166+872440842+871720216+869930478+867187888
638+864869656+864298243+866062319+869188652+871221252+870932719+869255002
628+867201128+864526749+861722272+860563007+860764512+859283762+854902507
618+850209511+847558264+846481788+846242943+847468483+849992162+851577049
608+850615049+848268699+846611735+846702037+848823599+851811728+853827072
##END=
