##TITLE=<SNM>
##JCAMP-DX=4.24
##DATA TYPE=INFRARED SPECTRUM
##DATE=3/5/2025
##SAMPLING PROCEDURE=Instrument type and / or accessory
##ORIGIN=Admin
##XUNITS=1/CM
##YUNITS=ABSORBANCE
##RESOLUTION=4
##FIRSTX=4497.3318
##LASTX=599.83466
##DELTAX=-1.4281778
##MAXY=1.7216034
##MINY=0.18432827
##XFACTOR=1
##YFACTOR=1.6033681e-09
##NPOINTS=2730
##FIRSTY=0.20352943
##XYDATA=(X++(Y..Y))
4497+126938681+127908093+128910536+128928119+127439572+125302132+123807079
4487+123388056+123689375+124389671+125305673+125982038+125961006+125465236
4477+125227708+125612513+126332883+126972482+127279312+127025502+126169826
4467+125129363+124410089+124102785+124129514+124572394+125293693+125810226
4457+126044017+126538951+127430734+127888502+127163392+125700839+124726074
4447+124976120+126085420+127026850+126979731+125878776+124341242+123119636
4437+122509089+122238895+121963681+121701238+121615355+121675150+121774546
4427+121893096+121966739+121887306+121695596+121444417+120898414+119832134
4417+118668595+118217471+118595900+119053892+119132953+119231419+119649457
4407+119970070+119882617+119739727+119792208+119738165+119396103+118936875
4397+118279627+117198840+116115068+115909325+116867595+118341402+119402673
4387+119606195+119257748+118999301+119070230+119154988+118943492+118384107
4377+117453114+116270616+115313564+114975006+115117161+115374661+115571928
4367+115681779+115734967+115805394+115824957+115609140+115278072+115255265
4357+115673266+116247159+116776470+117263923+117591766+117635084+117551878
4347+117455679+117138505+116625467+116496917+117095317+117874303+118030223
4337+117441562+116652642+116223479+116276128+116479315+116452540+116242475
4327+116245970+116601852+116896953+116634835+115850357+115106000+114963165
4317+115568443+116637939+117653560+118210706+118358939+118471932+118719292
4307+118890267+118786466+118521616+118403010+118715416+119500210+120303703
4297+120359112+119421540+118241756+117814061+118324432+119154858+119723193
4287+119920879+119843212+119545945+119148315+118855946+118728149+118628344
4277+118480510+118344246+118257165+118291997+118677833+119500787+120403378
4267+120938711+121086174+121126518+121210486+121316508+121493032+121885020
4257+122483299+123038503+123351197+123486587+123568808+123576178+123465370
4247+123313855+123213224+123166235+123181495+123378056+123868845+124472320
4237+124696064+124286521+123670128+123488111+123827786+124264708+124496307
4227+124600600+124801826+125159939+125474780+125529613+125377216+125194233
4217+124930330+124475294+124059421+124020425+124300852+124599531+124819150
4207+125050041+125332615+125599009+125751759+125855207+126182511+126784880
4197+127230474+127173718+126836218+126557994+126386535+126384760+126751544
4187+127430836+128050212+128307080+128158976+127737053+127271227+127003207
4177+127056887+127427119+127999004+128554774+128996762+129590423+130608841
4167+131685233+132051282+131544638+130786108+130285635+130049455+130021166
4157+130193479+130371128+130401202+130475022+130827084+131374973+131863104
4147+132148931+132265594+132317109+132318131+132172184+131868123+131611423
4137+131691766+132217341+132959264+133517831+133756530+133945424+134307886
4127+134607755+134406036+133604699+132590649+131921190+131900567+132384925
4117+132996541+133532794+134047310+134518870+134680348+134356296+133787664
4107+133400034+133389309+133732989+134406965+135282112+135940197+135982789
4097+135510569+134974539+134563889+134108118+133603482+133410490+133801929
4087+134651547+135639928+136475372+136901505+136778290+136248979+135700374
4077+135522948+135884630+136630985+137347722+137569664+137088587+136205577
4067+135587028+135695848+136385976+137114627+137466718+137433196+137311077
4057+137360073+137475965+137310436+136821580+136520511+136948131+137989895
4047+138963258+139403266+139476797+139508145+139481612+139261631+138913834
4037+138559504+138279495+138293835+138803546+139598517+140211647+140452688
4027+140525857+140711721+141061320+141310669+141133913+140575169+140071861
4017+139972940+140238878+140652632+141068625+141440808+141854423+142490277
4007+143317041+143945302+144049288+143751993+143374160+143092748+143042692
3997+143347952+143827021+144065803+143939121+143677124+143396994+143045703
3987+142784356+142907869+143348723+143710850+143847969+144021733+144455096
3977+145078775+145706032+146155976+146276747+146071859+145708988+145345866
3967+145107855+145116898+145320903+145514834+145687919+145971078+146179600
3957+145987491+145623133+145794294+146868242+148517923+150009035+150613002
3947+150192808+149510653+149413711+149773496+149734435+148966072+148042180
3937+147692701+148315154+149890327+151774190+152802217+152377943+151340938
3927+151007397+151612712+152181865+151998185+151661151+152098659+153136640
3917+153601156+152729745+151095037+149876628+149649333+150246813+151629050
3907+154329984+158611044+163412038+166873611+168074278+167042422+163762818
3897+159087865+155374340+154656275+156644133+158674018+158631472+157942532
3887+158907047+160935203+161931818+162185907+163052820+163178377+160962489
3878+158681676+159302790+162374568+165648818+168249612+169878066+169545614
3868+167961174+167306138+167732011+167136957+164492966+161529681+160690817
3858+163493135+170355909+179425204+184239265+179955537+171813639+165641718
3848+162879177+163111035+165371124+168593961+172320255+176596641+180448715
3838+181613396+179500185+176202348+173290959+170814180+169036395+168740597
3828+169805985+171400145+173835010+178104612+182801257+184388447+182968710
3818+181616705+180091671+176291102+171485758+168943013+170180278+174563429
3808+179522731+182322540+183723002+186082644+188410818+187851618+185413947
3798+183844396+182863282+181173081+179477732+179160093+180195834+181837485
3788+183957332+186631509+189274441+191546964+194229636+197697677+200686928
3778+202213542+203431030+206057456+210795885+217334906+224308888+230026684
3768+234313571+238159716+242179578+247238193+254748475+264755444+274837283
3758+282704666+289559801+298683667+312023697+328104557+341805571+349964923
3748+356010376+364090657+374114578+382596272+388774772+396074869+407254996
3738+422569910+439534189+453722414+462272992+466375103+469169000+472807134
3728+477496753+481837786+484549491+486232127+488048517+489969220+492057320
3718+495504562+501280201+509401560+519320797+529360108+536851358+541022948
3708+543911232+548508658+556920500+567978359+576921167+580559227+581034653
3698+581477106+583160857+587074418+594121208+603739590+613307378+619260006
3688+620297215+618361829+615836072+614620981+616136331+620105766+624754084
3678+628279653+628044338+622043941+614928787+612502026+614260945+615605812
3668+614356484+612906598+613746708+617212760+622559218+629451919+637467367
3658+644188841+646415454+645261330+645545716+650016116+657944130+665232740
3648+666811994+663032596+659039518+658974834+662821741+666777719+667313777
3638+665120324+663332446+663528729+665225305+667832512+671619270+676673982
3628+681079846+682704081+682523041+683569656+688152546+695055061+699784940
3618+700344939+700247021+703058837+708405220+712835992+712918891+708463361
3608+703051030+700319734+700499288+701971032+704260767+708100611+713469448
3598+718916054+722417088+722325341+719150998+716186097+716223420+718332338
3588+718818508+716316357+713621715+712746178+712965062+713033166+712447963
3578+711014211+709198750+709156594+713183203+720714861+728420050+733140933
3568+733474093+729673431+724173888+720458282+719980885+721070400+721045418
3558+719126612+717063270+716927731+718845125+721363038+723493592+725459685
3548+727809420+730511422+731983315+729830011+724514631+720223041+720162669
3538+723178574+726057304+727536260+728084438+727650758+725896784+723037831
3528+720053078+718233379+718149885+719323563+720922519+722621103+724647195
3518+726533511+726618864+724238572+721187351+719756424+720002818+720254862
3508+720246238+721361626+723631658+724877232+723617235+721309879+720407055
3498+721297537+721789060+720099546+717955610+718171967+720478059+722848166
3488+725254332+728645478+731720564+732048594+728970830+724111434+720140513
3478+718895757+720422892+723430915+726218568+727615219+727903100+728776555
3468+731295063+734031564+734839146+733959891+732857737+731054023+727300945
3458+723315971+722831957+726076858+728472764+726675890+723277756+722898128
3448+726114999+729341015+730057891+729695438+730210753+730826663+729403915
3438+725340205+720326684+717187879+717890852+721927498+726834775+730371125
3428+731697219+730768968+727666743+722901325+718544903+717406095+719922595
3418+723541398+725674554+725885037+725115224+724437753+724509203+725181395
3408+725779907+726015520+726230389+726446225+725993513+724886154+724773812
3398+727285108+731497591+734508068+734806729+733453721+732049932+731017592
3388+730015363+729130161+728826221+729136778+729384361+728674176+726520575
3378+723329875+720412706+718852709+718297617+717881335+718230926+720516349
3368+723683182+725255224+725086079+725738569+728636035+732331046+734928960
3358+736073864+736102786+735096320+733220487+731339599+730879525+732446808
3348+734780261+736169552+736684049+737774828+740068949+742462848+743206267
3338+741221587+736910220+732488072+730637146+732200340+735504572+737903749
3328+738073266+736761967+735313717+734257660+733497290+732601381+730989413
3318+728777894+727226670+727423249+728638637+729113209+728503099+728134103
3308+728701091+728963693+727531651+725284592+724470318+726025631+729052614
3298+731939672+733310152+733233424+733429780+735128141+737296762+737723973
3288+735629627+732957291+732764503+735834385+739306423+740047537+738497651
3278+737041074+736322935+735632081+735391487+736205983+736651038+735077212
3268+732529113+731434097+732849410+736458622+741089840+744296153+744194741
3258+742242105+741283371+741363891+740307685+737633415+735087918+734070597
3248+734606432+736033270+737356836+737502635+736163827+734416693+733845244
3238+734717436+735943233+736219663+734591711+731333576+728658637+728710161
3228+730796180+732620711+733806137+735426654+736869179+736412525+734255281
3218+731903018+729409788+726086970+722993593+721932480+722713296+723704075
3208+724429426+725499015+726444813+725815446+723216938+719791220+717028400
3198+715897324+716649590+718852560+721578280+723869502+725220577+725604814
3188+725453142+725551060+726173884+726564292+725933661+724660430+723840729
3178+723736491+723096344+720567947+716977248+714920449+715731971+717958064
3168+719299697+719216574+718465275+717029738+714196212+710591015+708584774
3158+709837336+713098817+715370188+715138144+713454876+711951458+710943059
3148+709599418+707561876+705692883+704734447+704161660+703361438+703062182
3138+704077868+705393330+705026045+702331477+698375946+694843760+693210083
3128+693882721+695625394+696646953+696437809+695724799+695161900+695116993
3118+695704279+696108887+695290302+693823911+693204655+693205101+692042353
3108+689346670+686751657+685415526+684906307+684626159+684887943+685983852
3098+687112251+687207715+686239985+684850545+683542816+682919099+683683931
3088+685632179+687342585+687459313+685789503+682926460+679683864+677212270
3078+676531008+677362382+678328699+678576208+678121711+676845282+674732052
3068+672570793+670984848+669653326+668477343+668113850+668584704+668885521
3058+668551767+668268348+668529760+668783960+668257939+667050209+665929096
3048+665192294+664240549+662578247+660713270+659413198+658646359+657848665
3038+656720935+655445399+654623616+654947184+656268817+657273425+656709411
3028+654532984+651561615+648900505+647691213+648262216+649599388+650396487
3018+650240576+649404296+648295822+647160657+645664823+643431296+641236356
3008+640402901+640925799+641497620+641281338+640472343+639477549+638648555
2998+638334726+638325804+637705062+636007668+634174511+633505368+633814661
2988+633533397+631866561+629903665+629254075+630237493+631643364+631873178
2978+630260467+627615491+625486648+624690961+624663229+624350219+623472339
2968+622567099+622073755+622026208+622451263+623193790+623392525+622098699
2958+619536250+617040456+615711574+615428489+615036259+613476411+610795710
2948+607977463+605936983+604963082+604917766+605329847+605383750+604624458
2938+603706728+603611375+604076727+603707583+601820523+599302907+597431647
2928+596633545+596451240+596122988+595122209+593300168+590742999+587924826
2918+585755202+584775947+584578104+584557026+584717062+585185166+585592711
2908+585533604+585080965+584348253+583018664+580826475+578343655+576723063
2898+576406410+576524997+576001801+574872026+573981545+573712289+573613999
2888+573147569+572250284+571123483+569892482+568621592+567446874+566518957
2878+565794721+565047473+564176471+563360785+562752496+562284170+561898743
2868+561459004+560471906+558741798+557131020+556676597+557087860+556954961
2858+555500429+553575934+552627832+552961363+553478425+553121920+551869246
2848+550001109+547485872+544717030+542756848+542208782+542623093+543224654
2838+543509486+543075992+541695958+539806668+538265927+537347788+536450838
2828+534951027+532952369+531106685+529990479+529684123+529789178+529799996
2818+529421633+528533270+527102232+525291975+523447221+521858488+520643583
2808+519811540+519247489+518715297+518099350+517531433+517088014+516573926
2798+515842663+515088910+514542034+514003038+513030921+511579958+510092823
2788+508918179+507988515+507135729+506328072+505451866+504201794+502430087
2778+500469236+498923366+498142177+497942698+497814446+497351807+496489876
2768+495413410+494329955+493273116+492119476+490889181+489818662+488935244
2758+487857068+486295770+484538821+483180869+482444104+481904403+480962509
2748+479557456+478210247+477333520+476767796+476036273+474879881+473550293
2738+472575685+472145054+471838103+471101971+469865542+468553574+467552163
2728+466757964+465766070+464443359+463024663+461679275+460399984+459254410
2718+458303780+457355046+456137837+454690813+453387061+452529665+451966060
2708+451266842+450297476+449311084+448501123+447868708+447406330+446927446
2698+445935961+444215109+442398756+441432698+441426118+441403293+440410544
2688+438653930+437204045+436722782+436818618+436603823+435675758+434432675
2678+433407993+432553459+431472644+430089338+428677519+427481573+426619679
2668+426095368+425737748+425361243+424949645+424485408+423801729+422784594
2658+421548946+420384524+419607277+419311552+419209322+418869620+418072447
2648+416833230+415309478+413832121+412799669+412396956+412487588+412745803
2638+412815097+412444986+411629560+410602090+409599118+408636815+407613174
2628+406592990+405810724+405335111+404897826+404174296+403154447+402137014
2618+401378242+400837276+400311144+399755122+399319287+399105347+399070588
2608+399120588+399098395+398771072+398037654+397069514+396090148+395149184
2598+394253609+393566993+393278444+393317812+393360339+393144987+392703426
2588+392258929+391997443+391966253+392066810+392059190+391666291+390772947
2578+389519455+388209160+387129460+386422361+386076674+385998830+386067417
2568+386149982+386117008+385890280+385513626+385144742+384902215+384750319
2558+384624446+384591621+384738795+384964408+385023256+384748907+384169205
2548+383468872+382870100+382501216+382355975+382349655+382382294+382361514
2538+382182443+381750697+381165419+380813561+380975977+381393188+381581366
2528+381454303+381278505+381208653+381176572+381049881+380731480+380282001
2518+379940477+379845162+379836426+379683192+379374754+379095944+379016241
2508+379118546+379160962+378836539+378074087+377180223+376590187+376454127
2498+376558960+376650484+376660819+376591822+376379332+375995058+375597921
2488+375449074+375629036+375902195+375940039+375610895+374999892+374312533
2478+373810415+373625955+373592237+373437665+373127257+372825138+372613800
2468+372472574+372440976+372560381+372670232+372485213+371945177+371315216
2458+370862689+370605217+370457634+370438600+370585812+370787559+370853060
2448+370713321+370436890+370088266+369705665+369383026+369204365+369104737
2438+368930388+368624477+368281430+368049200+367979126+367949051+367812881
2428+367617528+367518532+367519387+367472770+367282770+366972808+366623701
2418+366291285+365940282+365546974+365290767+365420506+365869204+366237233
2408+366230096+365946342+365695487+365660543+365798312+366006007+366265932
2398+366550021+366689983+366529798+366180430+365930988+365880022+365820059
2388+365544372+365090284+364554671+363796718+362447910+360164308+356887698
2378+352993467+349116672+345617274+342288693+338786507+335162462+331766446
2368+328912251+326872069+325859209+325770807+326254896+327230990+329134630
2358+332500757+337364613+343302892+350086187+357603681+364947050+370480347
2348+372935473+372210827+369579531+366841656+364661511+362399248+359443194
2338+355826808+351895403+347973254+344340511+341291595+339072417+337716174
2328+336974243+336442236+335851308+335365770+335470640+336390601+337793981
2318+339181562+340299329+341119030+341748471+342439845+343438951+344755380
2308+346151288+347322029+348104890+348611989+349115148+349715035+350220127
2298+350429123+350406261+350416632+350689643+351227411+351750570+351923990
2288+351745329+351594288+351792726+352234844+352540457+352471610+352118451
2278+351756146+351603507+351669604+351765998+351690087+351416630+351058490
2268+350667673+350211317+349748046+349441021+349342657+349336634+349336411
2258+349385965+349523995+349684143+349777117+349785035+349762656+349811243
2248+350037451+350465517+350974661+351354586+351448786+351283508+351074401
2238+351047598+351235144+351506853+351767076+351999566+352168079+352233766
2228+352240792+352265960+352362019+352621870+353133244+353771161+354215175
2218+354284097+354115287+353970677+354032053+354403911+355102497+355947885
2208+356613460+356905318+356956025+357075244+357420671+357874164+358241152
2198+358488698+358753159+359180333+359780889+360409587+360929846+361400291
2188+361968208+362609136+363180957+363693112+364268724+364872477+365331101
2178+365638201+366045747+366769314+367686115+368449905+368936633+369426446
2168+370236073+371340160+372520790+373728185+375088554+376674908+378496317
2158+380650885+383297311+386475446+390026443+393644874+397031596+400092371
2148+402904261+405458420+407698824+409819043+412114801+414552454+416897431
2138+419172370+421631771+424449609+427635030+431024726+434321151+437384416
2128+440398574+443565110+446801126+449826734+452356580+454185387+455209028
2118+455373042+454641743+453070891+450829111+448101049+445075368+442003850
2108+439090361+436297318+433419666+430400081+427433135+424682211+422034038
2098+419238393+416171967+412877216+409456144+406001318+402570061+399202670
2088+395967695+392950526+390216963+387839161+385880317+384271250+382789728
2078+381286163+379895905+378905126+378398919+378142228+377846838+377450928
2068+377048141+376635056+376081117+375363275+374694242+374293388+374086251
2058+373782274+373267331+372753689+372471868+372381905+372300939+372157742
2048+371978820+371796256+371746516+372060084+372758633+373584319+374403462
2038+375414167+376796283+378426689+380070775+381631924+383105639+384427197
2028+385458348+386096488+386321915+386117491+385475299+384550357+383597422
2018+382639543+381416460+379776835+377913307+376137957+374611715+373305658
2008+372111831+371002428+370067449+369305852+368495556+367468309+366409649
1998+365692550+365518201+365806007+366236415+366365300+365930951+365036566
1988+363910323+362746645+361841889+361451257+361411034+361273079+360845199
1978+360292375+359782822+359347804+359031039+358943158+359153455+359567804
1968+359893974+359826539+359352934+358743493+358218810+357812529+357509295
1958+357285355+357061155+356801713+356576509+356408851+356225729+356028443
1948+356010041+356466174+357463273+358429033+358426654+357287437+355926956
1938+355140341+354865285+354757702+354733650+354781085+354771048+354629524
1928+354539635+354908817+355923722+357129742+357932045+358428810+358938251
1918+359024757+358095651+356647215+355782198+355906324+356491193+356736769
1908+356350561+355757886+355480266+355492756+355426622+355178668+355037627
1898+355302162+355883610+356362866+356631750+357140411+358010446+358446170
1888+357783830+356524762+355532979+355053686+354920750+354952534+354958110
1878+354825360+354650304+354675211+355328519+357180597+360240665+363098317
1868+363637275+361522670+358661560+356770300+356065580+355965469+355992383
1858+355965729+355918703+356023350+356384316+356946359+357657176+358651412
1848+360315163+362869879+365374521+365797643+363609915+360838954+359321113
1838+359154050+359540072+360115052+361446127+364067795+367074815+368561838
1828+368181319+367372658+366676526+365401361+363632220+362427798+362263858
1818+362657017+363099098+363756792+365104633+367025298+368593325+369051614
1808+368723845+368564292+369302655+371165328+373744096+375981526+376944535
1798+376948699+377459776+379733340+383441623+386203142+385794555+383385638
1788+381865083+382419506+384311733+386512435+388676445+390581423+391874357
1778+392969560+395236209+399746089+405806189+410483243+411252051+409226145
1768+406968454+405880538+406723547+409648895+413211155+415350296+416116020
1758+416965200+418203822+419742592+422631397+427709119+433544907+437205569
1748+437780661+437112484+437102484+438441998+440902439+443507861+445209903
1738+446761758+450524279+457065084+462510909+462735667+459881770+457451068
1728+456343189+456709508+458644895+461701878+465758264+471845129+480733216
1718+490388884+495821996+494955864+491372600+488864017+488893906+491655871
1708+496801399+503106406+508885279+514329952+521522020+530497467+537264851
1698+539533248+539464735+538169385+536313552+536306600+539527077+545114724
1688+552272108+561973910+574057455+582937847+583937287+581539708+581199449
1678+584577658+590947533+598067222+604171708+610092775+616889676+622788289
1668+625514603+626892890+630306192+636149377+641756058+645052780+647616790
1658+652524735+661735498+675605582+690384809+697010596+696195579+697445911
1648+702868725+707934143+708350573+706380094+706137195+708929829+714673237
1638+722635378+729765847+730793800+725601394+720375382+718537616+719254418
1628+720525047+721597536+722853667+723523183+722059468+719500663+718476427
1618+718701482+716355762+709762615+702543150+697459740+693992089+690783842
1608+687382362+684276643+681985570+680417469+679083642+677760373+676709446
1598+676220823+676172347+676084689+675425954+673908931+671783880+669781579
1588+668428347+667546193+666675116+665706271+665054971+665663817+668584258
1578+673626924+677876433+677891005+675689151+676038964+679936949+684385565
1568+686539687+687533811+689876929+694914763+704104113+719351369+738303079
1558+749340901+749115846+748446331+752304910+759096793+766274400+772763606
1548+779139058+786868634+796817908+808300711+819559202+827216956+826762831
1538+820854812+817298760+818325152+820968269+821901502+821924476+823951461
1528+828576433+834381552+840474699+846885319+852469769+855523071+857109016
1518+859045815+860168564+859070722+857681134+859262543+865232346+874835747
1508+884757660+887754829+880646367+871876273+868123344+869712783+874530097
1498+879252392+880762947+879505552+879244586+882403464+887835052+891592591
1488+890628429+886607173+883529038+883402793+885275875+887196763+888881221
1478+891713483+896469384+902172199+906314198+906223863+902567885+899424026
1468+899295104+901348334+903082531+903162903+903292419+906074347+912039763
1458+918044063+918349341+912627048+906758360+904080596+904434871+905884459
1448+905761262+903152048+900130195+898931387+899678226+901641939+904751524
1438+908507428+910650026+909806756+908294863+908490179+909766607+910139172
1428+909236646+908447502+908619100+909582593+911460359+914510539+917199009
1418+916699679+913100504+909304750+906985275+906053529+905929961+906039775
1408+905882228+904938959+902704242+899638746+897604550+898133024+900778893
1398+903619705+905036579+904447733+902064615+898992130+896507080+894693031
1388+892263742+888250739+884033275+882333799+884266137+888432895+892607979
1378+895933252+899057632+902250711+904565279+905553530+906381112+908137986
1368+910554264+913161768+916318044+919921160+922261081+921907104+920082870
1358+919137964+919681681+920508965+920620341+920292237+920231345+920806214
1348+922194464+924476392+927436387+930587830+933502174+936049232+938122537
1338+939166252+938611904+936914063+935416222+935228267+936553766+938571755
1328+939922087+940127886+940240599+941241415+942703197+943944681+945178359
1318+946490475+947225716+947193671+947178132+947757834+948518650+948701029
1308+948121996+947352704+947161478+947670027+948084301+947581923+946411814
1298+945499474+945024307+944275238+942903791+941281861+939648779+937983578
1288+936576666+935671835+934654737+932486563+928948651+924889551+921306882
1278+918567780+916495962+914894255+913640354+912383480+910722368+908754936
1268+906902003+905251077+903424092+901005361+897864400+894211025+890661664
1258+887956762+886209256+884688664+882643836+880233431+878348825+877658418
1248+878134179+879186147+880011573+880174695+880018636+880241759+880993430
1238+881733503+882147628+882555062+883153723+883690599+884178777+885125020
1228+886710296+888468136+890033263+891689394+893854445+896235482+897949902
1218+898683730+899323134+901074357+904120894+907336947+909354266+909892927
1208+909852406+910232108+911423258+913398645+915887487+918333356+920313427
1198+921953944+923573495+925274532+927094231+929052815+931022104+932940837
1188+935001502+937420977+940209150+943068772+945356574+946492111+946649806
1178+946707278+947428392+949144448+952039238+955956851+959910969+962502265
1168+962949699+961592527+959591193+958487403+959511714+962338251+965253487
1158+967239803+969148869+972230871+976112350+978891824+979288998+978377327
1148+978493386+980577397+983504454+985964152+987823554+989498866+991301763
1138+993394323+995471717+996617440+996350451+995809858+996756101+999397434
1128+1002150589+1003597649+1003911849+1004380101+1006292588+1010070647
1120+1014646847+1017837621+1018531820+1018294200+1019144236+1020378508
1111+1019915758+1018201040+1017542603+1018382676+1019206838+1019307284
1103+1019226168+1019547060+1021172410+1025254855+1031214175+1036069035
1094+1037166207+1035042494+1032577146+1031858039+1032427406+1032454618
1085+1031443988+1031186368+1033785768+1038992003+1044062699+1046639423
1077+1046661356+1045224556+1043691473+1043689615+1045791395+1048804028
1068+1051302090+1052454207+1051488781+1048902690+1047542544+1049656294
1060+1054095022+1058194790+1060784599+1062217459+1062577087+1061443557
1051+1059310476+1057860888+1058635013+1061781698+1065670389+1067530088
1043+1065791504+1061944002+1058855384+1058278210+1060520734+1064963179
1034+1070065325+1073572530+1073741823+1070597740+1065960723+1062152998
1025+1060331069+1060180214+1060909060+1061787200+1061930917+1060904971
1017+1059749509+1060425492+1063480133+1066747190+1067556036+1066069794
1008+1064670019+1064202511+1063413665+1061592033+1059137837+1055916802
1000+1051627740+1047453994+1045246786+1045380541+1046383290+1046267602
991+1043900990+1039856388+1036301971+1035301230+1036490372+1036710372
983+1033024208+1026279091+1020251966+1017441860+1017195689+1017445428
974+1016930337+1015436957+1012967519+1009842990+1006618833+1003126944+998996171
964+995101012+992734250+991740944+990895667+989343699+986686753+982691891
954+977498444+971771541+966519432+962764718+961043978+960821674+960730819
944+959657141+957546513+954998191+952324070+949705116+947973893+947888911
934+948817088+949664521+950652921+952549943+954792392+955741981+954473136
924+951730316+949295154+948452628+949044225+949775227+949550618+948694040
914+948267647+948176792+947142816+944960739+943074125+942206915+941291601
904+939623203+938303577+938409599+939277479+939792347+940265729+941521117
894+942713308+941919332+938902535+935542096+933405966+932346860+931522327
884+930734596+930545302+931296602+932168348+931767382+929822553+927570661
874+926299065+926172746+926307987+925797728+925123529+925858323+928192668
864+929934374+929125974+926599437+924671039+924377285+924937879+925098622
854+924425612+923507621+923104574+923282268+923488885+923357956+923006879
844+922545690+922029557+921990821+923143681+925399662+927891330+929978984
834+931553553+932508496+932886933+933208792+933761133+934007303+933410501
824+932220318+930880320+929580174+929071253+930616529+933963437+936576146
814+936619937+935702318+936359417+937668485+935908786+930231846+925040034
804+924984570+929725750+934762320+936655030+936091388+935543731+935991834
794+936719863+936906256+936688487+937164620+939529597+943623938+947207723
784+947669804+944994196+941942603+940779260+940961490+940546398+938976215
774+937275103+935924697+934348046+932253775+930600247+931068721+934291912
764+938868334+942195168+942764981+941671972+940820375+940824910+941250932
754+941344984+940277774+938051459+936133990+935928117+937004918+937832203
744+937666924+936916591+936119790+935395404+934845591+935169531+937042985
734+939805507+941650039+941673682+941093311+941304092+941646396+940654204
724+938711978+937707073+938576216+940219261+940513238+938568038+936124399
714+935745218+937833838+940859483+943586838+944927430+943528474+939853016
704+935947968+932198608+927511182+922177066+917779157+915214775+914832545
694+916977522+920957663+924611485+925776687+924098772+920590675+915724514
684+908872706+900031534+891809691+887935052+888935645+890811700+889445383
674+885599964+881895956+877310091+869664679+862969599+865553609+874960951
664+881792759+882967255+880905029+877591652+872515826+866233608+861951460
654+861864174+864585135+866731674+865569892+860681648+854200992+849366578
644+847660113+847799146+848088588+848777434+850719214+852454230+851928506
634+850378323+850160256+850647690+849453046+846154837+842434696+839723771
624+838321990+837411137+835766902+833704155+832589734+831257543+826524913
614+819805372+817289020+821765220+828963198+832430403+829812490+823001946
604+814431331+806351495+802660425+806751271
##END=
