##TITLE=<SNM>
##JCAMP-DX=4.24
##DATA TYPE=INFRARED SPECTRUM
##DATE=2/5/2025
##SAMPLING PROCEDURE=Instrument type and / or accessory
##ORIGIN=Admin
##XUNITS=1/CM
##YUNITS=ABSORBANCE
##RESOLUTION=4
##FIRSTX=4497.3318
##LASTX=599.83466
##DELTAX=-1.4281778
##MAXY=1.7694007
##MINY=0.3072418
##XFACTOR=1
##YFACTOR=1.6478828e-09
##NPOINTS=2730
##FIRSTY=0.32403672
##XYDATA=(X++(Y..Y))
4497+196638202+197207254+198545325+199618845+200064248+199831853+198785207
4487+197241019+196198026+196401123+197530563+198674073+199361565+199771810
4477+200171819+200587110+200895553+200991676+200911541+200771886+200552730
4467+200189561+199897973+199902711+199859885+199263199+198411386+198218398
4457+199014708+200025745+200154566+199047533+197234002+195583364+194947759
4447+195733598+197289487+198322442+198405942+198369084+198929925+199795990
4437+200247053+199918481+199019971+198175916+197935129+198298986+198731548
4427+198533190+197431384+196033270+195225530+194924031+194081513+192225101
4417+190461973+190527387+192928833+196224774+198306166+198244043+196617061
4407+194569651+193152945+192928164+193559899+194121752+193967250+193165858
4397+192321061+192056619+192350721+192475220+191969195+191314619+191175381
4387+191463985+191657442+191570109+191454888+191630875+192167681+192718520
4377+192728702+192026055+190984238+189993638+189225324+188938601+189388453
4367+190318883+191042653+191063632+190347458+189129617+187839851+187153554
4357+187595990+188921890+190274791+191113113+191544410+191762120+191782845
4347+191576728+190933563+189670220+188308277+187772701+188181861+188769595
4337+189024867+189094387+189106667+188815097+188011553+186989087+186446385
4327+186808885+187625614+187921832+187377286+186789353+186995923+187753766
4317+188252701+188321316+188282343+188123373+187794855+187816033+188611096
4307+189649133+190066974+189850639+189736141+190099817+190506445+190366646
4297+189667309+188921818+188613628+188809093+189163762+189266992+189040927
4287+188680000+188237310+187618977+187015762+186889871+187359598+187938778
4277+188113354+187897164+187638726+187603261+187850522+188205155+188362677
4267+188292832+188376368+188912414+189709700+190382489+190874135+191342760
4257+191533414+190894011+189558508+188499293+188437658+189306111+190724191
4247+192093423+192559859+191949519+191195437+191022127+191072693+190876197
4237+190591065+190373338+190015105+189460106+188950935+188608184+188420839
4227+188623484+189553842+190961885+191852962+191459120+190209992+189296272
4217+189332497+189840945+190053229+189873770+189820563+190190695+190642500
4207+190652483+190127523+189445530+189062720+189176168+189659550+190249002
4197+190792028+191213541+191240560+190547317+189381852+188557256+188478151
4187+188696729+188741002+188761257+188999060+189242668+189229086+189142385
4177+189368414+189963816+190552544+190780779+190776041+190995777+191709257
4167+192767441+193696026+193910589+193145476+191807495+190741227+190644905
4157+191544627+192576045+192607242+191435591+189978899+189125566+189016747
4147+189463127+190228240+190837079+190874316+190523445+190291629+190352449
4137+190541783+190702941+190694585+190415802+190113634+190291249+191090218
4127+192041681+192548248+192356346+191596079+190716939+190291285+190560483
4117+191218297+191735498+191767762+191298903+190590921+189932908+189357762
4107+188820649+188634733+189288532+190697841+192031173+192536312+192298256
4097+191889675+191546815+191110690+190546250+189981901+189386952+188758309
4087+188464678+188867616+189705251+190261770+190150293+189730354+189691308
4077+190290489+191067647+191293242+190663262+189586395+188776847+188550094
4067+188692769+188996112+189457882+189905202+190002808+189708995+189245272
4057+188793793+188627571+189070297+189962134+190685036+190905151+190767342
4047+190420847+189946725+189600086+189618659+189907734+190127035+189954629
4037+189295531+188415287+187807515+187834317+188505948+189500527+190329390
4027+190678869+190715383+190882418+191304708+191609462+191471237+191096746
4017+190921338+190974490+190904157+190552454+190147507+189961374+190052488
4007+190287053+190510532+190806008+191443205+192379350+193137736+193402015
3997+193347199+193239863+193112109+192953465+192870527+192907095+192937189
3987+192837973+192602775+192212640+191601631+190885800+190448391+190648124
3977+191532962+192828894+194037204+194595676+194195866+193092703+192057994
3967+191870758+192762992+194423468+196398736+198187834+199189665+199129911
3957+198364762+197336400+196174461+195220448+195262423+196615975+198386952
3947+199340351+199362089+199352215+199780419+200020355+199359630+198104769
3937+197196095+197297698+198530911+200424849+201744256+201310374+199604449
3927+198451589+198821486+199791794+200082388+199933872+200467548+201870039
3917+203029302+202752272+201046945+199090377+198045594+198099000+198834381
3907+200337461+203113289+206807666+209941907+211391093+211082270+209210793
3897+206262776+203518670+202402486+203313167+204990228+205727707+205894507
3887+207042520+208939117+209914091+210008677+210419447+210301585+208359992
3878+206246427+206382374+208623132+211372845+214069713+216345141+216701818
3868+215028682+213445013+213051099+212793512+211678033+210267115+209666378
3858+210879607+215005858+221973569+227331514+225600180+219321227+213640135
3848+210617643+210370382+212279331+215468026+219200996+222879150+225407319
3838+225303275+222595013+219263408+216894046+215595726+214998932+215115274
3828+215777175+216417283+217462681+220408510+224926180+227682494+227297514
3818+226290963+225620345+223508678+219750479+216611157+216079288+218681969
3808+222966176+226236382+227992022+230093543+232715411+233754642+233040873
3798+232563459+232695210+232498371+232148259+232700093+234431373+236834157
3788+239652902+242978773+246532410+249968783+253773135+258623284+264156294
3778+269647744+275504226+282771320+292251664+304514112+318951940+332846380
3768+343786383+352129673+359170864+365465171+371508998+377948060+384951308
3758+392068710+398892986+405945317+414805990+426719628+440020294+451328475
3748+461026204+472422569+486134963+497289926+503418935+509152962+518130139
3738+529170189+538048512+542021401+542418661+542272713+543542043+546306260
3728+549477069+551848186+552633555+551294706+547498871+541986207+537144866
3718+535524612+537784360+542511511+547117599+548620842+545846244+540989205
3708+536493799+533212778+531772399+532749037+535571488+538755898+541677746
3698+544859225+548831246+553550620+558611154+563672411+567931986+569647912
3688+568583778+567254731+567326095+568641578+570649290+573046414+576162353
3678+580405073+583919067+582980987+578398084+574802995+573086238+569913620
3668+564090830+558201921+553951497+550655285+547303623+544213511+541963601
3658+540056261+538172215+538143894+542431502+550972463+559614739+561485763
3648+554989408+546319028+540535990+538293169+537948863+537518001+536305423
3638+535322166+535607333+536944301+539163177+543298290+549477322+553898471
3628+552512673+548553421+547259351+550178233+556199996+562384454+565607710
3618+566461115+568409291+572190332+575520327+577555963+579963323+583158620
3608+585232524+585210569+584140864+583326812+583930207+586716416+591123640
3598+595638868+599045183+600664461+600690793+601177466+604794655+611460830
3588+616950635+617452608+614842766+613213071+614049983+616747863+620290179
3578+623068575+623319887+621313586+619330794+619069861+620748965+623730350
3568+626085696+625482952+622557270+620510312+620982047+622637351+623183887
3558+621554408+618501262+615962893+615584839+617347859+619727005+620997745
3548+620235489+617853666+615105002+612653659+610709498+610143069+611220369
3538+611749036+609486576+606110101+605196798+607281553+609741215+610323270
3528+608965794+606907045+605441455+605064812+605099174+604561428+603238096
3518+601393404+599217897+597314463+596739643+597733534+599207443+600158979
3508+600844626+601629235+601599033+599772679+597158533+595723651+595604578
3498+595232059+593868252+592298636+591032454+589659605+588164862+587056057
3488+586458847+586240450+586387844+586755661+586740976+585731712+583988442
3478+582630206+582453911+582749243+581931791+579800990+578003030+577858927
3468+579006651+580400226+581447215+581819807+581161722+579332149+576697096
3458+574153193+572766636+572844655+573198257+572147687+569713742+567777141
3448+567353295+567092868+565703526+564114486+563643113+563909255+563892942
3438+563539304+563328141+563361453+563503459+563764754+564224191+564617110
3428+564140167+562294968+559817040+557909483+556999978+556967967+557761510
3418+559041546+560046180+560401844+560369507+560092622+559339735+558194543
3408+557382950+557522206+558269488+558353258+556643012+553439396+550373228
3398+548704866+548099518+547649558+547402803+547973066+549303306+550504056
3388+550589238+549083245+546601555+544804608+544942200+546355922+547054807
3378+545973419+544036565+542854225+543011639+544036348+545468842+547091411
3368+548215155+547877250+546239091+544767135+544442759+544767280+544974537
3358+545170399+545719937+546373211+546667205+546638738+546587449+546516482
3348+546154742+545343873+544371033+543761235+543591813+543576766+543889894
3338+545000796+546537678+547258013+546463276+544672911+542734646+541147089
3328+540415036+541115983+543080472+545061707+545748005+544768835+542557990
3318+540046206+538417017+538118502+538394736+538517064+538731844+539334010
3308+539913786+540140177+540248833+540495841+540982080+541845938+542910217
3298+543528225+543467170+543387812+543930441+544858538+545504831+545552757
3288+544896842+543597419+542588843+543144674+544804282+545364092+543950588
3278+542441955+542761593+544337394+545232830+544920679+544800159+546074841
3268+547983772+548509329+546646045+543459031+540891400+539983920+540362444
3258+541100429+541622911+541832157+541915205+542188219+542719454+543042637
3248+542612607+541473925+540115870+538868135+537837639+537256561+537374983
3238+537868348+537866358+536897424+535413279+534226455+533831690+534284146
3228+535220816+536006402+536167722+535555176+534229348+532575021+531265723
3218+530732571+530817861+530985619+530722443+529924921+528984924+528288064
3208+527718814+526935398+525970299+525199181+524846809+524767342+524599150
3198+523866373+522072247+519253448+516460439+515076631+515503767+516834189
3188+517732952+517343649+515676409+513639543+512515113+512941888+514304609
3178+515264572+515021145+513987828+513071052+512533740+511867662+510518360
3168+508470390+506225941+504267927+502597432+501032735+499714358+498818019
3158+497987545+496680671+495022401+493732817+493357114+493957869+495249660
3148+496593428+497077244+496205826+494491817+492806166+491345604+489924721
3138+488912165+488889559+489553576+489856141+489218420+487964717+486631764
3128+485442263+484492246+483962241+483845591+483732341+483159583+482024446
3118+480490566+478800068+477364608+476675380+476881154+477612520+478353797
3108+478873277+479105636+478723821+477319757+475122077+472984730+471532812
3098+470807088+470664179+470893500+471042015+470768929+470359841+470392720
3088+470877910+471105422+470527093+469518299+468863289+468697556+468458506
3078+467752386+466766416+465885630+465320539+465083985+464977933+464612431
3068+463723144+462485247+461325623+460416407+459589478+458830188+458563214
3058+459203359+460503613+461538377+461463107+460289448+458790726+457684779
3048+457069483+456613230+456029981+455176287+453908477+452253787+450724718
3038+449989084+449990133+449850913+449019644+448024414+447588488+447510903
3028+447110387+446357717+445758915+445403685+444952531+444388851+443975749
3018+443570386+442787007+441784652+441110109+440811088+440404967+439662171
3008+438840125+438241830+437963643+437920419+437849163+437457257+436661905
2998+435578998+434442523+433608433+433253854+433042365+432540392+431816332
2988+431110285+430297608+429255827+428306425+427838958+427875491+428155377
2978+428313008+428018255+427231404+426250895+425398069+424804982+424482450
2968+424323264+424042003+423354186+422288785+421206349+420439319+419995073
2958+419657892+419207534+418463219+417388017+416271471+415528458+415222348
2948+415022470+414661344+414198254+413783379+413347670+412687198+411850829
2938+411192165+410853972+410480982+409756922+408974194+408680743+408900261
2928+409032754+408510670+407326558+405867515+404460123+403238864+402278069
2918+401631016+401322374+401385853+401733053+401983461+401731353+401023606
2908+400303561+399917695+399870022+399903914+399662512+398941093+397924704
2898+397049162+396579959+396391366+396150616+395692915+395174593+394806197
2888+394551702+394263351+393973770+393821891+393794654+393690701+393241247
2878+392268226+390914692+389668078+388913454+388516519+388082293+387515936
2868+387058344+386860854+386769523+386508192+385961186+385268269+384629608
2858+384086798+383623129+383319695+383194690+383090845+382895705+382563263
2848+381909374+380896782+380015092+379746779+379840063+379699794+379240285
2838+378791590+378440846+377958187+377174193+376153138+375161308+374508649
2828+374217441+373929488+373349857+372621058+372067072+371778070+371609769
2818+371389563+371000261+370396504+369604227+368685787+367767275+367056453
2808+366644219+366299442+365680385+364790520+364012566+363618526+363459593
2798+363241919+362880070+362416835+361816370+361045939+360206640+359423044
2788+358721374+358101304+357599982+357226269+356934048+356669606+356337886
2778+355762451+354865822+353893163+353237248+353008759+352964595+352832682
2768+352483890+351841069+350915070+349951489+349272751+348904898+348547172
2758+348002915+347482495+347299545+347348158+347129580+346352060+345288396
2748+344418063+343901766+343574966+343270484+342885920+342292290+341492634
2738+340761557+340320965+339958791+339239433+338073949+336894033+336212329
2728+336080054+336081645+335899093+335660730+335576272+335517278+335214350
2718+334646511+334028828+333543746+333159363+332658764+331912242+331090993
2708+330426795+329868179+329250966+328654805+328287024+328157353+328108776
2698+328006124+327750653+327305033+326784215+326330276+325867366+325164466
2688+324189637+323254812+322687334+322421481+322098117+321568835+321050296
2678+320742088+320584493+320440535+320244093+319936066+319451635+318774199
2668+317964958+317229793+316867185+316955332+317156584+316999713+316311607
2658+315296086+314292826+313543013+313119963+312982914+313045344+313177402
2648+313178234+312856606+312215341+311472364+310799557+310154313+309490332
2638+308954106+308713210+308761570+309004527+309330640+309513698+309279025
2628+308586722+307712664+306984915+306515241+306188116+305849741+305491871
2618+305215095+305014349+304723683+304249778+303723607+303317124+303050728
2608+302874795+302782036+302731741+302581308+302208680+301658347+301102715
2598+300654726+300268552+299876266+299536445+299320471+299153363+298936540
2588+298717636+298561615+298388196+298120607+297855821+297705624+297603822
2578+297429318+297165490+296804528+296272153+295590774+294966454+294573083
2568+294347325+294097297+293758561+293452577+293296917+293255249+293222678
2558+293146503+292992073+292731483+292433855+292222167+292111214+292006284
2548+291847785+291644308+291379685+290980255+290429415+289898072+289632147
2538+289638910+289622272+289341029+288924092+288702385+288788435+288965453
2528+289007537+288947531+288936716+289002220+289041465+288921795+288565082
2518+288063453+287652737+287488614+287555421+287765643+287991835+288089785
2508+288005942+287774776+287442280+287112586+286917772+286841127+286754463
2498+286643872+286588006+286575021+286531436+286448949+286358288+286252887
2488+286104172+285918672+285745199+285599541+285406155+285081815+284666615
2478+284303373+284090202+283993121+283903129+283761793+283610166+283505453
2468+283456008+283474618+283590743+283726961+283688783+283405424+283068424
2458+282895710+282861963+282809624+282726884+282731424+282821669+282807128
2448+282533915+282088856+281702592+281506964+281477829+281527183+281515265
2438+281288386+280897528+280658279+280788076+281098365+281235215+281108203
2428+280898867+280750622+280658369+280619992+280682784+280805565+280839981
2418+280714759+280527288+280409137+280414165+280559570+280822221+281048504
2408+281045031+280852695+280755324+280917910+281201197+281415995+281563462
2398+281728110+281885090+281933341+281861742+281774987+281730769+281616904
2388+281221706+280341679+278786676+276368610+272911783+268252234+262329542
2378+255347092+247721767+239826918+231924527+224328301+217373901+211162243
2368+205586950+200725570+196934058+194481992+193474808+194174001+196950968
2358+201897854+208845581+217893254+229557823+243465356+256834276+265649048
2348+267551830+263477592+257177009+252349015+249653395+247634650+245391486
2338+243020984+240743784+238512900+236251886+234215960+232934659+232709606
2328+233273232+234007998+234520841+235049725+236214504+238347492+241231940
2318+244392730+247383212+249921780+252022486+253989796+256165195+258625110
2308+261107343+263268328+264998685+266405643+267567872+268484883+269215218
2298+269908587+270708876+271658206+272635296+273417138+273885726+274140420
2288+274361150+274620203+274866325+275028694+275063345+274932318+274645052
2278+274331653+274159193+274142789+274131070+274000043+273776618+273557660
2268+273387858+273254154+273153166+273116761+273160509+273225995+273210749
2258+273088023+272966020+272953722+272998049+272974556+272909848+272957701
2248+273160491+273384711+273520495+273620072+273767865+273905421+273926725
2238+273906669+274037045+274330387+274592605+274689614+274663788+274635123
2228+274727448+274983065+275251847+275293407+275057702+274759676+274631940
2218+274682651+274756764+274794038+274882149+275023051+275067794+274978489
2208+274914106+274961869+275023250+275025746+275018060+275026578+275014515
2198+274995562+275033884+275128705+275213868+275268395+275325526+275375207
2188+275359888+275279698+275221301+275262355+275389946+275519436+275586388
2178+275612756+275666487+275775631+275907455+275995349+275980157+275881810
2168+275812833+275856038+275981369+276129957+276289939+276435453+276496924
2158+276470248+276487918+276689640+277045630+277394457+277647614+277846950
2148+278015341+278089816+278030912+277894785+277786672+277809133+278012357
2138+278320366+278564227+278665125+278721967+278838508+278949406+278936295
2128+278845634+278855707+279065676+279432191+279869275+280287984+280562029
2118+280591327+280445416+280345513+280438164+280659454+280875500+281059626
2108+281260788+281490344+281704599+281852283+281934607+282035685+282248259
2098+282556522+282851618+283061027+283215457+283381081+283555838+283670444
2088+283689741+283650189+283603276+283607544+283735859+283991294+284269101
2078+284464964+284561937+284611256+284692712+284844682+285013399+285163759
2068+285370202+285658281+285886625+285937608+285882629+285846530+285861668
2058+285908328+285965115+285997289+285987559+285974248+286013746+286123325
2048+286290993+286517890+286809243+287113726+287325377+287399165+287439169
2038+287602533+287908951+288198296+288306283+288248085+288186667+288255662
2028+288471202+288777493+289094346+289347286+289553205+289856476+290356550
2018+290900590+291191762+291145861+291007148+291070283+291412908+291919547
2008+292463062+293004208+293531627+293981045+294311552+294617337+295011921
1998+295465335+295953021+296630530+297571269+298466921+298911311+298880711
1988+298649166+298410260+298206729+298032044+297851607+297652652+297514933
1978+297527358+297647751+297726295+297666343+297558193+297648185+298072699
1968+298591709+298758654+298453701+298031592+297845621+297885264+297967389
1958+298046150+298189186+298382788+298503236+298470375+298366711+298359151
1948+298553350+299020130+299814993+300695942+301017624+300403631+299341540
1938+298617987+298487610+298680345+298891978+299020763+299068688+299025429
1928+298962890+299177977+299903032+300831871+301432173+301742263+302096444
1918+302202206+301488871+300260957+299472893+299601190+300332393+301014079
1908+301195872+300905261+300476985+300169174+300049161+300135716+300467038
1898+301032562+301666088+302114149+302424365+303020020+303980164+304619295
1888+304356192+303558634+302906227+302594565+302541901+302743949+303160234
1878+303608910+303932347+304203010+304824744+306325998+308720010+310942684
1868+311461694+310061644+308145696+306985059+306739715+306945995+307225376
1858+307455745+307633016+307786813+307974465+308323221+309005721+310167371
1848+311994990+314566709+317102763+317905964+316453359+314426910+313441700
1838+313562292+313962590+314226453+314927690+316793108+319359473+321043821
1828+321188503+320754675+320358934+319606481+318481074+317720445+317719469
1818+318147148+318624960+319261740+320370147+321829588+322957744+323197482
1808+322778773+322454505+322905044+324435270+326715889+328737852+329585036
1798+329478334+329650179+331187712+333950664+336124905+335813260+333736933
1788+332206344+332290260+333416607+334709411+335939278+337076549+337889769
1778+338540295+339887390+342732810+346741254+349950549+350458635+348758986
1768+346468204+344614432+344024203+345161149+347160831+348470237+348957706
1758+349539255+350260638+350929900+352453941+355711921+359748976+362277507
1748+362414267+361374005+360539589+360520708+361326911+362430037+363174280
1738+364073839+366765679+371570018+375380031+374886594+371790657+368955257
1728+367172380+366594485+367262155+368704740+370773798+374453453+380598232
1718+387618697+391260662+389622394+385646901+382568652+381684430+383149694
1708+386532643+390638530+394064305+397104792+401559073+407615632+412322564
1698+413708434+412989113+410839684+407962977+406444433+407385263+410150022
1688+414281591+420647588+428958831+434471676+433433078+429684085+427752222
1678+428991891+432773221+437068822+440084931+442460279+445426907+447839041
1668+447812094+446687265+447229786+449862668+452520798+453482208+453747844
1658+455566927+460545173+469176199+478771385+482287658+479861815+478865754
1648+481246347+483513076+482027954+478427657+476198799+476660514+479915818
1638+485613421+491764855+494141036+491404996+487820758+486837791+488506333
1628+491166669+493662212+496112506+498274811+499153608+499324043+500943611
1618+504720709+508278469+508823341+507461958+506813494+507613837+509116249
1608+510372593+511038020+511427612+511989086+512810806+513737095+514813635
1598+516231589+517843235+519139692+519836516+520207661+520717266+521538082
1588+522494320+523325480+523928658+524358291+524788032+525723038+527996241
1578+531848212+535516980+536266323+534943534+534911450+537120415+539575990
1568+540348301+540189802+540700601+542845364+547882748+557108272+568183696
1558+572584300+568628448+563932114+561957679+562426484+564389200+566941133
1548+569899296+574165563+580609182+589023295+598575148+607376464+611136382
1538+609211753+607428044+609484261+614264401+618431091+621179104+624994434
1528+631392189+639193791+646672463+654033871+661943333+669005611+673563159
1518+676201213+677873951+678935264+680352495+683508799+689228141+697598777
1508+706993397+711895794+708435657+702539731+700186916+702080222+706532586
1498+710957243+713114448+713278517+714043956+717189988+722044206+726083142
1488+727402278+726774214+726156712+726532017+727517951+728442322+729825552
1478+733094420+738747931+745550144+751066353+752718836+750385119+747379428
1468+746739935+748808160+751566301+752749219+752848254+754259479+758016720
1458+762259440+763153212+760027724+756195828+753649067+752585873+752580592
1448+752602078+751710693+750195875+748944161+748297651+748453401+749866941
1438+752121589+753117868+751571582+749438177+748769458+749153371+749076400
1428+748281736+747899197+748478431+749462266+750592954+752302659+754010193
1418+753717357+750965655+747666404+745388896+744306677+743763035+743234657
1408+743060026+743734533+744713016+745120729+745375079+746530074+748638738
1398+750864450+752422310+752710517+751619327+750319144+750371591+751950865
1388+753585045+753836430+753514368+754977390+759282034+765410175+771777763
1378+777629272+783062289+788298249+793188420+797429187+800943579+803603553
1368+805211474+806285230+807866457+810089636+811857069+812214867+811277184
1358+809655881+807907402+806383830+805045524+803557762+801742729+799885449
1348+798554884+798061736+798241286+798871158+799939633+801324092+802575083
1338+803278671+803560294+804065956+805347692+807286934+809300470+811068336
1328+812738253+814586779+816851628+819611215+822614881+825544903+828360193
1318+831111027+833751108+836318847+838882897+841313261+843489636+845508236
1308+847428742+849285226+851418558+854117669+856820469+858366466+858394244
1298+857906884+858006063+858687442+859364625+859778559+859502941+857482532
1288+853400120+848708380+845116076+842916697+841541641+840609674+839661864
1278+837930095+835204798+832264069+830010289+828753872+828453802+829001929
1268+830020633+830922724+831478447+832059561+833173104+834855680+836614866
1258+837925032+838709641+839391309+840644759+843024340+846364752+849398801
1248+850626281+849879217+848426757+847564309+847860472+849454359+852099141
1238+855068228+857758802+860127170+862170728+863753257+865206802+867162465
1228+869643106+871989410+873539675+874019802+873829617+874146760+875948265
1218+878890875+881873851+884547208+887489311+890981784+894350192+896735271
1208+898092169+899060813+900222680+902023245+904845696+908266118+910780903
1198+911473784+911542436+912935432+915872254+918854941+921066257+923435927
1188+926848680+930537197+933006263+933888316+934326557+935889771+939171442
1178+943169216+946185614+947669976+948800809+950866937+953704146+955917921
1168+956514372+956336558+957335947+960125412+963196571+965003212+965734868
1158+966423842+967471338+968636677+969896060+971799059+974871810+978418321
1148+980715723+981023751+980348593+979968080+980241022+981437034+984577930
1138+990124450+996484298+1001193183+1003436546+1004147295+1004152937+1003604666
1128+1002652298+1001614713+1000812163+1000485834+1000668422+1001314498
1120+1002526642+1004390867+1006636038+1008947257+1011337544+1013432825
1111+1014450083+1014913209+1016554262+1019494701+1021367390+1020219412
1103+1017080397+1015046027+1016579509+1021663698+1027689331+1031275630
1094+1031076114+1028511124+1025513318+1023124839+1022456047+1024744913
1085+1029656569+1034751971+1036989981+1035007045+1030532038+1027110460
1077+1026933007+1029035595+1031234902+1033603415+1037609219+1042227677
1068+1044432917+1044061519+1044371933+1046650164+1048725841+1049372352
1060+1050110446+1052378260+1055973240+1059744008+1061828800+1060806840
1051+1057648437+1054605346+1053472126+1055155860+1058944352+1062549604
1043+1064361381+1064408186+1062494046+1058593426+1055166060+1056049415
1034+1062289973+1070097290+1073741823+1071093134+1065281991+1060407229
1025+1058097819+1058380816+1060652392+1062894960+1062951675+1061606424
1017+1061583058+1063117263+1063032335+1059269307+1054100045+1051211401
1008+1051595170+1053156503+1053236150+1051209159+1048590057+1046790289
1000+1045435778+1043431285+1041076083+1039665653+1039023049+1037457954
991+1034784886+1032997777+1032914296+1032693077+1030867917+1028505119
983+1026914560+1025322989+1022357881+1018394903+1014850417+1011977327
974+1008800188+1005081505+1002041958+1000523306+999574339+997728634+995017297
964+992579772+990567899+987778291+983658333+979461043+976477054+974011677
954+970349420+965242082+960393507+957456323+956388137+956015726+955294271
944+953494430+950227877+946407773+944146542+944612996+946977819+949631282
934+951315305+951006482+948194954+944102920+941307958+941373065+943381247
924+945108820+945005372+942949445+940162802+938693197+939775633+942235585
914+943703815+943512835+943085229+943691517+944908436+945102382+943110331
904+939767821+937280380+936533026+935911907+933813588+931325785+930639415
894+931755345+932562380+931613340+929397105+927267028+926144225+925857755
884+925548570+925089133+925379799+926959290+929291776+931269359+931696098
874+930176867+927917372+926361826+925413220+924363120+923423774+922983869
864+922947337+923553987+925042546+926439665+926478078+925444978+924709199
854+924739365+924599747+923313237+921032546+918788387+917686636+918264350
844+919925803+921350701+922067382+922871813+924093506+924477563+923079214
834+921168113+920733200+922207579+924571534+926841736+928288698+927766180
824+924645901+920643859+918995210+921323574+926112395+930182799+931564437
814+931053494+931226823+933893669+938417361+942451161+943895953+942031150
804+937649029+933012485+930496758+930354826+931163163+932357366+934244667
794+936045014+936498809+935741255+934616282+933800856+934484188+937381729
784+940764389+941960979+940476761+937988235+936587282+937135553+938190138
774+937379921+934587201+931991249+930938834+930975944+931878107+934094777
764+936873534+938205619+937336371+936063823+936889811+940761278+946431356
754+950836554+950667131+945634666+939553330+936224998+935994665+937434466
744+940028609+943519635+946473024+947842582+948869605+951111666+953411961
734+953617699+952579173+952824770+954214800+954231728+952038570+949555975
724+948306214+947380468+945303055+942839414+942107614+943232876+944282398
714+944291151+944157176+944616974+945242361+945082632+943442448+940793397
704+938485506+936962224+935378900+932882778+929085171+924415567+920710268
694+919564171+919582112+916929082+909902323+902378438+899987500+903348602
684+907665833+908925722+907518692+905058089+902024836+898995055+896815135
674+894967332+890378244+878974211+861440012+848813202+853218110+867254483
664+875991886+876761304+874762815+873753298+873377559+871971397+869563821
654+868297566+869770715+872018491+871542054+868340970+865299398+863276603
644+860551739+856749575+854257648+855217684+859780802+866708454+872802956
634+873050289+866505538+860040433+860271273+865256862+867132733+862057369
624+854867988+852006328+854060447+855992672+853208127+847452542+844603686
614+847647356+854317764+859230505+857920412+849858310+838190161+828864481
604+827829428+836606691+849393810+855085156
##END=
