##TITLE=<SNM>
##JCAMP-DX=4.24
##DATA TYPE=INFRARED SPECTRUM
##DATE=2/5/2025
##SAMPLING PROCEDURE=Instrument type and / or accessory
##ORIGIN=Admin
##XUNITS=1/CM
##YUNITS=ABSORBANCE
##RESOLUTION=4
##FIRSTX=4497.3318
##LASTX=599.83466
##DELTAX=-1.4281778
##MAXY=1.8198661
##MINY=0.33337313
##XFACTOR=1
##YFACTOR=1.6948823e-09
##NPOINTS=2730
##FIRSTY=0.35761568
##XYDATA=(X++(Y..Y))
4497+210997347+210241125+210687786+211756032+212390312+211832257+210131578
4487+208061571+206699537+206864595+208445687+210270894+211086057+210647238
4477+209619875+208784754+208664235+209412422+210500555+210844422+209877142
4467+208337582+207508598+207826231+208629279+209117473+208996585+208264610
4457+207193797+206508156+206723011+207393865+207803354+208055944+208637719
4447+209377149+209723601+209606159+209349578+209177205+209106782+208923947
4437+208371589+207653066+207291404+207363744+207389697+207051510+206675535
4427+206812916+207543397+208413069+208880392+208556763+207210009+205070212
4417+203177132+202753998+204006064+206011556+207746664+208656217+208523055
4407+207607700+206690762+206307191+206195623+205867757+205268187+204638145
4397+204195089+204058674+204149793+204212919+204153538+204150760+204326386
4387+204609871+204971673+205388179+205551566+205087761+204123910+203230200
4377+202816754+202876486+203096370+202999115+202302941+201288484+200601294
4367+200707535+201563458+202580834+202955068+202340429+201142011+200102392
4357+199886921+200788508+202272503+203145095+202824808+202131077+202211242
4347+203028128+203492813+202945256+201901417+201242010+201184951+201275366
4337+200982650+200151556+199136677+198479064+198304809+198247996+198099132
4327+198103159+198380648+198584636+198529863+198627312+199133142+199468569
4317+199006997+198220724+198247258+199408433+200831360+201546876+201453436
4307+201109886+200976214+201082314+201164554+200916324+200343711+199925781
4297+200053421+200446470+200603651+200566444+200699359+201028860+201268209
4287+201177864+200608908+199502928+198106553+197006023+196693965+197117574
4277+197889271+198810095+199757892+200334022+200297149+200051540+200065132
4267+200213134+200237945+200286300+200426354+200239035+199456401+198521300
4257+198081795+198358510+199241739+200484697+201646769+202365081+202697150
4247+202753224+202245161+201019769+199710785+199164389+199420742+199781225
4237+199774192+199694221+200082979+200895822+201510742+201585719+201484278
4227+201658920+202000536+201993942+201355091+200468379+200089872+200495898
4217+201185812+201649301+201927194+202086696+201860921+201293073+200996735
4207+201338070+202000149+202537771+202709722+202321228+201510478+201024112
4197+201404800+202095119+202130532+201489588+200967880+200978430+201227697
4187+201365078+201264833+200839818+200183611+199746163+199907810+200536182
4177+201260068+201945130+202611939+203164331+203495732+203637245+203605067
4167+203359247+203074690+203063419+203203561+202919250+202038780+201191457
4157+201007830+201429522+202109309+202856318+203384022+203355396+202968590
4147+202841319+203135828+203365964+203165668+202687567+202236738+202022392
4137+202139377+202473907+202861769+203397193+204222888+205098381+205577256
4127+205493769+204956745+204025107+202687479+201202183+200266307+200515082
4117+201772299+203147803+204009194+204469588+204764801+204664011+203869702
4107+202649463+201621783+201098210+201004788+201188010+201420414+201418533
4097+201154478+200875794+200740874+200743564+200861586+200982808+200948045
4087+200834331+200906653+201288536+201881424+202446230+202720993+202731842
4077+202861821+203245937+203373455+202761559+201734881+200995891+200642089
4067+200217460+199657770+199463241+199821246+200286704+200534054+200792517
4057+201274399+201653275+201434288+200639768+199862339+199625662+199905806
4047+200436043+201186850+202148081+202891520+202888971+202157013+201198631
4037+200464001+200135432+200226849+200606464+201003117+201149326+200940308
4027+200524542+200276857+200518827+201155234+201745642+202003930+202015623
4017+201939134+201792274+201627023+201604621+201755401+201925893+202074651
4007+202351472+202768469+203085838+203198743+203360865+203785160+204253308
3997+204393169+204177452+203912976+203827589+203821751+203626959+203235000
3987+203103316+203625130+204427580+204732992+204395508+204014662+204090870
3977+204637178+205441070+206102974+206099668+205393999+204659826+204488877
3967+204799212+205293086+205925590+206623223+207046094+206918858+206309934
3957+205544814+205035977+205058097+205634544+206684854+207935988+208696114
3947+208470551+207773409+207457518+207552470+207538913+207342063+207282648
3937+207606258+208588186+210318194+212015814+212358696+211063128+209409011
3927+208719008+209053363+209571203+209799738+210128765+210963059+211967581
3917+212350432+211709716+210512529+209620473+209396896+209504385+209798789
3907+211018272+213864653+217515137+219937838+220171069+218987298+217178936
3897+215039667+213303082+212989107+214072633+214962492+214463923+213864882
3887+214847547+216757174+217783816+218022955+218543503+218563478+217040746
3878+215417699+215674984+217865580+221002339+224343226+226543793+226010285
3868+223788882+222526917+222754696+222831941+221699410+220099081+219302433
3858+220344057+223934827+229304558+232255017+229263958+223726794+219856215
3848+218815910+220088513+222568151+225322569+228170778+231261045+233749457
3838+233802226+231246064+228314261+226542228+225580399+224885508+224679427
3828+224943622+225269413+226254453+229047907+232655715+233990495+232726630
3818+231441700+230766433+229428664+227518511+226524433+227356987+229771283
3808+232341951+233730326+234841704+237186721+239726547+240363588+239998673
3798+240469617+241075816+240635186+240040856+240823666+243243061+246716899
3788+250745257+254964152+259080446+263281142+268282952+274561181+281913740
3778+290183025+299737293+310602937+322070858+333424520+344081198+353239921
3768+360398707+365373526+367952564+368980613+370148840+371711469+372200085
3758+371191378+370790083+373497130+380029303+388537182+395504411+400233410
3748+406135910+415564718+426739765+435013499+439830803+445232238+453580914
3738+464615959+477114743+489959433+502263354+513294495+522715285+531055169
3728+539528584+548569038+557018821+563789007+568856140+572110569+573440952
3718+573625511+573974794+575492549+577962322+579454968+578346913+575340099
3708+571519650+567319359+563912515+562777064+563642007+564579641+564534029
3698+564192834+564506598+565849396+568444330+572371370+576418332+578091035
3688+577003553+575730773+575837788+577038369+578965473+581785936+585739457
3678+590264942+592616095+589852569+584657672+581624341+580673731+578505940
3668+573836726+568581271+564788641+562827635+561658002+560589017+560030699
3658+559947599+559283638+558151809+558358453+561067576+565136517+566944509
3648+564436439+560360394+557911792+557247233+556644041+555180057+553755284
3638+553475070+553996567+554235917+554410312+556323772+560937808+565674367
3628+566248827+563225519+560384308+559685426+561090610+563521453+565943152
3618+568317445+570914771+573387111+575562005+578170724+581750627+585280628
3608+587066781+587088550+587175730+588572369+590464482+591225857+590678652
3598+590020528+590040996+590846822+592619542+595710336+600306789+605390591
3588+607756585+605237613+600800469+598635281+599423664+601428559+603132421
3578+603733080+602758450+600774515+599658090+601196876+605772932+611764476
3568+615639293+614387755+608899949+602572274+597580118+594385650+593326547
3558+595131269+599550337+604574918+607849005+608635489+608025194+607441555
3548+607281544+606734831+605075562+602958342+601388257+599992462+597607970
3538+594122175+590592491+587970408+586578939+586511347+587839796+590006778
3528+591573662+591366386+589771789+588301369+587704929+587024334+585011105
3518+582201826+580473487+580406564+580666592+580086892+578881634+577606780
3508+576390549+575318646+574369196+573201532+571717221+570593200+570810288
3498+572514466+574040662+572890125+568907871+565073145+563899397+564561670
3488+564502694+562967425+561392523+560495753+559098798+556515645+554164035
3478+553711957+555338873+557953289+559597542+558326627+554281810+550117952
3468+548117559+547933668+547994156+547759906+547646315+547619061+546935019
3458+545328712+543570059+542432921+541665779+540543199+538973642+537400744
3448+535934333+534382711+533042234+532470869+532561144+532851310+533418983
3438+534321238+534747186+533923389+532127354+530054480+528272441+527529530
3428+528217018+529455403+529874845+529124126+527763569+526195805+524368576
3418+522155912+519850899+518475079+519106123+521553846+524110904+524848717
3408+523046562+519536924+516030310+514054569+514128666+515685774+517445623
3398+517891053+516426647+514262303+513164622+513450498+513871698+513075859
3388+510834428+508260243+506830582+506930844+507642985+507984109+507808905
3378+507635107+508095625+509238109+510179716+510043548+509124834+508303429
3368+507751019+507029559+506035622+505192906+504834971+504782080+504653437
3358+504320578+503948295+503931134+504626534+505779533+506337359+505348873
3348+503193497+501454397+501273461+502181273+502861481+502814638+502561820
3338+502345821+501888750+501235937+500541416+499438952+497695527+495943662
3328+494982290+494851292+495037046+495209402+495439010+495880150+496372212
3318+496411776+495737405+494789081+494236495+494158247+493995633+493278534
3308+492063465+490704279+489589225+489062558+489260023+489942693+490644424
3298+491090030+491319498+491431400+491341477+490967964+490574159+490681315
3288+491495405+492498450+492879103+492459379+491932677+491983986+492427799
3278+492475803+491695508+490484940+489770302+490286384+491811068+493118593
3268+493081456+491730886+489953806+488566557+488058106+488619589+489778074
3258+490429234+489901723+488670687+487540969+486618492+485514341+484273494
3248+483600846+483998906+484961720+485458249+485167907+484549628+483733674
3238+482335698+480456457+478934762+478365788+478415796+478278222+477640284
3228+476938589+476502900+475933469+474857592+473742468+473248647+473321162
3218+473376551+472851255+471539651+469923954+468913207+468876457+469197571
3208+469004431+468156545+467265262+466831823+466679689+466258664+465141853
3198+463200189+460847840+459159839+459011432+459932502+460461807+459761764
3188+458296092+456885034+455724474+454557478+453354823+452328110+451541520
3178+450931084+450448516+449927089+449119469+447969072+446502802+444602354
3168+442344043+440348257+439346724+439485846+440185572+440656816+440468564
3158+439579637+438137457+436486838+435133033+434373839+434039256+433678403
3148+432954095+431974260+431230047+431012044+430983629+430541504+429446988
3138+427910067+426293033+424980972+424274458+424030291+423623615+422642866
3128+421370332+420214766+419075377+417778297+416655682+416063568+415823551
3118+415662062+415660514+415893815+416133727+416177124+416063322+415834593
3108+415379070+414546059+413309959+411963750+411125359+411167982+411600963
3098+411463212+410437027+409132456+408195244+407641287+407215339+406929885
3088+406954854+407213264+407301253+406794280+405659216+404427160+403790911
3078+403848269+403956866+403545408+402765007+402040488+401371639+400504691
3068+399513498+398772415+398410296+398095442+397396313+396220104+394932026
3058+394085300+393918185+394065888+393909780+393223171+392269712+391324693
3048+390437489+389656315+389116565+388802591+388450881+387828770+387011795
3038+386217011+385475295+384720602+384076968+383718577+383531416+383185017
3028+382419457+381194154+379773882+378587685+377799618+377153733+376355996
3018+375440447+374671617+374200584+373915763+373684291+373584803+373659182
3008+373646944+373336943+372936913+372684657+372417948+371918887+371317735
2998+370801512+370269570+369574239+368810755+368137650+367516945+366758560
2988+365715213+364440323+363197225+362259029+361709608+361480598+361459954
2978+361485134+361379421+361079337+360630636+360102949+359546776+358891044
2968+357965543+356846727+355949149+355483356+355116419+354447957+353567892
2958+352967725+353042174+353677509+354267056+354237058+353524636+352440917
2948+351270229+350171528+349223098+348375282+347535061+346787930+346339404
2938+346190963+346103396+345935893+345785166+345733399+345688561+345517858
2928+345165656+344638426+343963282+343140997+342168337+341143945+340234375
2918+339494206+338836927+338176623+337535169+337079435+337013953+337284813
2908+337524725+337469512+337186379+336771966+336159666+335342481+334505883
2898+333814034+333224347+332602059+331946644+331439600+331203556+331053813
2888+330666690+330017289+329440367+329192613+329153718+329042307+328756818
2878+328403843+328106080+327864761+327555253+327051374+326413859+325909241
2868+325729149+325706150+325448056+324833505+324250394+324138245+324313484
2858+324053105+323021644+321794969+321091832+320805217+320325147+319575764
2848+319063445+319026238+319178759+319203834+318993568+318537094+317945086
2838+317442403+317128041+316881905+316554918+316107377+315606910+315194079
2828+314945762+314746081+314432845+314023074+313636198+313301193+312995025
2818+312730883+312483023+312171299+311788149+311396103+310993753+310524689
2808+309990461+309450641+308955378+308548351+308276401+308120504+307927927
2798+307491394+306754953+305877314+305022676+304210343+303463774+302922934
2788+302646132+302435725+302032390+301418824+300799174+300293326+299789763
2778+299182668+298596533+298204767+297951984+297643953+297208580+296719647
2768+296237009+295717798+295082498+294360124+293695565+293150453+292632208
2758+292107492+291710276+291542299+291519950+291452675+291159045+290560706
2748+289775892+289044621+288483437+287996719+287466852+286933591+286511124
2738+286200033+285894974+285539185+285130909+284628507+284058777+283644892
2728+283534308+283455005+282983551+282127804+281310847+280804577+280494137
2718+280174131+279777952+279296809+278717760+278107183+277612324+277318747
2708+277164520+276996666+276687632+276261843+275940676+275931392+276105998
2698+276038160+275440068+274448118+273476600+272906202+272832667+272962822
2688+272846383+272329193+271680512+271254687+271154196+271173117+270957030
2678+270341495+269613072+269255964+269384220+269618629+269547432+269120289
2668+268570340+268132277+267902599+267856864+267882712+267811761+267522597
2658+267049508+266547879+266157978+265937813+265875426+265901819+265914022
2648+265809575+265498413+264953600+264295336+263724973+263320460+262977735
2638+262581715+262157912+261836904+261725388+261823752+262021832+262155169
2628+262103139+261882903+261622840+261394111+261110873+260668273+260138124
2618+259723500+259542247+259548824+259638835+259713777+259672560+259488863
2608+259285437+259192349+259173007+259107807+258958820+258743208+258479347
2598+258243286+258142514+258192276+258299694+258330782+258182552+257903094
2588+257696362+257679271+257761439+257855125+257971037+258024808+257837384
2578+257418364+257024102+256888443+257023486+257258071+257403312+257409203
2568+257358034+257318049+257289334+257270485+257279171+257342701+257503047
2558+257739530+257922471+257984577+258041249+258173654+258226845+257997184
2548+257510221+256970594+256517656+256140274+255792222+255489958+255273995
2538+255139251+255035138+254891092+254644217+254300701+253946249+253654517
2528+253447100+253352799+253395826+253507342+253537129+253366619+252989660
2518+252525608+252155998+251989305+251975713+251986562+251973550+252011988
2508+252158917+252315043+252316010+252144587+251939138+251791629+251656814
2498+251496469+251399899+251475034+251683647+251879582+251961980+251899962
2488+251677335+251328175+250960939+250647984+250348199+249998512+249628639
2478+249355476+249276314+249343871+249360593+249160543+248790599+248448315
2468+248274148+248273374+248379896+248479315+248398992+248019764+247426613
2458+246866783+246547972+246501376+246592530+246627627+246495591+246231993
2448+245946926+245721819+245570582+245449694+245313877+245181173+245101290
2438+245072347+245057384+245048082+245032661+244965456+244844480+244724225
2428+244595161+244381325+244102676+243897193+243851915+243936246+244080802
2418+244219274+244316775+244434744+244675887+245009872+245235296+245169603
2408+244861343+244580074+244540985+244673531+244757388+244720603+244692768
2398+244869062+245402956+246328405+247612438+249438418+252391761+257269271
2388+264774703+275372476+289266263+306493553+327063823+350874103+377410807
2378+405680422+434560683+463166463+490860915+516979232+540439561+559758117
2368+573960305+583361401+589141272+592318508+592824216+589516931+581482687
2358+568928409+552527308+532294399+508133746+482834267+462419824+451867170
2348+452729300+463705299+480746201+497738397+509949546+516272086+518239562
2338+518422925+518589443+518967282+519331476+519812461+520343207+520028986
2328+517656768+512812561+506100823+498290701+489788449+480890423+471896987
2318+462886003+453768180+444577456+435438568+426206205+416388058+405633860
2308+394181694+382662042+371618170+361345766+351966262+343413545+335411198
2298+327625376+319896526+312344076+305247431+298800785+292980875+287644201
2288+282708348+278217908+274273723+270929512+268139698+265778100+263704963
2278+261833985+260133412+258573965+257131222+255844199+254776780+253887537
2268+253047071+252226738+251550574+251106550+250809701+250494566+250057910
2258+249498959+248908375+248406799+248010199+247585271+247026742+246433837
2248+246003071+245774746+245590873+245293849+244875269+244429504+244040078
2238+243736794+243531540+243458462+243546925+243736390+243859493+243766352
2228+243465653+243121487+242930370+242989223+243205696+243334883+243206804
2218+242932761+242785199+242886516+243123492+243325089+243411197+243416278
2208+243454259+243606657+243817838+243980803+244087923+244190348+244293336
2198+244396342+244540405+244743972+244981879+245249310+245558326+245879123
2188+246155399+246363766+246510273+246577003+246532991+246425168+246386660
2178+246488311+246654881+246784087+246851925+246859503+246785177+246624356
2168+246402256+246148330+245904584+245721204+245589854+245410746+245107919
2158+244769292+244570192+244543588+244548652+244480058+244383277+244360066
2148+244462931+244712127+245201131+246132839+247640800+249600241+251771900
2138+254105909+256762632+259888400+263489738+267501198+271916820+276806780
2128+282173961+287901767+293905831+300180860+306642874+313114665+319487811
2118+325710088+331594794+336773971+340888911+343759557+345310581+345460605
2108+344234845+341843425+338528262+334507571+330052491+325365483+320420908
2098+315077570+309265133+303065573+296724008+290518769+284601832+279061152
2088+274041090+269690036+266083793+263209330+260930763+259047143+257440273
2078+256088683+254985516+254111887+253399940+252724497+252034935+251431180
2068+251035336+250855314+250784451+250701104+250578106+250440039+250262672
2058+250052002+249901503+249813514+249682638+249555350+249614906+249877554
2048+250185110+250450625+250694933+250916206+251056946+251077097+251024346
2038+250999324+251054344+251201150+251472221+251870333+252325382+252756412
2028+253106785+253357318+253560691+253773383+253996222+254283047+254726350
2018+255213401+255465605+255422806+255309936+255290840+255321066+255323053
2008+255307017+255302955+255285372+255219749+255150909+255159173+255221648
1998+255248868+255309989+255633898+256253161+256813378+256929027+256611904
1988+256168267+255862539+255812936+255996386+256271519+256538756+256841020
1978+257205847+257525712+257694498+257741025+257806436+258073181+258607867
1968+259183065+259436499+259309914+259113258+259109671+259297289+259597109
1958+259991634+260439544+260844814+261140097+261335452+261543836+261942108
1948+262610130+263482247+264463946+265353453+265740629+265436413+264851139
1938+264488862+264386648+264355542+264411670+264687277+265134430+265535515
1928+265799095+266147463+266827179+267687322+268406689+269049743+269804365
1918+270335534+270153789+269497512+269097869+269310245+269909744+270453996
1908+270681072+270664560+270635987+270709469+270848732+271032939+271363144
1898+271968850+272751729+273351017+273642133+274040440+274852455+275633788
1888+275746956+275273374+274778850+274606547+274778446+275161683+275542458
1878+275779908+275936052+276212450+276903490+278333485+280451056+282354019
1868+282758690+281507785+279858310+278986966+279048140+279506143+279867594
1858+280037171+280182114+280463330+280934046+281614852+282527535+283696992
1848+285274585+287395216+289483581+290189057+289084061+287459924+286556561
1838+286511476+286888858+287478738+288599137+290574351+292858756+294211981
1828+294314371+294061078+293873055+293360138+292566621+292142308+292358148
1818+292863522+293320575+293879016+294907821+296342090+297527654+297950753
1808+297886819+298011980+298775007+300267442+302190573+303849772+304662878
1798+304871702+305439199+307172777+309839628+311864217+311805417+310455304
1788+309696145+310237758+311529352+312946811+314414066+315845943+316870581
1778+317565876+318815093+321460703+325192353+328256843+329118620+328265142
1768+326909016+325777997+325647912+327026581+329146895+330619777+331383156
1758+332311611+333475899+334686081+336671528+340145049+344249264+347008570
1748+347729502+347561859+347768960+348893614+350881066+353079839+354643945
1738+355895518+358365960+362504497+365810411+365541239+363080153+360874276
1728+359687305+359559964+360261343+361298219+362772473+365737016+370844135
1718+376587221+379535096+378394792+375502869+373233586+372587982+373832733
1708+376699019+380186431+383187408+385989021+389881703+394759214+398381740
1698+399603069+399310968+397681380+395325128+394166678+395150733+397797785
1688+401764037+407439707+414026953+417799714+416715010+414022732+412866181
1678+414192767+417611040+421564281+424670021+427463264+430725500+433242503
1668+433612394+433320891+434644276+437644339+440509605+442094214+443491662
1658+446489438+452239910+461207005+471427783+476850459+476862909+477694126
1648+481484365+485650298+487203432+487284528+488596906+492109006+497810771
1638+505529423+514138232+520709370+523811594+526283829+531042825+538527086
1628+547514227+556914127+566900198+577712387+588310723+597845913+607464063
1618+618642380+630208805+638954169+644741250+650001030+655613470+660739544
1608+664596496+667406584+669980276+672855424+675916749+678858925+681812919
1598+685268399+689559810+694499707+699456485+704011370+708434588+713166505
1588+718088608+722665297+726653142+730298597+733794450+737088793+740455722
1578+744491676+749079900+753312862+757575857+763497840+771515942+780101435
1568+787593081+794817103+803810257+815250572+828836943+844888621+862115875
1558+872941182+873830425+871608548+870818125+872087950+874347949+875616368
1548+874894381+873260362+871905361+870801737+869755506+867994110+863459623
1538+857044381+852113698+849119403+846182079+842241710+838492229+836166959
1528+834925338+833896761+833185324+833663531+835147878+835861003+834748165
1518+832880493+831540825+831104187+831537590+832972491+835594645+838961011
1508+841272917+839978545+835865785+832873882+832218783+832891817+833843237
1498+834220091+833187223+830966752+829247065+829260007+830488264+831307032
1488+830943331+830158535+829614495+829192697+828659207+828133735+828058969
1478+828879003+830705529+832997671+834246185+832840895+829563080+827176267
1468+827021811+828295435+829300872+829146627+828907207+830371720+834090675
1458+838076339+838081403+833221547+827548549+823641519+821550745+820599888
1448+820076667+819545288+819019324+818494837+817876171+817637596+818414022
1438+819526438+819111955+817032294+815468961+815364795+815678137+815458552
1428+815060879+815076071+815100547+814551936+814014226+814493628+815433091
1418+814848256+812283777+809423048+807656659+807172685+807342684+807437355
1408+807276640+806980038+806413701+805521856+804731573+804448054+804803174
1398+805877961+807183727+807313636+805589940+803669587+803692798+805615260
1388+807311174+807078788+806058018+806748847+809760233+813700251+817513525
1378+821640985+826518144+830979694+833320719+833759186+834219669+835721599
1368+837636113+839236724+840709957+842367820+843775150+844261656+843933474
1358+843510128+843365168+843138127+842382942+841446293+841286914+842388428
1348+844148769+845539148+846113151+846164425+846284486+847017024+848447705
1338+849882958+850546989+850680484+851299431+852989507+855437933+857970269
1328+860172242+862158217+864493475+867723743+871891434+876479306+880741809
1318+884223454+887112458+890068280+893535506+897185322+900226671+902452418
1308+904761440+908142788+912233814+915630284+917702700+919260617+921261010
1298+923695721+925908596+927209791+927121451+925792403+924075670+922560869
1288+920953718+919056083+917568642+917028752+916667864+915245482+912652025
1278+909966570+908293164+908032573+908864916+909990133+910562307+910283288
1268+909700423+909761404+911017021+913383719+916510525+919980916+923284192
1258+926135004+928717208+931211703+933445960+935198845+936282775+936386519
1248+935552067+934485228+933701205+932865416+931491636+929790236+928552413
1238+928466815+929313577+929847559+929222563+928090524+927157251+925774609
1228+923348760+920792580+919278412+918699767+918320381+918014002+918145458
1218+918914781+920154151+921337605+921813209+921481721+921121255+921624571
1208+923177916+925280084+927257689+928808924+930216746+931836558+933443639
1198+934673373+935876873+937594168+939529291+940981776+941661492+941439586
1188+940499842+940062007+941466875+944512796+947919887+950904968+953289178
1178+955235906+957645086+961231389+964688910+965717486+964439573+963609410
1168+965224299+968835008+972768062+975206994+974779850+972088839+969722634
1158+969306181+970028309+970764363+971941347+974615689+978789640+982945726
1148+985298286+985912661+986816463+989380028+992498534+994197965+994154428
1138+993782075+994809245+997960738+1001834430+1003699359+1003080693+1002863148
1128+1005360527+1009675992+1014017551+1018241580+1022600301+1025931148
1120+1026895369+1026093200+1025209583+1024524030+1023156298+1021576648
1111+1021330898+1021909543+1020994064+1018245519+1015747296+1015187712
1103+1016910564+1021044072+1027794811+1036050434+1042721061+1044843978
1094+1043290422+1042353632+1044223554+1046505357+1046216492+1043474277
1085+1039951908+1036697092+1035038878+1036920546+1042425936+1048428804
1077+1050970072+1049458928+1047547649+1048596693+1052118922+1055738916
1068+1058257747+1059189684+1057533228+1053201586+1048840755+1047435113
1060+1048536979+1049644120+1050653777+1054298317+1061497863+1068904896
1051+1072244535+1070986877+1068405026+1067589071+1068653941+1069532071
1043+1068923816+1067410702+1065928817+1065058564+1065391951+1067558335
1034+1071191974+1073741823+1072515254+1068874159+1066831002+1067044047
1025+1066163947+1061985916+1056148898+1051843139+1051014454+1053499032
1017+1057514097+1060957339+1062659443+1062684060+1062063214+1062040004
1008+1063087430+1064256114+1064088787+1062907795+1062732520+1064233958
1000+1065420507+1064194641+1060829611+1057079287+1054007905+1051616731
991+1050076961+1050220444+1051978674+1053471883+1053271358+1052302285
983+1051630446+1050689085+1049482490+1049430021+1050570360+1050693305
974+1048009538+1042668943+1036093690+1030635635+1028455185+1028825427
965+1028515673+1025865174+1022175690+1019410053+1018339557+1018386470
957+1017739390+1014815570+1010421893+1007012200+1005692648+1005184760
948+1004046813+1002175976+999597360+995824669+991226599+987709786+987006367
938+988540722+989533358+987851722+984262324+980942941+978856458+977657108
928+977088591+977296501+978056751+978670563+978842602+978871931+978705801
918+977359943+974019741+969627190+966264340+965097625+965787259+967413822
908+969115222+970258023+970708166+970616590+969924003+968845066+968349346
898+969080617+970400240+971260294+971587914+971546909+970613847+968904640
888+967594442+966766320+964584392+960244591+956144844+955304834+957804324
878+960731168+961335626+959576059+957297139+955799007+955043752+954545499
868+953805436+952352248+950474941+949336923+949868795+951928410+954563083
858+956865424+958263610+958315447+956808664+954693765+954237574+956390171
848+958525889+957217872+953357544+951310800+952607845+953656467+951331619
838+947807210+946389119+946427944+945842125+945248991+946248520+948422921
828+950308950+951011877+950334763+949189431+949456703+952390088+957145497
818+961296941+963286996+963913398+964640379+965802170+967213931+968523495
808+969182955+969664186+970534579+970014102+965648066+959261381+955832698
798+956814431+958918076+959521760+959370822+959387561+958786691+957337301
788+956276792+956235294+956320259+955802454+955685135+957492600+961011171
778+964104146+964766981+963544210+963186206+964911097+966317232+964379225
768+959517681+955111625+953899404+955991373+959479278+962335646+963989078
758+965366516+967378936+969860490+972258065+974186857+975357088+975788592
748+976023370+976505867+976974368+977216249+977496604+977694456+977517071
738+977588180+978312910+978487974+977026697+974477059+971584819+968644963
728+966069583+964358828+964480367+967328365+971689970+974509413+974763743
718+974553935+974989589+974254027+970281444+964044361+959024000+957395960
708+958585392+961064133+963390528+963480768+959521690+953130644+948442264
698+947194242+947797223+948187229+946701898+942453744+937195440+934276403
688+934488674+935681553+936889343+939111643+941401745+940261758+934695740
678+928363845+925197441+925905291+928837199+930941828+927736318+916128958
668+901097417+894845071+898442980+902721026+904248910+905641188+907915184
658+907773249+904004075+901326216+904220636+911138560+916698741+918526814
648+918253211+915841992+909317732+900498937+894154805+891514716+890618509
638+891580338+895768075+901284367+904738159+906116863+906613497+903771126
628+894892688+882943430+874429327+873208595+876798204+878159887+873586997
618+867205375+864534198+865020001+864575626+862813105+863572440+868714480
608+874290486+874268471+868224949+862207733+860496275+860486217+858412042
##END=
