##TITLE=<SNM>
##JCAMP-DX=4.24
##DATA TYPE=INFRARED SPECTRUM
##DATE=2/5/2025
##SAMPLING PROCEDURE=Instrument type and / or accessory
##ORIGIN=Admin
##XUNITS=1/CM
##YUNITS=ABSORBANCE
##RESOLUTION=4
##FIRSTX=4497.3318
##LASTX=599.83466
##DELTAX=-1.4281778
##MAXY=1.7052145
##MINY=0.26460516
##XFACTOR=1
##YFACTOR=1.5881048e-09
##NPOINTS=2730
##FIRSTY=0.28423807
##XYDATA=(X++(Y..Y))
4497+178979421+178376883+179306080+180967544+182016561+181816385+180687312
4487+179395125+178814412+179659030+181816891+184072467+185019079+184307548
4477+182761007+181366715+180500797+180090497+180071506+180433051+181001735
4467+181493591+181817999+182161397+182796006+183832826+185002977+185670652
4457+185376345+184411024+183389480+182332599+180897697+179350668+178419163
4447+178344268+178887130+179889101+181007834+181415300+180628705+179280239
4437+178363991+178056867+177867931+177609824+177531007+177644973+177666422
4427+177577810+177577978+177512260+176915277+175572797+173790030+172229884
4417+171537176+171923342+173109483+174629901+175949411+176466996+175916233
4407+174788061+174099387+174529822+175609672+176024794+175180476+173959806
4397+173414730+173551384+173849593+174027251+173830527+172995460+171876521
4387+171367175+171826153+172606179+172927546+172706934+172171503+171214458
4377+169779612+168517488+168288543+169123178+170191994+170730258+170698525
4367+170582908+170711060+170847114+170492268+169505310+168331723+167670899
4357+167900331+168704021+169353568+169453084+169294024+169461866+170234405
4347+171303427+172061028+172239830+172036782+171543950+170590545+169293986
4337+168143745+167397610+166915287+166616946+166658888+167125241+167825530
4327+168416958+168608972+168295299+167652940+167123402+167125353+167726108
4317+168648230+169593266+170431973+171047684+171225210+170980821+170882206
4307+171452335+172233618+172223091+171350248+170644948+170806016+171425218
4297+171669851+171166679+170271562+169735399+169966427+170660036+171336117
4287+171885829+172274716+172174994+171415666+170515181+170227293+170653092
4277+171241443+171587150+171774190+171985851+172178203+172110476+171546859
4267+170576921+169688409+169269553+169211115+169227855+169281938+169504127
4257+169991442+170752139+171563486+172006175+171999907+172027981+172402944
4247+172738104+172592780+172157842+171840265+171724122+171816995+172180098
4237+172521376+172331858+171637367+171011898+170795357+170812735+170796877
4227+170722283+170793349+171204793+171818647+172210461+172232023+172276855
4217+172743133+173556432+174381684+174957086+175135625+174898442+174318011
4207+173423081+172381813+171744258+171930360+172546822+172823658+172643336
4197+172614962+173168914+173974556+174361135+174168071+173931751+174075630
4187+174251804+173886863+173096102+172469826+172144649+171785149+171436515
4177+171690907+172851845+174459882+175777140+176332293+176010401+175090943
4167+174193367+173818273+173951680+174230974+174377668+174393713+174434397
4157+174551610+174598975+174494899+174520195+175037217+175881497+176390430
4147+176124291+175257904+174260624+173581841+173522315+173915087+174156755
4137+174022691+174021246+174532712+175209338+175624535+175893151+176214556
4127+176311914+175803844+174847305+174014678+173715098+173994073+174672537
4117+175410115+175856276+175940817+175802343+175432859+174737655+173897953
4107+173330771+173317316+173922330+175172951+176924153+178499857+178936015
4097+177919181+176237882+174994674+174532806+174331879+173876616+173440045
4087+173774248+175058816+176539320+177297408+177045738+176171676+175370950
4077+175204534+175701006+176379809+176749949+176689072+176381047+176124686
4067+176243155+176891707+177784123+178366900+178421696+178169106+177761603
4057+177193858+176663663+176478781+176694139+177154750+177664077+178022732
4047+178184645+178273314+178291292+178141427+177962812+178011547+178264982
4037+178509727+178689412+178942208+179422166+180092224+180582673+180434853
4027+179704500+179102113+179157285+179470770+179351813+178934082+178906646
4017+179363204+179705382+179576610+179230172+179025191+179033429+179186560
4007+179511549+180026768+180498582+180581472+180260198+179908974+179852470
3997+180000458+179950015+179485652+179007119+179221464+180236028+181254682
3987+181495205+181165093+181059216+181375478+181564602+181377092+181374690
3977+182109809+183301017+184138711+184205930+183870470+183710171+183765249
3967+183702402+183546006+183644284+183983141+184143215+183913988+183532289
3957+183383024+183685306+184330987+184996672+185494514+185791805+185693471
3947+185052257+184362532+184428589+185296796+186093430+186125107+185560008
3937+184965858+184952591+186064775+188191428+190137984+190621621+189766099
3927+188836696+188663317+188852065+188703514+188597561+189557497+191515706
3917+192941657+192542111+190640875+188482638+187032836+186680073+187504537
3907+189570239+192754392+196234578+198812909+200111195+200380956+199312028
3897+196664957+193647914+192256606+193279257+195129262+195528658+194857494
3887+195183890+196736962+197951908+198527216+199370127+199599522+197674566
3878+194912459+194055999+195901219+199244827+202628725+204709195+204447898
3868+202780823+201638614+201193541+200135159+198134707+196398086+196097042
3858+197970392+202802216+210309297+215826980+213510471+206030976+199036881
3848+195162853+194953294+197657939+201684947+205676843+209197602+211826807
3838+212361506+210401194+207533436+205395861+204175022+203282043+202612342
3828+202552178+203337065+205345418+209128261+213569809+215330658+213486320
3818+210890742+209078682+207128034+204762941+203195175+203414775+205479219
3808+208295597+210350939+211973276+214634609+217529297+218072760+216608601
3798+215487278+214766271+213278674+211445802+210655098+211335496+213036330
3788+215448827+218407976+221329068+223771721+226278892+229436735+232578627
3778+234758670+236471665+239113125+243755131+250664253+258765465+266080439
3768+271908136+277145905+282389210+287929712+294721115+303539225+313735357
3758+324041157+334655451+347147205+362476148+379332491+393939732+403940041
3748+411838862+421234044+432836366+443317421+449909155+454791384+461425529
3738+471563768+484514012+497035829+505563010+509077838+509237536+508535201
3728+508603172+509683341+511221700+512858392+514360758+515363536+516377724
3718+519127464+525101009+534339645+544942117+553235698+557364436+560158576
3708+564110727+568530863+572381977+575397781+577134533+577720219+578553879
3698+580552041+583255316+586140584+589750143+594909883+600627798+603837980
3688+603398368+601681507+600197532+598459954+596438296+595168628+595714380
3678+598201696+600352351+599178052+596757092+596975265+598555923+596287005
3668+588945908+581307859+577722096+578988611+582999686+587326668+591620547
3658+596483672+600950535+603661505+605777780+610044223+617749980+625699619
3648+628173611+625200369+620823432+616729712+612741718+609555557+609058860
3638+611964244+616317686+619690118+622453294+627182243+634451090+640557836
3628+641871829+640333095+639326789+639848108+642265464+647091621+653463267
3618+659455316+664481893+668473039+670496911+670956452+672387470+675656276
3608+678503974+679429286+679653427+680485960+682144572+684664841+687771059
3598+690543618+692376903+693501060+694370074+695605851+698396200+703303200
3588+708268750+709832406+707304705+702981852+699381788+698044601+699239993
3578+701718602+703506248+703610662+702795393+702426454+703080260+704729113
3568+706942372+708107063+706515784+703218378+701441241+702678969+704977800
3558+706008427+706265145+707340060+709125529+710605789+711572086+711923084
3548+710893283+708408594+706299525+706612015+708998371+711215532+711816269
3538+710907320+708835407+706165085+704461060+705306354+708453783+711236851
3528+710844942+707730017+705097076+704856647+705647970+705219656+703326995
3518+701225507+699879987+699831346+701786459+705850943+710319495+713044238
3508+714222291+715432020+716135669+714175751+709823473+706128529+705059770
3498+705866181+706488535+705399584+702805001+700393875+699793664+701458505
3488+704753959+708161484+709695639+708568180+706517210+705932387+706404539
3478+705343361+702276627+699890796+700322339+702859723+705815738+708554368
3468+711213205+714119153+717156988+718933900+717743462+713905671+710116372
3458+708896734+710011208+710649851+708664187+705034848+702200437+701214698
3448+701302748+701264615+700870305+700805675+701410314+702091069+702216425
3438+702065772+702512552+703833226+704947174+704132881+700968488+697352136
3428+695956399+697796890+701524637+704643315+705016533+702393126+699068247
3418+697869251+699282629+700943642+700720477+699562767+699808902+701985529
3408+704472920+705661782+705723409+706025241+706713877+705705319+701693831
3398+697097520+695728055+698559914+702967815+705381118+704483054+701995062
3388+700401606+700234214+700049256+698976669+698134077+698879236+700822264
3378+702692931+704280607+705574408+705206595+702605181+700299369+701126798
3368+704467140+707348842+708300277+708237298+708397635+708903190+708819043
3358+707107587+704046107+701518857+701421274+704236544+708944550+713624557
3348+716547019+717366641+716795555+715190765+712633489+710184530+709308310
3338+709895759+710546939+710799604+711523294+713066532+714342093+714116976
3328+712220788+709563151+707636037+707598355+709343289+711344492+712014212
3318+711619076+711911900+713313042+714032004+713163815+712345319+712720638
3308+712594681+710296075+707391253+706470820+707596403+708942598+709607890
3298+710149550+711192563+712575014+713272508+712192414+709680852+707731893
3288+707777907+708922782+709465343+709340887+709637615+710680627+712178977
3278+714035457+715923689+717269208+717927068+718351554+718845249+718828961
3268+717513241+715233026+713691364+714374670+716633117+718118706+717583276
3258+716251943+715744961+716082148+716527427+716956342+717232953+716313120
3248+713484188+710025095+708247207+709058347+711430966+713986215+716186938
3238+717967753+718908753+718219367+715427066+711150227+707286990+705743301
3228+706484632+707518337+707117571+705642265+704950101+706263119+708828276
3218+710550842+710096705+708292170+707071181+707185203+707575085+707224612
3208+706356423+705297197+704154875+703521486+703946047+704829173+705111263
3198+704695109+703764993+701771146+698645937+695657795+693979667+693542120
3188+693565314+693645858+693907756+694233383+694087984+693577324+693885236
3178+695579878+697280601+697148038+695101647+692698552+691367519+691400022
3168+692159893+692575147+691710636+689627989+687454965+686290424+686322927
3158+686961570+687430569+687286672+686480636+684959617+682711979+680313614
3148+678768349+678555993+679285164+680295824+681029198+681127531+680744255
3138+680085194+678715879+676268046+673546155+671990532+672144488+672961633
3128+672670761+670740418+668736738+668574300+670375758+672600351+673859322
3118+674020559+673611236+672812556+671470639+669653418+667613708+665593814
3108+664224874+664273666+665403602+666149136+665571895+664211363+663255349
3098+663164372+663069941+661695822+659035183+656655433+655973328+656712557
3088+657403370+657032104+655770581+654269678+652919279+652015811+651970847
3078+652798802+653774482+654003127+653172395+651657005+650138313+649150698
3068+648779882+648784912+648938943+648995541+648643116+647860575+646772449
3058+644924677+641625245+637689496+635445912+636067215+638120062+639417766
3048+639168029+637721098+635733031+634169075+633697524+633793681+633519848
3038+632724246+631506785+629704126+627908223+627430479+628406647+629438100
3028+629483401+628664904+627346257+625869601+624788719+624267400+623832443
3018+623225851+622698640+622313750+621829176+621153863+620171090+618573543
3008+616623271+615451674+615769082+616716688+616765367+615638508+614533868
2998+614309765+614399579+613721790+611945328+609625217+607511943+606116168
2988+605550224+605376451+604932486+603976060+602831861+601920811+601368566
2978+601121118+601026763+600713259+599926101+599066245+598806524+599120216
2968+599209579+598446180+597036668+595690960+594758479+593774655+592022776
2958+589572204+587426090+586478071+586543790+586558540+585655371+583978031
2948+582336572+581190197+580357438+579624665+579118997+578938318+578736471
2938+577953293+576546821+575317275+575029968+575313221+575143990+574176529
2928+572810854+571484626+570554359+570142822+569708240+568528686+566756053
2918+565273804+564434102+563512017+561755410+559698660+558633691+558773761
2908+559014828+558720315+558491821+558771246+558970128+558506346+557700610
2898+557087901+556475305+555246997+553341051+551376029+549850018+548742000
2888+547942495+547524576+547438065+547289664+546581624+545286735+544080383
2878+543541312+543316759+542527162+540789508+538570545+536716430+535826398
2868+535953181+536672180+537302566+537224312+536362429+535327261+534648646
2858+533941019+532318513+529614712+526715220+524695026+524026470+524472237
2848+525211841+525152315+523726777+521410869+519116204+517344172+516136507
2838+515331972+514655271+514003679+513563092+513341879+513014262+512439423
2828+511788845+511073749+510115596+508991927+508103772+507736484+507612329
2818+507001609+505548748+503866116+502910703+502901733+503190729+503031744
2808+502166895+500765265+499133301+497620201+496568106+496039056+495713842
2798+495299302+494765973+493984520+492614117+490650709+488638397+487097598
2788+486090841+485383477+484695592+483768553+482425172+480716418+479043883
2778+477983831+477714539+477690181+477227487+476272600+475173289+474046468
2768+472912478+472009160+471412064+470759309+469747936+468498948+467269890
2758+466240689+465562637+465186454+464725825+463874188+462851292+462081888
2748+461496127+460553775+459086276+457624858+456582333+455706638+454696166
2738+453661823+452605862+451202356+449455206+447923753+447102104+446991685
2728+447158515+446957494+446034734+444748964+443773322+443304510+442970026
2718+442412977+441646875+440838625+439978881+438919805+437677610+436493140
2708+435546697+434759390+433926894+432965851+432019859+431300934+430833099
2698+430453351+430001992+429337188+428330957+427090339+425949706+425050741
2688+424207549+423292333+422440921+421766247+421117995+420254047+419119382
2678+417853805+416656724+415766504+415342994+415181719+414840554+414214033
2668+413571224+412950070+412107591+411134763+410472587+410235423+410022767
2658+409433365+408414298+407127816+405791454+404693983+404105745+404018108
2648+404099214+403978661+403438765+402401607+401003355+399622555+398565693
2638+397790509+397145747+396736537+396764010+397068732+397142107+396684442
2628+395897510+395109377+394384748+393631970+392823270+392018322+391354495
2618+390941794+390633244+390108922+389278979+388370068+387637107+387174751
2608+386886731+386533743+385973354+385320561+384719937+384141570+383556747
2598+383097619+382880234+382763810+382381848+381471661+380210813+379121674
2588+378574158+378472146+378427370+378141790+377642127+377182286+376872009
2578+376495564+375858159+375140098+374637884+374335526+374047994+373796005
2568+373676653+373523973+373065971+372304110+371461819+370703336+370086874
2558+369606427+369172145+368728480+368379283+368197066+368018038+367661410
2548+367223788+366919779+366765560+366627743+366441472+366171580+365696238
2538+364971984+364230691+363762480+363549261+363334841+362994539+362621096
2528+362323430+362152998+362156976+362327071+362523175+362552037+362316112
2518+361878639+361411892+361055076+360826507+360695032+360620494+360478398
2508+360135957+359674089+359306613+359041751+358689251+358216874+357811041
2498+357579131+357451410+357371242+357361146+357399728+357383365+357205613
2488+356796177+356152767+355407158+354759057+354267538+353821546+353372589
2478+353054994+353002862+353147998+353255527+353121839+352714542+352141767
2468+351572933+351214090+351179298+351286001+351191759+350828600+350470282
2458+350312611+350248544+350104459+349880205+349708196+349672203+349701741
2448+349681136+349621010+349578561+349463939+349159179+348771775+348502370
2438+348332276+348122923+347930909+347909216+347961948+347814973+347403248
2428+346938752+346637033+346567449+346697572+346925766+347141688+347329160
2418+347515468+347616992+347487582+347160829+346922876+347044593+347458270
2408+347778980+347699600+347308667+346933798+346743624+346646641+346521885
2398+346370744+346243886+346179181+346207705+346295680+346317449+346158689
2388+345749478+344932858+343415742+340892358+337131883+331971430+325362168
2378+317523173+309026619+300564293+292495153+284742950+277271543+270449588
2368+264723885+260133711+256391326+253403203+251569092+251509623+253721136
2358+258576905+266213453+276374680+288772285+302783106+316109120+325160021
2348+327457689+323476714+316652583+310846693+307147451+304326007+301406679
2338+298296539+295103416+291861126+288667008+285881650+284145329+283960334
2328+285160831+286945587+288511851+289695327+291057323+293328455+296698073
2318+300615055+304285960+307367294+310108177+312843316+315599774+318291902
2308+320947212+323498370+325647824+327217034+328438511+329687799+331055838
2298+332332224+333328059+334103018+334883457+335822469+336850131+337732694
2288+338313651+338701881+339112556+339520078+339667503+339443100+339039856
2278+338725902+338623440+338680601+338751348+338758667+338788730+338911610
2268+338974476+338768838+338377305+338157781+338333355+338732020+339025332
2258+339134099+339256266+339534452+339875167+340113795+340192237+340129709
2248+339990916+339959089+340252288+340846231+341434769+341754616+341811477
2238+341761860+341735775+341785505+341911312+342141421+342549618+343107530
2228+343618640+343900092+343947795+343896564+343907486+344056225+344260586
2218+344370817+344344920+344299244+344425689+344849237+345500003+346169123
2208+346725684+347181171+347547708+347775602+347842446+347810131+347789001
2198+347867818+348055891+348289677+348517196+348787050+349217091+349809458
2188+350350781+350633997+350726588+350838733+351020688+351203056+351417739
2178+351757553+352198891+352615533+352888165+352942398+352825636+352779735
2168+353056345+353634487+354277634+354813028+355185119+355363809+355430728
2158+355628371+356107767+356715296+357153444+357283492+357216985+357156784
2148+357172548+357185534+357197131+357370228+357763863+358160989+358343994
2138+358410501+358620492+359011800+359370530+359547156+359590430+359584125
2128+359581497+359706216+360085326+360648230+361151946+361415533+361439253
2118+361335928+361223257+361170562+361209370+361337467+361503470+361665458
2108+361871809+362180884+362521937+362756924+362850041+362886560+362960122
2098+363082964+363179872+363200327+363235044+363411481+363682162+363862615
2088+363870121+363794495+363753772+363788490+363859050+363879129+363785412
2078+363613140+363478551+363482905+363653750+363956182+364313073+364623462
2068+364816151+364876090+364794233+364561159+364258840+364052339+364017697
2058+364058870+364038790+363914897+363727463+363530570+363360926+363245290
2048+363217329+363312434+363545057+363880931+364202317+364336381+364204006
2038+363934451+363767884+363839495+364066038+364238648+364251333+364223935
2028+364351393+364685841+365121361+365514508+365797199+366062362+366471873
2018+366957911+367166889+366898949+366439182+366248107+366464104+366854961
2008+367161597+367358264+367565065+367803693+367956448+367943913+367792959
1998+367552792+367321671+367273217+367416927+367433966+367023254+366300014
1988+365619673+365206446+365083979+365111678+365022277+364655027+364156941
1978+363786801+363587468+363398420+363135622+362939217+363008201+363298210
1968+363463013+363202278+362612802+362042579+361682760+361487369+361375486
1958+361309693+361223257+361041077+360770396+360496001+360305226+360221454
1948+360224382+360403109+360951713+361744913+362087617+361386708+359959294
1938+358667144+357997349+357809877+357748775+357639895+357466498+357182043
1928+356846020+356815919+357336337+358028726+358374470+358535670+358895526
1918+359078269+358374320+356952761+355719949+355270054+355531839+356046852
1908+356330519+356143647+355554846+354788707+354070458+353567117+353393945
1898+353600558+354024782+354296738+354334345+354582844+355262097+355780751
1888+355542686+354864634+354365910+354125818+353927612+353719234+353538593
1878+353368161+353189434+353083068+353405242+354739052+357197732+359648454
1868+360296743+358740332+356436396+354828303+354240928+354290395+354533415
1858+354717509+354801730+354880960+355049066+355368087+355879535+356634190
1848+357898565+359991046+362294156+363021787+361466952+359250203+357983575
1838+357752604+357869403+358086488+358981287+361110586+363774828+365243040
1828+364965641+364127816+363439367+362498292+361266982+360427767+360306652
1818+360540851+360760526+361157689+362206518+363856835+365275730+365716805
1808+365412496+365198714+365722735+367210013+369351473+371220488+371939187
1798+371779451+372103202+374060154+377338757+379769212+379261105+376767258
1788+374959194+375038725+376289889+377631243+378855385+380089360+381067442
1778+381780961+383132336+386181956+390720168+394559722+395452644+393824734
1768+391432073+389491335+389061969+390693220+393268473+394854460+395288893
1758+395777896+396574249+397522343+399544226+403543591+408404465+411455811
1748+411693839+410668203+410070770+410568143+412121477+414081020+415556475
1738+416970791+420200414+425866348+430842257+431372883+428891572+426459615
1728+425186719+425440848+427275935+430078857+433582276+438798802+446648831
1718+455464670+460820064+460813308+458503255+457151955+458054035+461394941
1708+466821008+473229510+479155690+484745359+491898195+500918058+508414011
1698+512160824+514146451+515413154+515854154+517141950+520943972+526953098
1688+534317164+543595433+554773457+563422729+565622738+565051465+566344590
1678+570925738+578163396+586005469+592585605+598482473+604915071+610671494
1668+613779401+615658400+619189855+624704722+629950636+633236782+635713289
1658+639628020+646624498+657484139+669831320+676218354+675995640+676573406
1648+679979579+682412324+680186456+675422602+671816759+670598998+671910138
1638+675226235+677585943+674160103+665380933+657206027+652693713+650992165
1628+649868534+647882569+645118642+641512048+636636800+631880153+629483326
1618+629265078+628018042+623419516+617476635+612806911+609882048+607905128
1608+606023614+604090532+602400769+600945093+599405796+597649977+595873778
1598+594374678+593256151+592270412+591070404+589620770+588144339+586744698
1588+585330720+583916817+582790934+582189597+582010720+582271867+583552644
1578+586095208+588183935+587274686+584600086+583664227+585092430+586276712
1568+585079143+582806660+581557109+582385814+586569199+595475189+606626978
1558+610833820+606020237+600174750+597028223+596341088+597140293+598582420
1548+600700310+604556491+610974565+619600041+629359433+637906055+640660374
1538+637560461+635016997+636626516+641009796+644791889+647233041+650655653
1528+656373193+663397895+670387768+677289065+683949783+688920062+691756876
1518+693844327+695607202+696450920+696986951+699037921+704090545+712503704
1508+722290906+727204662+723174333+716519245+713154282+713611271+716707806
1498+720838570+723758630+724277397+724219522+726222527+730625923+734764795
1488+735739424+734181999+732748730+732731765+733785136+735340535+737514309
1478+740717435+744971304+749954495+754844906+757673162+757195231+755524609
1468+755555761+757738017+760143514+761100954+761806704+764709349+770538434
1458+776665147+777536338+772151932+766116121+762982580+762669188+763486409
1448+763195161+760553813+756540523+753038494+751059210+750905554+752792509
1438+756182469+758802423+758559967+756691702+755463282+755022582+754161749
1428+752686744+751837397+752389416+753888442+755827492+758092469+759559968
1418+758324717+754847608+751534139+749470858+748290554+747560407+747339419
1408+747906602+749073995+749750921+749114155+748209185+748788002+751065590
1398+753730808+755560189+756010798+755096069+753915465+754006743+755624144
1388+757421473+757998714+757913667+759350765+763797774+770792825+778512769
1378+785368878+791058644+796049791+800598136+804734831+808502362+811526235
1368+813287533+814330245+815930382+818119395+819239122+817972570+814876635
1358+811355539+808258104+805665698+803440505+801792327+801047468+800882703
1348+800355680+798986965+797456338+796944402+797973978+799995148+801883079
1338+802769584+802574343+801920386+801732501+802802387+805275666+808398849
1328+811108429+813101450+815093795+817822892+821024667+823740552+825571285
1318+827182231+829382053+832210009+835249720+838349483+841667531+845245676
1308+848679698+851236598+852641944+853581669+854844243+856385980+857794929
1298+858921938+859529955+859210483+857978985+856147952+853771430+850938445
1288+848090671+845400983+842405784+838767439+834902250+831527904+828941203
1278+826925663+825207376+823832581+822976177+822506578+822031723+821399085
1268+820940820+821214954+822590949+824910273+827406372+829090955+829478059
1258+829082173+829063407+830184185+832196798+834303765+836020476+837412536
1248+838782752+840469362+842664304+845058091+846883719+847666110+847827723
1238+848296647+849610715+851614320+853969449+856717237+860145779+864053829
1228+867350484+868850035+868637154+868220550+869035743+871130476+873611787
1218+875919550+878075535+880080266+881882324+883799831+886338641+889655188
1208+893581479+897822362+901670061+904063247+904630055+904331150+904553114
1198+905923555+908400813+911907872+916070389+919753172+921906605+922952320
1188+924376281+926922673+930008624+932757688+935032273+937515686+940929666
1178+944968778+948233306+949649160+949656216+949675057+950915037+953847783
1168+958164105+962764845+966093327+967261171+966909572+966406419+966228592
1158+965944701+965922782+967661336+971711333+976519173+980175910+982617437
1148+985235290+988636734+991555593+992365081+991356298+990621873+991555593
1138+993188832+993495768+992010104+990189430+989650547+991090872+994242954
1128+997954337+1000860360+1002672852+1004271412+1006283574+1008443612
1120+1010479494+1012649666+1015087966+1017336204+1018500369+1017893553
1111+1016272399+1015541427+1016680971+1018837181+1020691634+1021726164
1103+1022256565+1023354149+1026301907+1031174003+1035927498+1037942587
1094+1036947916+1035172055+1034415186+1034252297+1033511792+1032729927
1085+1033789153+1037170330+1040712819+1041698708+1039939211+1038109980
1077+1038846206+1041971490+1045122822+1047047985+1049078012+1052465419
1068+1055666969+1056183708+1054269955+1052566681+1052951308+1054746160
1060+1055953412+1056073965+1056590104+1058666671+1061849904+1064833168
1051+1066181165+1064728679+1060711486+1056457841+1054881200+1056772960
1043+1060314173+1063392917+1065138302+1065424296+1064847655+1065223650
1034+1068189874+1072280555+1073741823+1071538248+1068726055+1068078855
1025+1068912439+1068594994+1065651965+1061187766+1057876924+1057521196
1017+1059376400+1060972408+1060494326+1057796455+1054264625+1052508431
1008+1054540710+1059265005+1062904402+1062937205+1060033359+1055726644
1000+1050838410+1046326246+1043532444+1042539649+1041620717+1039141207
991+1035217994+1031072216+1027607568+1025206275+1024141870+1024498723
983+1025595031+1025848822+1023771279+1019368858+1014294315+1010309850
974+1007717144+1005518974+1002626162+998248212+992008453+984848936+978818980
964+974995377+972482764+969747662+966053393+961532822+956710494+952276696
954+948831415+946491824+944822629+943196295+941255143+939189535+937577013
944+936905492+937065678+937239451+936723988+935706497+934667012+933451278
934+931762041+930289438+930309179+932061921+934379743+936189683+937494068
924+938410147+938343791+936838610+934404439+932060645+930636683+930381391
914+930620019+930206192+929061843+928575354+929586389+930802499+930325468
904+928247025+926449470+925941513+925822687+924999612+923496157+922004713
894+921232982+921502836+922334619+922735310+922206485+921079026+919991876
884+919479715+919547723+919498481+919121510+919755499+922498408+925649515
874+925867650+922351058+917722620+914458918+912892860+912596283+913619478
864+915667446+917348126+917231327+915344972+913132539+911992244+912207152
854+913238529+914428292+915071814+914516041+912763525+910537881+908589449
844+907352396+907004625+907412447+908391955+910169543+912947282+916003582
834+917988121+918242812+917324631+916300234+916023774+916601466+917068288
824+916259550+914435273+913363886+914324628+916800835+919388963+921287853
814+922693199+923982947+925133225+926148089+927547730+929464035+930516956
804+929245825+926412839+924044349+922862994+922287028+922070845+922570395
794+923893771+925653493+927279076+928589391+930111686+932472970+935062073
784+936016511+934546760+932317588+931553964+932480552+933378241+932778631
774+931194783+930548033+931855795+933831702+934428534+933428609+932487683
764+933023414+934731267+935944750+935385974+933448951+931517558+930674966
754+931264292+932757838+933674143+932578811+929831173+927514251+927163703
744+928395726+930170161+932438891+935561098+938958489+941641197+943382603
734+944361511+944425916+943440778+941675050+939223014+935952406+932608536
724+930950600+932072355+934479878+935054417+932866080+930554638+931008249
714+934143367+937706048+940347471+942431244+944043616+944267831+942113048
704+937212503+930685475+925428226+923178187+921649286+917366667+911207676
694+907447952+907674120+909162111+908489463+904904713+900653171+898564669
684+898769818+898269593+894820483+889625462+884985389+881860706+880295023
674+879548813+876791868+868836148+857556526+852471699+860362789+871412791
664+874530193+870290811+864301690+860477786+859552849+860522975+861613127
654+861311896+859375023+856160188+852540007+850143068+849466442+849091798
644+847484155+845289213+844572728+845322241+845046381+842448120+839192825
634+837283201+836651238+835762031+833203780+829045016+825586673+824903517
624+825228919+822860354+817641088+813098297+811796314+813866726+819265245
614+827489693+835975588+841317358+840682693+832390387+818957257+807964604
604+804920839+807386162+809689947+811152116
##END=
