##TITLE=<SNM>
##JCAMP-DX=4.24
##DATA TYPE=INFRARED SPECTRUM
##DATE=3/5/2025
##SAMPLING PROCEDURE=Instrument type and / or accessory
##ORIGIN=Admin
##XUNITS=1/CM
##YUNITS=ABSORBANCE
##RESOLUTION=4
##FIRSTX=4497.3318
##LASTX=599.83466
##DELTAX=-1.4281778
##MAXY=1.727074
##MINY=0.17680679
##XFACTOR=1
##YFACTOR=1.608463e-09
##NPOINTS=2730
##FIRSTY=0.20229499
##XYDATA=(X++(Y..Y))
4497+125769127+125248255+125035280+125031852+124709994+124248043+124324825
4487+124799459+124781394+124197099+124034252+124771963+125724028+126146838
4477+126100008+126056929+126248587+126486205+126418771+125988707+125564610
4467+125483501+125692085+126052074+126667747+127512894+127967323+127300947
4457+125666451+124063268+123169854+122717954+122153865+121403583+120883731
4447+121117514+122239216+123607885+124219509+123723345+122684640+121840595
4437+121513680+121645546+121938416+121958140+121416878+120475957+119687117
4427+119521445+119919946+120394552+120552915+120352909+119908606+119262279
4417+118343295+117113303+115830643+115041823+115102920+115736686+116204640
4407+116018068+115427863+115059249+115159126+115470904+115699536+115749489
4397+115642922+115526740+115600641+115844484+116040154+116090394+116072338
4387+116009934+115734018+114997123+113850499+112863739+112563865+112635765
4377+112292062+111476560+110952752+111138574+111622073+111939540+112168005
4367+112539500+112928255+112972593+112496774+111672109+110871986+110416085
4357+110396611+110755906+111438521+112297574+113006612+113358810+113483098
4347+113534367+113463996+113277544+113141749+113104164+112999247+112637914
4337+111934834+111006771+110222462+109922820+110028775+110168748+110230596
4327+110502094+111179512+112010318+112616171+112990344+113368361+113712092
4317+113732667+113435036+113162232+112991001+112585821+111877349+111422087
4307+111771033+112833676+114106293+115200324+115943120+116265608+116225207
4297+115981196+115637762+115216407+114814367+114641969+114814932+115203780
4287+115553161+115677006+115414096+114553181+113172413+111984221+111841376
4277+112803021+114058638+114853787+115127452+115170095+115164620+115240837
4267+115548298+116045842+116462037+116586947+116437135+116200805+116193014
4257+116651417+117407044+117991079+118142076+117981917+117798967+117870153
4247+118245919+118585055+118571047+118417270+118460266+118523966+118290008
4237+117914084+117700923+117593625+117444703+117374554+117538012+117879139
4227+118298466+118765688+119155740+119267003+119160196+119209862+119589102
4217+119940096+119911339+119757618+119987575+120612095+121131002+121198557
4207+121032514+121105794+121508732+121807568+121659693+121294330+121129362
4197+121191776+121220013+121133874+121105748+121247926+121433275+121462597
4187+121334157+121262675+121434721+121793116+122094268+122164899+122065836
4177+122008676+122193951+122732990+123587819+124527359+125259511+125633489
4167+125628060+125255138+124600083+123815941+123001579+122244052+121768409
4157+121754105+121976465+121961243+121595075+121323911+121631965+122455721
4147+123213442+123455053+123399329+123536319+123767304+123521570+122804807
4137+122416543+122876966+123721798+124125551+123888656+123556913+123673930
4127+124158578+124541061+124596331+124475878+124400226+124488440+124734285
4117+124975164+125030471+124942211+124944620+125129404+125287211+125240732
4107+125206028+125532787+126190463+126826554+127184542+127190546+126851429
4097+126292750+125740973+125367921+125183313+125023570+124754008+124582778
4087+124878214+125604066+126354774+126916982+127308451+127399880+127042364
4077+126518028+126380788+126781104+127282400+127406309+127089649+126578051
4067+126202433+126240472+126612903+126798938+126390830+125570242+124789111
4057+124280319+124129016+124479454+125312447+126194243+126595643+126458616
4047+126205156+126171286+126276333+126294167+126200228+126121853+126117999
4037+126145421+126192344+126370171+126850864+127676445+128580615+129097920
4027+129022638+128693999+128631123+128948089+129309598+129372085+129116633
4017+128806782+128657554+128567737+128300668+127898304+127705312+127938215
4007+128391689+128704422+128831518+129069441+129548411+129905361+129740773
3997+129232242+128895607+128892263+129011873+129200474+129603857+130169271
3987+130657116+130969552+131148416+131202825+131162146+131154614+131334461
3977+131797718+132501095+133177013+133447584+133109449+132275993+131310198
3967+130689634+130810847+131709689+132901217+133699719+133867244+133718572
3957+133511118+133193883+132870682+133032361+134073595+135657926+136760470
3947+136798203+136566051+137135801+138116076+138158942+137024732+135770245
3937+135251541+135703357+137112372+138996187+140262374+140234674+139646127
3927+139818377+141038475+142218626+142332511+141855487+142080330+143294546
3917+144094076+142841108+139824028+136957529+135565617+135666384+137248046
3907+140945398+146785444+152950627+156919680+157898371+156474701+152870594
3897+147898374+144064875+143636720+146083475+147916522+146718325+144972509
3887+146009343+148971106+150649440+151045755+152314184+153340123+151581292
3878+148598527+147837313+149918123+153463365+157537845+160785159+161050412
3868+158961033+157434771+157135110+156222103+153857187+151580560+151369910
3858+154633103+162286500+172895778+178697128+172798578+161705967+153279952
3848+149645930+150302477+153835073+158638916+163760346+168837807+172717738
3838+173341999+170490211+166415361+162711395+159482331+157052585+156283469
3828+157131553+158848084+161992361+167815445+174308980+176252206+173315688
3818+170152345+167675129+163635390+158694539+155963705+157142688+161659220
3808+166721710+169501774+171206373+174563913+178173106+178380291+176218336
3798+174918232+174023030+171753221+168916979+167591473+168459771+170996520
3788+174639731+178824399+182705498+186159738+190298511+195480047+199921964
3778+202187623+203725743+206958605+213047479+221758406+231411801+239673784
3768+246020648+251780698+257947521+265321157+275225353+288021562+301860904
3758+314610551+326857632+341193796+359574016+381397821+402042847+416955505
3748+428436583+440605771+452235781+458381444+460449330+465085555+475640360
3738+491107389+507109186+518346615+523121766+524061566+524454740+525871499
3728+528224686+530348490+530919130+529516563+526457628+522541603+519444388
3718+518976211+521793017+527564258+535178264+541801961+544518417+544411174
3708+544562070+546274840+549946214+555461688+560681634+562852797+562419528
3698+562219421+564128777+568652646+576327499+587441232+599132016+604694811
3688+601274719+594782018+591290221+591964360+595192571+599035520+603473157
3678+609849388+615677215+614700469+608417288+603931513+601952008+598192735
3668+591792416+585984971+582816643+582078915+582555985+583685442+586316741
3658+590858730+595641034+599600785+605073051+614454782+625231112+629623021
3648+624091316+614945638+608427626+605764125+605533261+606022523+606568408
3638+607787765+610501997+614756981+620477232+628264219+637450030+642842698
3628+639689527+633051896+629995740+631876970+637314921+644902246+652578137
3618+657873197+660658615+662587426+664232975+665578585+667305659+669463556
3608+670726529+670621287+670743797+672631253+676183305+680036184+683048391
3598+685668313+688645316+690788020+690359938+688726174+689584782+694084972
3588+698044871+696486184+690866877+686202303+684622494+685218591+686457996
3578+687241008+687192019+687009180+687913146+690315618+693230365+694916158
3568+694051546+690781275+686637796+682933959+680161066+678634618+678503363
3558+679797241+682563835+685889617+687650486+686927284+685309380+684021875
3548+682407677+680943707+682319852+686923949+690399070+688713575+683403989
3538+679354782+679478255+683089450+687761212+691334831+693014620+693080730
3528+691950717+690242172+688824449+687834956+686607854+684824528+682581548
3518+680155359+678364696+677985604+678825091+679975855+680618200+680039074
3508+677644013+673761933+669847984+667357686+666793680+667897087+669965454
3498+671836457+672393644+671355458+669306138+667232731+666381830+667686010
3488+670300819+671638202+670352328+668270175+668233934+671107548+675399107
3478+678737636+679071964+675926574+671362351+668610135+668904589+670186091
3468+670111088+669760085+671917834+676225031+678903948+677659058+674413319
3458+672322940+672423660+673486081+673752298+672855299+671977273+671900195
3448+672044420+671898268+672020185+672585154+672350139+670398130+667855879
3438+666514271+666469803+666391539+665605192+664547959+663485686+662306758
3428+661618240+662474106+664516683+665704134+664721385+662687777+661512332
3418+661607494+662083972+662009339+661091662+660050808+660054069+661162292
3408+662187286+662221823+661182081+659268907+657235225+656578206+658186920
3398+661017548+662830520+662329510+660321101+658686077+658511613+659514817
3388+660794614+661418948+660486301+657696954+654122001+651708856+651932458
3378+654785764+658746553+661833467+662943024+662324026+661131387+660588800
3368+661115823+662106206+662580904+662163273+661319858+660590356+659996483
3358+659165296+657800936+656130930+654855580+654497388+654660438+654380065
3348+653555846+653249163+654060042+655061023+654925914+653468392+651470803
3338+649704152+648752235+649099236+650629389+652605188+654590326+656477115
3328+657582671+657160815+655687877+654127041+652474971+650602041+649746397
3318+651476287+655297965+658376948+658194258+655045385+651284481+648878377
3308+648355726+649135626+650159063+650798665+651204883+651523868+651577082
3298+651398616+651125284+650639765+650059009+649909818+650429430+651224004
3288+651673208+651390389+650537710+649730685+649491298+650106590+651750360
3278+654035510+655964396+656976049+657386862+657438149+656828415+655540169
3268+654374285+654086649+654296243+653892767+652618158+651468802+651213035
3258+651479104+651461390+650658219+648942263+646742343+645045508+644558136
3248+644984660+645544812+645851199+645800579+645247616+644463344+644349802
3238+645302312+646448630+647040206+647723091+649045281+649581568+647352225
3228+642903101+639102842+637856248+638469466+639261445+639822487+640999488
3218+642930449+644211654+643520246+641408744+639618822+638985816+638871459
3208+638374674+637407934+636528574+636134288+636104495+636181128+636452014
3198+637129118+637808000+637472783+635643136+633123564+631220544+630394101
3188+630004633+629279504+628041137+626424567+624624417+623328093+623481656
3178+624864027+625788819+625103562+623513599+622184665+621326057+620755306
3168+620498465+620246404+619251723+617217559+614854218+613307464+612916254
3158+612621652+611251992+609368983+608688544+609635533+610703809+610412579
3148+608754468+606549805+604544694+603238883+602689515+602428078+602032088
3138+601534674+600952436+599860888+597841435+595091258+592335299+590379474
3128+589773816+590567686+592166913+593429701+593238784+591521789+589578897
3118+588801146+589127766+589283442+588445808+587100531+586178111+585893625
3108+585718939+585224971+584473939+583566156+582472236+581499234+581168353
3098+581385543+581430827+580870563+579800360+578310673+576576151+575322405
3088+575291648+576230484+577140565+577593215+578059872+578788966+579158720
3078+578583486+577363721+576101008+574888728+573506766+571839316+569841839
3068+567618314+565672456+564638680+564631121+564992685+564818332+563927558
3058+563061428+562719318+562390661+561552063+560609929+560134563+559841925
3048+558940923+557126247+554945523+553368085+553044245+553836707+554960049
3038+555504786+555031828+553991938+553311647+553198105+552776583+551327362
3028+549296125+547642350+546775886+546369446+545771496+544694511+543807925
3018+544136472+545482489+546159000+544906106+542382420+540079594+538581384
3008+537556353+536712642+536029349+535352839+534364087+533022405+531816870
2998+531365146+531684762+532062335+531805308+530931210+529916704+529023484
2988+528158799+527113275+525720751+524093880+522719551+521988381+521765224
2978+521739544+521835040+521827665+521192732+519886922+518580184+517714758
2968+517053477+516312339+515437389+514238784+512647375+511298579+510972960
2958+511507283+511940923+511610301+510537356+508982189+507226767+505640287
2948+504498787+503793965+503403533+503245671+503131980+502789278+502236537
2938+501864783+501911030+502029871+501597677+500347192+498535851+496622529
2928+495045351+494139791+493819175+493411549+492294469+490665856+489250875
2918+488361880+487718165+487060146+486406388+485798210+485323548+485223532
2908+485463327+485485079+484895727+484013513+483245250+482451639+481425608
2898+480385013+479479676+478389166+476877838+475364026+474516387+474485963
2888+474805690+474895590+474448276+473489800+472340184+471330902+470402998
2878+469282545+468052145+467081773+466450398+465893544+465220924+464430093
2868+463598722+462927881+462658811+462732257+462731442+462334859+461617327
2858+460705616+459477624+457996979+456886162+456652333+456805452+456293807
2848+454822686+453203448+452383045+452478578+452759654+452443744+451396628
2838+449996099+448634295+447619085+447117853+446846189+446246016+445227618
2828+444306198+443878710+443801446+443743897+443570286+443256636+442689703
2818+441759500+440621038+439666119+439110340+438726097+438171022+437472648
2808+436905121+436453991+435770884+434706128+433531165+432537966+431735092
2798+431005404+430290354+429555887+428760349+427894107+426936631+425824035
2788+424636399+423725207+423342150+423172540+422589784+421398960+420000285
2778+418838774+418016185+417394852+416810872+416181868+415529259+414904406
2768+414296562+413633947+412835297+411843284+410685701+409525450+408578275
2758+407926370+407430512+406877846+406174580+405333388+404384435+403376488
2748+402340488+401262392+400243957+399517457+399066956+398480012+397429783
2738+396083765+394868707+394020734+393410963+392713515+391805176+390946086
2728+390369444+389854501+389023426+387907754+386875683+386101750+385412788
2718+384597573+383631092+382610175+381667484+380938909+380425300+379890532
2708+379083174+378052584+377084288+376397327+376042322+375917255+375724411
2698+375128091+374120107+373049459+372195372+371477394+370656955+369707594
2688+368880151+368353535+367908297+367167974+366175850+365436898+365269068
2678+365380794+365250576+364684013+363803208+362739342+361587539+360490470
2668+359593359+359005748+358759542+358666196+358398534+357862654+357234021
2658+356575520+355757971+354750764+353692049+352751656+352085670+351729108
2648+351483458+351124154+350646750+350139034+349595113+348986602+348331510
2638+347640510+346936466+346302497+345817681+345469865+345123087+344577165
2628+343782331+343028891+342725395+342899080+343099410+342902119+342325402
2618+341631846+340972122+340389921+339925190+339513044+338969975+338222426
2608+337418217+336778467+336439508+336371027+336344457+336093100+335593054
2598+335073591+334697167+334355761+333851269+333199586+332659593+332437845
2588+332427728+332312111+331901298+331299939+330754832+330414020+330249709
2578+330144431+329998130+329791241+329594247+329461806+329276521+328812902
2568+328058165+327358012+327106247+327347006+327785092+328141135+328398495
2558+328690022+329015196+329164387+328966133+328515113+328037227+327605626
2548+327162648+326768770+326596900+326630511+326564475+326120867+325362276
2538+324613912+324151738+324005474+324001620+323969159+323916834+323958042
2528+324077624+324131060+324101304+324145809+324310823+324407468+324265206
2518+323938550+323604667+323378472+323242251+323090947+322871126+322668832
2508+322572262+322504855+322309454+321954264+321560683+321234916+320904813
2498+320370749+319592739+318860088+318511382+318529837+318584681+318411477
2488+317984433+317408050+316851863+316529320+316529728+316689443+316775081
2478+316729687+316586944+316263919+315670082+314955032+314412408+314143523
2468+313984475+313758168+313472793+313250563+313132982+313026702+312870989
2458+312770491+312825743+312902895+312780645+312457731+312092053+311743830
2448+311402758+311107785+310861727+310627658+310484396+310521323+310594844
2438+310474668+310162964+309848277+309657508+309578799+309505464+309321847
2428+309024002+308705646+308422976+308188647+308041012+307992375+307983111
2418+307976533+308019464+308168377+308412267+308662141+308797973+308776388
2408+308704460+308755784+308989131+309273969+309425032+309406207+309341561
2398+309315881+309267151+309131263+308978830+308909848+308888652+308773201
2388+308455605+307895582+307040995+305784136+304004720+301639508+298712291
2378+295322530+291654546+287988989+284579125+281452653+278452157+275557976
2368+273047761+271228990+270101626+269437104+269217393+269850029+271880913
2358+275598665+280880866+287359522+294816111+303050968+311087256+317220431
2348+320150446+319926622+318054619+316204109+314478295+311920702+308262242
2338+304123024+300123103+296432384+292970826+289789343+287219188+285603804
2328+284888124+284569101+284157066+283708084+283736877+284512200+285700930
2318+286828979+287771410+288661535+289632685+290789527+292197633+293756061
2308+295208691+296363384+297224031+297913622+298566083+299234052+299799207
2298+300084860+300149932+300301346+300713956+301230177+301605564+301772894
2288+301837392+301953491+302182873+302393356+302386982+302160917+301916990
2278+301810748+301802206+301724905+301431267+300946025+300497785+300279946
2268+300215967+300116822+299985195+299945730+299952196+299812418+299494747
2258+299222935+299216950+299432177+299631673+299679309+299637287+299590892
2248+299549758+299523022+299526561+299540939+299587186+299752070+300030275
2238+300275369+300416445+300584813+300912155+301340996+301770022+302248538
2228+302847711+303465375+303974333+304465115+305145331+306074959+307149016
2218+308277250+309453436+310665826+311882978+313192495+314801357+316754663
2208+318800648+320695034+322497296+324438373+326623989+328963983+331318615
2198+333628631+335883432+338038142+340058410+342010234+344033058+346233089
2188+348567673+350818435+352777077+354426517+355830084+356981293+357901860
2178+358727710+359586875+360472275+361236722+361687111+361713273+361334848
2168+360687464+359990683+359396884+358854519+358217437+357383472+356310156
2158+355090057+353927360+352894251+351894753+350880098+349953194+349370066
2148+349308033+349516145+349885157+351507619+355923133+363087306+371326832
2138+379330380+386977182+394425543+401615174+408499381+415128081+421641609
2128+428197011+434802661+441414538+447995805+454242745+459635265+463832958
2118+466678150+468079197+468233057+467664048+466976606+466904715+468476484
2108+472730652+480276622+491217929+505040596+520064869+533504033+542843260
2098+546728268+544574521+536994163+526305806+514839884+503348430+491578641
2088+479055227+465330724+450595828+435633847+420994373+407070949+394504919
2078+383691495+374534885+366925807+360771361+355794472+351784471+348611030
2068+345983251+343664416+341609241+339721229+337940571+336354759+334930440
2058+333640341+332738487+332304107+331994496+331673324+331648718+332205980
2048+333469027+335541656+338559459+342881626+349099625+357698900+369073921
2038+383693904+401655529+422250750+444221597+466016906+485835008+501950643
2028+512984704+518132426+517710830+513056632+505689425+496959413+487911305
2018+478895511+469714480+460272791+450764622+441375035+432043590+422505442
2008+412632967+402682153+393058663+384008220+375672420+368220909+361748848
1998+356176343+351404490+347464934+344281080+341391939+338307546+335069514
1988+332069833+329547629+327561676+326107490+325053332+324192723+323356979
1978+322395686+321262338+320124172+319189449+318589313+318490408+318923418
1968+319437138+319385665+318676508+317835872+317300215+317024326+316802207
1958+316615811+316504344+316344258+315983176+315468122+315008876+314786164
1948+314897594+315471827+316565488+317682531+317800223+316521168+314719128
1938+313421358+312797209+312533179+312450542+312494973+312589060+312706086
1928+313018587+313904803+315466565+317034887+317869260+318279110+318909151
1918+319267417+318422149+316808173+315767727+315853328+316575271+317181484
1908+317229844+316769930+316208370+315853069+315638806+315428619+315411795
1898+315909544+316780862+317441364+317781806+318465580+319700983+320471618
1888+319879819+318498709+317383111+316791535+316487928+316359970+316362490
1878+316392877+316407811+316552332+317346276+319570876+323323961+326935860
1868+327770937+325290015+321784395+319442437+318609768+318538434+318568042
1858+318465839+318256023+318070109+318037684+318307162+319118337+320754807
1848+323518436+327384581+330960424+331621630+328796301+325222942+323305544
1838+323113552+323485937+323837681+324986222+327976158+332020807+334565948
1828+334545233+333444940+332167997+330188825+327778941+326267353+326171079
1818+326746721+327225941+327799730+329174763+331348039+333203737+333700299
1808+333147410+332737190+333415739+335495150+338508209+341151737+342203856
1798+342000599+342373021+344897299+349142278+352079111+350888510+347117452
1788+344525470+344665360+346568120+348852715+351082984+353040774+354257315
1778+355116368+357207859+361870357+368426278+373517932+374066967+371156445
1768+367632149+365139517+364824125+367245163+370931065+373323865+374154273
1758+374954554+375980289+377039894+379518185+384806166+391550706+396076131
1748+396627501+395016786+393671398+393810288+395490595+397617513+398731443
1738+399521570+402824748+409414279+414648232+413558722+408794428+404549524
1728+401869088+400957043+401870236+403950610+407139208+412990936+422590895
1718+433181163+438243098+435429108+429506268+424978582+423520949+425588835
1708+430829866+437321122+442571676+447000160+453571052+462668186+469819611
1698+472004189+470743884+466696308+461408363+458891829+461014670+466422309
1688+473787811+484007695+496635165+504751922+503119826+497776073+495304934
1678+497543171+503614572+510704816+516302705+521298233+527171010+531725339
1668+532175136+531255829+533489803+539186263+544616136+546971880+548290698
1658+552434362+561758062+576670276+592634423+598608291+595648445+595534977
1648+600697039+605088726+603011798+597766691+595178638+597157810+603558239
1638+613452838+623282513+626210007+620975239+615165570+614004652+617124287
1628+621768813+626362904+631519667+637006311+640840810+643464290+648433916
1618+657089073+664729093+665187486+660195997+654916798+651014114+647927052
1608+645233683+643145823+642152921+642792078+645384875+649678064+654833420
1598+659826910+663780362+666117096+666806873+666436304+665698723+664835224
1588+663750124+662533175+661573624+661123605+661227809+662523466+666481068
1578+673626527+680740858+682557313+680486055+680912209+686169100+693378297
1568+698943872+703549821+709949917+719660306+734247011+756303646+783980106
1558+802838582+806666337+808383553+814183476+822189692+829991873+836674565
1548+842463741+848744663+856647564+865626969+874030286+878010567+871862310
1538+859221907+850111766+847179083+846994910+845783669+844137083+845032970
1528+848804843+853183115+857108849+862035637+867987048+871907297+872380439
1518+871084263+868616941+865179618+863063002+864979288+872065530+883836060
1508+896532344+900019546+889049594+875167488+867522651+866413464+869426338
1498+873254167+874181553+871428892+868775248+869863535+874282199+877778073
1488+876693417+872278978+868017361+865712422+865059998+865060739+865903265
1478+869010708+874860657+881757094+886667429+886815137+882426341+877502443
1468+875600387+876915462+878646686+878291533+877730566+881016919+889298690
1458+897937542+898070131+889234878+880336555+875802273+874993173+875746391
1448+875425108+872484347+867992755+864194423+862416211+863056109+866102853
1438+870537971+873436042+872305066+868891236+866441776+865667287+865071930
1428+863748925+862643740+862711554+863975639+866589633+870578956+873702629
1418+872388814+867067667+861689007+858423998+856799868+855480939+854043725
1408+853304365+853494764+853041632+850853422+848774679+849279246+852176650
1398+855135272+856536690+856173607+854044095+850861427+848332664+847084959
1388+845442301+841644562+837242129+835762224+838509252+843848261+849708364
1378+855594111+861852502+867614700+870858735+871308309+871315721+872803851
1368+875622547+879018293+882623558+885529782+886309607+884915823+882988198
1358+881905173+881873971+882370756+882713532+882665284+882679292+883384632
1348+884918640+886790013+888389462+889767831+891755266+894975807+898826981
1338+901952286+903756067+904731553+905497297+906486345+908263371+911062649
1328+914156011+916532321+918102718+919718102+922223964+925783945+929857017
1318+933675433+936821934+939258129+940972306+941907993+942176878+942115660
1308+942102468+942362162+942880144+943403980+943602679+943455489+943414059
1298+943717259+943685909+942418563+940037213+937483400+935375011+933703374
1288+932269124+930912397+929571679+928340649+927308095+926318899+924998339
1278+923109475+920931123+919179073+918414811+918519089+918698667+918112575
1268+916752513+915580700+915487909+916314130+917139980+917139832+915939114
1258+913698877+911025666+908312509+905291334+901646270+897655910+893928505
1248+890853968+888343883+885906576+883198236+880462029+878087275+876156759
1238+874880446+874776242+875795306+876947035+877340356+877061763+876743370
1228+876828527+877399648+878216159+878954110+879637291+880572385+881850032
1218+883250561+884574529+885817862+887169475+889117482+892265984+896535383
1208+900768689+903651641+904984577+905693253+906901605+909160074+911960686
1198+914168536+915588408+917486536+920829068+924821578+927981345+929876138
1188+931075003+932167588+933525501+935510268+938299615+941498811+944394659
1178+946751403+948739580+950079779+950291597+949938148+950576045+953206788
1168+957239987+960859333+962599525+963116765+964562058+967592126+970241991
1158+970719877+969984890+970125262+971759174+974205522+976935504+979815491
1148+982541619+984537429+985436800+985592439+985750524+986310157+987397999
1138+989188069+991415115+993258473+994569249+996416387+999185204+1001300338
1128+1001233265+999545027+997997975+997748138+998728441+1000217461+1002171768
1118+1005629843+1010680105+1014827512+1015439247+1013390372+1012024010
1110+1013083022+1015571170+1018117720+1020499441+1022494435+1023075043
1101+1021790132+1020022444+1019867102+1022226736+1026486723+1031448345
1093+1035664233+1037381746+1035970249+1033329279+1032216682+1032999398
1084+1033339432+1031855155+1030756492+1033093374+1038368127+1042857866
1075+1044458427+1044770669+1045684566+1046989710+1047866772+1048088521
1067+1047435356+1045944483+1044995456+1046555551+1050961319+1056387338
1058+1061184131+1065635924+1070019680+1073062200+1073741823+1072921902
1050+1071908544+1071083954+1070617853+1070287083+1068988980+1066414415
1041+1064274231+1063767663+1063357666+1060722624+1055649461+1050280140
1033+1047261559+1048002104+1052100078+1057603471+1061905258+1063448604
1024+1062804851+1061269288+1059320688+1057508532+1056969873+1057571899
1015+1057486816+1056109263+1055364494+1056493099+1057766892+1057206147
1007+1055694745+1055281857+1055830966+1055338628+1052748351+1048958691
998+1045587847+1043926735+1044442048+1046291780+1047919319+1048472801
990+1048129728+1047281644+1045868442+1043735966+1040900669+1037226404
981+1032614377+1027473177+1022761393+1019707312+1018922744+1019532478
973+1019724729+1018320643+1015528332+1011795072+1006740216+1000260076+993757110
963+988990630+986302152+984621622+982582752+979519036+975854628+972487639
953+969479434+966015207+962070279+958774216+956779592+955795064+955685969
943+956334094+956631661+955424125+953176031+951354240+950786084+951348237
933+952411918+953144533+953149128+953109032+953939551+955089797+954657862
923+951770241+948018823+945808528+946053696+947967314+950056063+950696480
913+948983933+945922663+943766841+943469126+943600530+942340817+939954353
903+938452215+939064766+940777313+941448413+940213603+938197634+936490349
893+934571247+931773673+929230385+928819053+931234125+935967625+941541797
883+945322045+945214950+942114622+938820338+936685787+934869184+932451444
873+929824407+927821630+926587932+925831971+925346229+924696103+923507688
863+922612172+923544745+926532865+930111968+932662742+933558556+933156118
853+932232957+931476181+931204850+931195956+930910618+930443553+930751125
843+931911080+932128160+930233885+928022775+928093553+930550055+933255060
833+934465486+934335787+934262859+935293708+937253351+939173713+940021426
823+939281623+937620214+936590847+936857657+937564184+938131525+939402354
813+942089794+945170037+947256859+948595651+949710841+949606192+947699541
803+945686314+945224214+945501919+945069539+944678589+946087418+948893218
793+950428262+949063605+946372015+944938654+945489319+946725834+947244779
783+947181560+947526485+948316835+948566079+947761500+946599915+946233125
773+947088399+948158972+947492541+944260439+940206118+937887839+938194818
763+940274451+942459622+942836342+940364425+936619233+934817971+936189447
753+938860137+940990835+943208319+946362232+948653459+947491948+943433403
743+939688063+938322738+938694790+939234560+939952575+942181028+945911620
733+949070868+949907984+949246147+949251484+950660980+952441415+953333523
723+952591570+950093861+946846713+944258734+942184215+939734384+937783709
713+937923265+939405986+940150310+940245250+941097929+942277228+942411522
703+941838030+941909253+942596584+942036284+938537668+932792960+927335369
693+923820523+921821600+920223262+918582975+916572935+913255380+907976255
683+901649827+896658931+894899988+896075507+898242446+899565451+898755239
673+894308264+885031441+872576248+864165963+866736823+874814855+879949977
663+881553577+882380391+882981898+881581592+877660083+873329689+870659147
653+868726037+865035170+860015517+857370693+859365391+864446558+869263213
643+871059361+869094530+864884941+860658677+858097971+858965918+864149288
633+870599782+872622866+868062570+859792138+851016102+843677799+839765703
623+840574507+844964341+848176729+843611912+829632644+813590047+804763391
613+806165624+814060669+822942762+829626344+833229089+834885458+837274368
603+841659755+845765659+846341523
##END=
