##TITLE=<SNM>
##JCAMP-DX=4.24
##DATA TYPE=INFRARED SPECTRUM
##DATE=3/5/2025
##SAMPLING PROCEDURE=Instrument type and / or accessory
##ORIGIN=Admin
##XUNITS=1/CM
##YUNITS=ABSORBANCE
##RESOLUTION=4
##FIRSTX=4497.3318
##LASTX=599.83466
##DELTAX=-1.4281778
##MAXY=1.794494
##MINY=0.26967797
##XFACTOR=1
##YFACTOR=1.6712528e-09
##NPOINTS=2730
##FIRSTY=0.29314232
##XYDATA=(X++(Y..Y))
4497+175402739+175989369+176556222+176860620+176571023+175720279+174914347
4487+174706725+174925135+175106865+175312293+175838008+176346675+176089996
4477+175006825+173930163+173603261+173957553+174386778+174345389+173661876
4467+172657809+172016041+172205171+173023996+173862275+174257297+174062051
4457+173351201+172464453+171865590+171682167+171705902+171898865+172392714
4447+172980413+173159610+172729263+172004201+171441983+171222021+171180026
4437+171135731+171136034+171150728+170898686+170366319+169976915+169843173
4427+169498278+168729009+167983600+167661138+167603450+167493015+167289726
4417+167124064+167064040+167127185+167351123+167725638+168105377+168305259
4407+168271271+168061723+167704916+167250263+166971776+167143038+167427428
4397+167068356+166018852+165149437+165042336+165399964+165778669+166093481
4387+166353957+166538040+166593499+166258340+165331719+164232232+163696067
4377+163883182+164227613+164104071+163360784+162314757+161500088+161362761
4367+161939922+162889796+163947004+165065518+165916851+165832665+164765989
4357+163719820+163629856+164303097+164929404+165243057+165611722+166122494
4347+166218200+165494582+164394327+163707498+163732160+164237064+164876942
4337+165319647+165325531+165039554+164930938+165195142+165480423+165420596
4327+165138346+164960450+164922343+164871627+164858592+165126630+165744859
4317+166392850+166643501+166430939+166041785+165686725+165453443+165559046
4307+166089754+166720590+167195500+167703989+168413323+169114847+169557802
4297+169614188+169106180+168022260+166828654+166113916+166028393+166379386
4287+167009081+167747375+168308755+168591718+168752351+168765779+168458136
4277+168121890+168320970+168933581+169208074+168880263+168486275+168502770
4267+168778226+168915713+168831331+168732986+168731826+168805403+169058265
4257+169588741+170154507+170380728+170240762+170097658+170358438+171090348
4247+171879036+172237911+172178280+172028399+171825325+171399631+170934154
4237+170907067+171534462+172596038+173671826+174343178+174362294+173832299
4227+173164193+172747238+172648072+172659307+172613050+172529452+172471336
4217+172487118+172772685+173558199+174656991+175458304+175605242+175356909
4207+175126890+174988333+174719939+174143812+173401417+172935654+173071661
4197+173648805+174256869+174716586+175105064+175502724+175959856+176486409
4187+176871569+176772154+176168833+175453311+174961531+174804856+175172719
4177+176236025+177693978+178949802+179716842+180043244+179988660+179674026
4167+179325101+178972253+178446948+177812474+177444986+177625734+178296907
4157+179128535+179730697+179975232+180064001+180142374+180078552+179779433
4147+179402618+179125076+179016263+179119797+179292111+179116070+178429829
4137+177795551+178000819+179122668+180382094+180996418+180955707+180807912
4127+180954262+181360126+181656731+181425891+180716914+180194641+180369291
4117+180975286+181506404+181900338+182284375+182487182+182169285+181306183
4107+180456098+180415958+181426391+182896345+184067394+184611922+184552255
4097+184109656+183651134+183384879+183181965+182867706+182472756+182200973
4087+182383166+183275977+184662762+185879247+186424381+186350110+185988256
4077+185601348+185383330+185421830+185503520+185273144+184678383+183983992
4067+183410362+183108086+183347342+184246109+185376714+186116078+186314409
4057+186253530+186147873+186064382+186098495+186272058+186410062+186375931
4047+186373755+186800411+187682523+188432586+188472352+187957551+187476506
4037+187223501+186961740+186624817+186512152+186977861+188060123+189306442
4027+190081113+190165977+189857139+189514099+189338272+189464275+189856159
4017+190177640+190056737+189482500+188844870+188586640+188813931+189261147
4007+189602833+189713928+189709042+189852949+190346227+191072448+191580491
3997+191378290+190374544+189182864+188762591+189476009+190675607+191454434
3987+191594703+191495787+191433214+191279303+190884032+190467807+190530827
3977+191354930+192550088+193231336+192931878+192176091+191769888+191849420
3967+192087696+192377435+192725148+192899673+192735009+192459821+192403256
3957+192659347+193145545+193736080+194310352+194749652+194879346+194551338
3947+193859747+193081580+192447409+192169600+192421606+193027780+193567582
3937+193985376+194613805+195490674+196151861+196238811+195901441+195489675
3927+195254520+195297514+195442063+195368522+195141481+195192339+195690931
3917+196323693+196626183+196369486+195735048+195183048+195053514+195321427
3907+195806698+196366437+196790561+196923287+196968225+197168143+197379384
3897+197362729+197185030+197047222+196958524+196793557+196705679+197148723
3887+198170587+199023222+198899554+198087292+197556709+197766435+198482046
3878+199340637+200205095+201023884+201707860+202097033+201869689+200947329
3868+199985383+199648084+199879762+200303690+200808772+201429230+201994461
3858+202358383+202682076+203281848+204279014+205215247+205531949+205331888
3848+205067863+205138532+205584554+205995678+206028989+205931839+206171915
3838+206711842+207186485+207579635+208088533+208690392+209213414+209587751
3828+209809995+209973696+210367808+211072951+211501355+211089999+210616854
3818+211257962+212862693+214277866+214884254+214948682+214839495+214754756
3808+214803295+215063576+215741454+217053949+218734075+220085640+220942982
3798+221612319+222122840+222489847+223022802+223917949+225041653+226249365
3788+227644548+229346911+231133460+232732895+234465484+236937864+240086304
3778+243241413+246184192+249315923+253012082+257294426+261725830+265696072
3768+269311772+273412761+278449697+284125458+290123967+296411324+302787806
3758+308846053+314706040+321228891+329406295+339432199+349761573+358538322
3748+366356726+375048986+385180778+395041911+403343642+411347182+420414455
3738+430667329+441639558+453267054+465556379+477269006+486308318+491867795
3728+495217490+498273023+501920768+505882148+509679042+513283597+517273615
3718+522167982+527859453+534366896+542257771+551213842+559171910+564815698
3708+569283337+574191934+580095004+586612469+593081180+599104048+604404029
3698+608393191+610775019+612100674+613415701+615939403+620325299+625559300
3688+629855678+632634667+634040710+634067102+633369501+633577212+635963391
3678+640090719+643623445+644510211+643685002+642465913+641194040+640761927
3668+641720522+642993892+643709111+644622554+646938403+650719141+654865869
3658+658580129+662311792+666287616+669305131+669889103+668032830+666456666
3648+668434628+673531391+678732296+682515887+685984916+690281294+693919445
3638+694223664+691324984+688655628+689542536+694407765+700310835+702944669
3628+701755610+700940958+702627397+705296040+707341978+708929340+710911938
3618+713543276+716648668+720012629+723857920+728978080+735024308+738726727
3608+737190935+733114965+731301561+732595545+734632782+735157908+733828686
3598+731744230+729783816+728332693+728752252+732885356+739591309+744109449
3588+743552225+740557179+737994603+735787389+734014499+734166217+736958901
3578+740777729+743325184+744195758+744375365+743971927+742372724+740200390
3568+739559068+741299075+742956625+742362310+741184378+742526866+746325579
3558+748991512+748090338+745320835+744170650+745826132+747844251+747047717
3548+743172325+738638064+735583102+734810320+736677365+741137657+746579369
3538+749866366+749289740+746912120+745822708+746335779+746568028+745727412
3528+745665926+749118335+756586085+764467901+767353171+763883429+758155900
3518+754130003+751729487+749203574+746672168+745663572+746647275+748195120
3508+748197046+746238914+744337489+744343837+745520058+745745886+744635931
3498+743911154+744755122+746179782+746163662+743886403+740784292+739751943
3488+742248611+746065798+747892684+747427189+746881805+747627624+749519420
3478+751991622+754087634+754749712+754097976+753186031+752233714+750854419
3468+750183139+752322233+756770899+759542114+757704885+753388606+750899999
3458+750989874+750470168+747341451+743516346+741513705+741448011+742649267
3448+745494450+749469276+752101255+752028999+751012984+751792685+755024259
3438+758661411+759317212+755112636+748397196+744225787+745407571+749898393
3428+753439892+754243417+753500879+751712653+747693889+742328499+739295435
3418+740149889+742538921+744549551+747175183+750992370+754034422+754642861
3408+753447524+751495456+749117194+746892219+745710507+745360922+744343980
3398+741823773+739133660+738430068+740255955+743863791+748943365+754842797
3388+758944659+758715621+754957352+750811907+748480865+748119083+748526588
3378+748379720+748074930+749666144+753897755+758369674+759809099+757391250
3368+752901356+748779593+746736293+747432681+750447272+754066805+755890410
3358+754934598+752830597+752011380+753121550+754954713+756433654+757422706
3348+757620146+756431372+754502271+753567072+754271378+755341959+755258932
3338+753856099+752157320+751377976+752084992+753926643+756099976+758144059
3328+759764661+760418394+759990918+758973191+757277765+754572815+752019940
3318+751355864+752503767+753622638+753082532+750919543+749016548+749480260
3308+752257823+755260573+757071909+757818584+757364002+755158286+751946257
3298+749432398+748578943+749558865+752250334+755741403+758679172+760719832
3288+762319106+763429703+763807606+763992848+764816131+766249564+767272783
3278+766767629+764621116+761910532+759509802+757198304+754669681+752285142
3268+750771249+751226187+754700210+760413330+765053158+765305236+761017489
3258+754921045+750234568+748908199+750599203+753405868+755811877+757543395
3248+758803000+759525779+759356586+758617472+758821046+760775540+762894091
3238+763056865+761534484+760220812+759717798+759161215+758135500+756961562
3228+755757096+754696215+754770612+756212248+757062993+755415286+752595567
3218+752049470+754960562+758451346+759007715+756818262+754763907+754279081
3208+754592716+754918763+754976183+753990554+751361998+747972858+745830554
3198+746654550+750467814+755028324+757641045+757714871+756305333+754306472
3188+752431867+751603020+752021580+752773748+753028108+752806488+752127932
3178+750353188+747177323+743611571+741422689+741469837+742573230+742597411
3168+740907192+739140294+738688494+738713959+738060796+737701297+738949131
3158+740615598+740361095+737946883+735070030+732935572+731892667+732183405
3148+733479529+734474359+734032831+732581280+731313544+730442542+729673683
3138+729549784+730475781+731367112+730813312+728828859+726486619+724516432
3128+722825999+720932706+718851816+717560471+718026037+720031960+722455016
3118+724135534+724225480+722615007+720312854+718640396+718009845+717858698
3108+717425730+716456222+715594493+715606333+716050715+715508469+713210025
3098+710134021+708317192+709015863+711738930+714612217+715596418+714333177
3088+712576550+711970608+712028598+711259312+709570519+708266049+708209200
3078+709034052+709741924+709633860+708858582+707893211+706595660+704623119
3068+702766204+702612703+704549579+706892104+707362949+705235125+701827795
3058+699240396+698808783+700178805+701646762+701771659+700423464+698052407
3048+694786024+690976255+687912163+686920543+687892618+689326694+690066664
3038+690501416+691364144+692071445+691490325+689719148+687636974+685412641
3028+682979456+681091370+680329145+679787185+678220651+676063296+674998635
3018+675787608+677473833+678565171+678345406+676969107+674868887+672621729
3008+670954549+670306808+670566874+671312622+671764065+670708320+667648864
2998+664062641+662266427+662969805+664763380+665897944+665983325+665695369
2988+665199487+663724184+661024298+658469069+657652705+658364001+659038705
2978+658751676+657605200+655884166+654198370+653677095+654688045+655975825
2968+656080964+654997900+653630517+652455296+651472235+650515139+649061448
2958+646697666+644141295+642769134+642824628+642983621+642149995+640843171
2948+640220681+640472687+640844955+640751157+640201279+639453962+638685032
2938+637848411+636676399+634997093+633094812+631507450+630480308+629918947
2928+629736415+629654386+628790945+626371455+623054857+620618462+620039054
2918+620716255+621841118+623377051+625052648+625654025+624321951+621717290
2908+619067335+616910694+615363989+614648699+614617528+614481432+613738466
2898+612777161+612100317+611533820+610546195+608971600+607080447+605168679
2888+603474679+602337690+601897018+601737312+601339223+600748830+600316075
2878+600015922+599508057+598579207+597253873+595720935+594293243+593210536
2868+592361361+591475522+590636119+590210033+590170232+589831239+588603947
2858+586796356+585218908+584175503+583243443+582130100+581287166+581141940
2848+581133380+580269047+578387238+576243257+574723694+574273214+574534921
2838+574573760+573980621+573373145+573306131+573380634+572814743+571344433
2828+569432807+567883178+567094062+566623753+565782174+564391431+562686946
2818+561041700+559977431+559692364+559531766+558743684+557593357+556787300
2808+556113809+554765721+552830378+551302148+550640926+550371800+550086947
2798+549861118+549604546+548810651+547154135+545032909+543442123+543144644
2788+543709965+543721591+542391657+540458740+539072526+538483631+538109152
2778+537269714+535732817+533984357+532880501+532691621+532695829+532008358
2768+530551029+528885561+527410400+526119232+524944867+523920649+523044797
2758+522254361+521447235+520421912+519111985+517945893+517430218+517291661
2748+516683294+515328679+513789678+512594270+511756615+511097924+510459848
2738+509561420+508083726+506099310+504218285+503101696+502849868+502948124
2728+502734956+501839881+500341609+498682668+497320884+496350128+495528308
2718+494630129+493647818+492714046+491910200+491132212+490213704+489206820
2708+488344270+487631655+486784013+485676840+484489706+483351291+482226606
2698+481130061+480086549+479019534+477947241+477022456+476221999+475348286
2688+474369363+473393150+472423963+471482666+470747440+470310084+470015458
2678+469656208+469161896+468598252+468040100+467409728+466539760+465491148
2668+464594717+464061887+463775464+463519071+463171305+462636514+461793615
2658+460595711+459210425+458025966+457363067+457130641+456932559+456461536
2648+455581155+454282569+452885941+451907767+451422086+450992826+450396192
2638+449859974+449492914+449014722+448154598+447009620+445959331+445299001
2628+444946990+444598047+444141041+443719984+443428425+443149599+442657962
2618+441815278+440741665+439718196+438877081+438150450+437500711+437013568
2608+436767874+436684098+436503385+435994272+435210185+434437546+433900222
2598+433558519+433133610+432356442+431271060+430207433+429465680+429172837
2588+429310610+429664189+429873933+429699354+429175476+428550881+428135031
2578+428050328+428073760+427868403+427338390+426656339+426075541+425783947
2568+425747997+425638613+425113986+424239275+423465138+423129355+423109240
2558+423059952+422879417+422754591+422822639+423001034+423137451+423156888
2548+423067049+422933057+422829665+422766967+422679374+422481436+422137272
2538+421714218+421327791+421028030+420865506+420964404+421284102+421488603
2528+421349511+421019756+420651875+420141549+419472802+418891218+418576228
2518+418480754+418497659+418528758+418477187+418329750+418121504+417802662
2508+417329962+416853269+416607575+416633895+416715603+416562923+416052669
2498+415395084+415038794+415253032+415815035+416238981+416239944+415843710
2488+415210341+414557892+414142755+414122962+414415198+414704866+414649728
2478+414187194+413618663+413282809+413189725+413089008+412845953+412587135
2468+412451859+412374930+412223783+412023063+411939001+412079234+412281917
2458+412139401+411455174+410619873+410195071+410232055+410337908+410217682
2448+409857897+409420970+409163685+409228666+409452141+409530924+409283590
2438+408692198+407931257+407381701+407332912+407638665+407855292+407701827
2428+407254093+406751186+406346713+406039319+405781927+405614482+405618976
2418+405736919+405777184+405679962+405613769+405738773+406019062+406284014
2408+406334587+406034255+405451708+404911032+404813097+405309228+406059791
2398+406439655+406162434+405545471+405028226+404725861+404568295+404507201
2388+404409017+403971732+402835956+400673323+397241528+392481082+386532646
2378+379680932+372330733+364899077+357627269+350636534+344160261+338446642
2368+333451808+328979782+325119405+322258065+320743851+320751198+322429042
2358+326055031+331907636+340125199+350864894+363681200+376152165+384496017
2348+386233598+382162693+376107869+371747759+369328947+366996087+363942765
2338+360620888+357409893+354167334+350689710+347352319+345130732+344699903
2328+345658890+346937218+347845668+348615133+350000027+352420051+355596238
2318+358980599+362196730+365023760+367391714+369519931+371721367+374013427
2308+376183728+378157980+380006907+381681113+383041541+384122322+385108093
2298+386034625+386725521+387086126+387292838+387609362+388129923+388777522
2288+389471806+390185527+390810764+391093085+390865830+390312742+389824529
2278+389608009+389556616+389445236+389161844+388800704+388549340+388452332
2268+388356572+388140052+387894679+387817109+387970074+388214092+388378435
2258+388440527+388485357+388548377+388590711+388579904+388503546+388364561
2248+388230533+388230926+388460428+388895429+389373692+389665108+389656014
2238+389465493+389302256+389268196+389398907+389764113+390336852+390867256
2228+391103606+391081173+391021934+391027747+391047399+391099897+391318593
2218+391722923+392120548+392324300+392332039+392262850+392286139+392580408
2208+393162990+393835518+394416638+394863873+395145588+395278653+395471812
2198+395948684+396677812+397441571+398061993+398495354+398848220+399314250
2188+399957641+400572392+400879286+400866340+400812201+400951079+401277661
2178+401730566+402356516+403183686+404106117+404999659+405841808+406661168
2168+407453636+408241255+409197388+410535133+412202777+413925736+415636783
2158+417573516+419901847+422551089+425407114+428399271+431443177+434442075
2148+437241429+439612237+441476963+443065966+444658463+446320329+448049102
2138+449944927+452073358+454373621+456836621+459565680+462575384+465703567
2128+468751503+471596151+474199457+476568552+478608320+480013650+480459494
2118+479896742+478555929+476691560+474417189+471774474+468855858+465779425
2108+462596141+459333575+456094155+453005632+450088585+447221575+444240153
2098+441096136+437908929+434855464+432082645+429679382+427584191+425595673
2088+423632798+421863617+420468523+419428221+418569380+417685646+416674838
2078+415652476+414834935+414298824+413956836+413677296+413314658+412770023
2068+412127917+411596513+411252029+410980763+410690310+410391655+410055194
2058+409605927+409121529+408828116+408827225+408974377+409054088+408971488
2048+408781039+408602323+408516835+408535916+408647011+408859894+409204450
2038+409670979+410152666+410548650+410946597+411533351+412292081+412983298
2028+413424826+413602079+413535957+413219719+412666489+411925627+411080018
2018+410230593+409428602+408657247+407922769+407286797+406750365+406188219
2008+405482558+404682565+403974158+403496251+403180370+402774185+402089174
1998+401245027+400586515+400340501+400401701+400427558+400133503+399548674
1988+398963132+398634625+398603882+398731918+398794688+398585907+398072550
1978+397456978+397021120+396901929+396993302+397038917+396856385+396480658
1968+396078183+395777030+395592252+395442781+395241633+395023329+394922006
1958+394960488+394976216+394827174+394532477+394154574+393719037+393317774
1948+393100577+393067159+393035774+392903565+392782733+392796429+392902067
1938+393000145+393048827+393026644+392945436+392912089+393014054+393142411
1928+393085740+392794574+392432364+392208996+392235352+392445631+392634048
1918+392674420+392680554+392786371+392881917+392792078+392571527+392432007
1908+392466602+392590858+392677844+392649169+392497274+392282751+392094869
1898+391991121+391951676+391911196+391875032+391949072+392194623+392503158
1888+392663792+392550200+392237956+391956562+391872786+391905276+391858377
1878+391712509+391646101+391782376+392026857+392169301+392084170+391842649
1868+391673456+391734514+391928993+392061951+392097045+392143801+392223298
1858+392234496+392191378+392294698+392693679+393268415+393690827+393744181
1848+393580017+393536577+393744074+394078180+394418136+394702241+394843865
1838+394852103+394908097+395161138+395548277+395889873+396079146+396194021
1828+396397524+396699782+396981996+397228867+397559657+398049011+398649426
1818+399237143+399695826+400027650+400364753+400814840+401331300+401800397
1808+402245278+402830999+403625821+404478634+405205908+405803041+406367933
1798+406932576+407523183+408243929+409150097+410142252+411131839+412212834
1788+413482032+414892640+416386240+418022427+419883302+421919147+423934057
1778+425693394+427100614+428271235+429394814+430592504+431937418+433433586
1768+434905573+436137572+437173987+438280554+439645654+441279666+443124741
1758+445094606+447007016+448694596+450215016+451748917+453329110+454814828
1748+456135276+457413961+458859449+460631982+462704384+464801322+466614477
1738+468164891+469770941+471683351+473864530+476051700+478153204+480330138
1728+482701945+485211345+487677484+489952496+492089094+494275480+496564045
1718+498870941+501330126+504236723+507467227+510556891+513220399+515582397
1708+518013300+520772388+523820182+527019158+530385224+533979115+537735244
1698+541611350+545637247+549608577+553282963+556855134+560683734+564863952
1688+569309229+574010722+578937222+583769497+588288458+592730668+597274344
1678+601930685+606793703+611963936+617249508+622322448+627135107+631919947
1668+636913926+642161123+647652337+653370950+659085639+664464510+669360197
1658+673676903+677378109+680841575+684941725+690121160+695453524+700379240
1648+705200530+710121966+714997609+719617608+723931247+727897798+731358267
1638+734019207+735473540+735668126+735558636+736102664+737229025+738387770
1628+739144288+739266190+738570444+737108693+735484525+734217288+732860391
1618+730472857+726944125+723592433+721392851+719797785+717822249+715017011
1608+711775379+708839537+706459421+704351640+702332807+700552071+699202449
1598+698303985+697646115+696855430+695701607+694330373+693064706+692072801
1588+691309363+690705632+690288783+690020086+689684268+689175975+688682519
1578+688378086+688316172+688813836+690284718+692629026+695438402+698346640
1568+701195960+704125383+707381494+711105882+715358749+720458223+727113960
1558+735152915+743025743+750419952+757857886+765394611+773043323+780863939
1548+788322130+794627141+799712777+804287268+809052065+813647598+816413462
1538+817022757+817445597+819049793+821884206+825322064+828759351+832022524
1528+835042607+837712747+840121467+842354930+844268124+846032739+848386178
1518+851621033+855100405+858132186+860802398+863744161+867069961+869737534
1508+870674658+871194149+874061302+878570740+882199903+883949611+883991909
1498+883304937+883531550+885306152+887206222+887832136+887551741+887839483
1488+889310793+891133399+892851365+895145743+898407632+901676511+903656969
1478+904164406+903814036+903207095+903052738+904079524+906065545+907917682
1468+908852096+908754018+908211915+908242159+909107312+909971966+909912192
1458+908968862+908826631+910882912+914016337+916620284+918125546+918529556
1448+917934669+916912235+916496029+917154469+918314640+919037563+918708877
1438+917109104+914765152+913331076+913985309+916122620+918425629+920112139
1428+921162320+921489293+920675070+918952467+917332008+916304224+915739082
1418+916141237+917998152+920163068+921040062+920569502+920071695+920341034
1408+920653956+919803140+917781668+916130252+916029820+916762158+916932564
1398+916348306+915701135+915086704+914101290+912678413+910833909+908174610
1388+904384599+900346077+898114825+898873769+901631003+904571767+907126925
1378+909980882+913460396+916935346+919675817+921641225+923250057+924785278
1368+926232906+927561343+928970738+930588701+932056515+932846915+933004267
1358+933176242+933999668+935566630+937346581+938788931+939874991+940781943
1348+941469058+941942042+942408893+943011269+943812011+944953922+946434076
1338+947960523+949312641+950365819+950771112+950285858+949473489+949426554
1328+950694290+952687659+954181936+954589369+954456197+954573677+955219991
1318+956278447+957398745+958045773+958100696+958194352+958804075+959515299
1308+959763882+959754466+959901547+959884214+959264006+958588803+958758210
1298+959622150+960093922+959419860+957620222+955018486+952019945+949123405
1288+946831880+945451943+944672956+943438246+940847209+937216476+933725621
1278+931211120+929683461+928652538+927590017+926202947+924383765+922057003
1268+919336076+916717720+914736834+913301903+911621313+909063801+905958765
1258+903193257+901167006+899582853+898061185+896620833+895659599+895499893
1248+895893987+896256911+896536878+897344255+898932616+900662636+901873594
1238+902742242+903783864+904844530+905267798+904968715+904543949+904387167
1228+904543735+905258740+906781691+908681476+910177180+911163807+912261137
1218+913866688+915617608+916942978+917857562+919015308+921031502+923746580
1208+926287330+928225846+930401747+933655005+937008837+938695133+938870532
1198+939371049+941058486+943207567+945091445+946569745+947364139+947240882
1188+946825603+947217272+948908347+951627990+954980182+958517616+961474501
1178+963370291+964788032+966834470+969640992+971858620+972333887+971951348
1168+972755158+975427724+978612506+980833272+981960275+982484974+982754812
1158+983414109+985158396+987538940+989228017+989949799+990850759+992485698
1148+993936607+994440762+994612238+995278097+996031691+995829045+994798764
1138+994558028+996373715+999510207+1002074709+1003298292+1004078777+1005505363
1128+1007617067+1009421627+1010016442+1010099683+1011652879+1015420992
1120+1019800611+1022887814+1024555208+1026025233+1028061542+1029904762
1111+1030492088+1030457636+1031065433+1031501041+1029996206+1027496043
1103+1027143534+1029963752+1033211232+1033482854+1030565129+1027805541
1094+1028859931+1034080094+1040271334+1044061417+1044766150+1043558545
1085+1041828810+1041216733+1042594173+1044961664+1046819649+1047940090
1077+1048957032+1049785379+1049585372+1048261500+1047232646+1048080823
1068+1050754031+1053814343+1056688200+1060030335+1063289442+1064779653
1060+1064670234+1064990217+1066181845+1066173642+1063815210+1061150062
1051+1060715667+1062218361+1063213191+1062440766+1061305560+1061846236
1043+1064177135+1066918605+1068741639+1068537851+1066231918+1064030624
1034+1064454677+1066708326+1067380890+1065131307+1062478784+1062691987
1025+1065867924+1068546126+1067730118+1064689350+1063028305+1064291975
1017+1067373187+1070715963+1073218694+1073741823+1071599876+1067614280
1008+1063742739+1061564129+1060701829+1058822088+1054542472+1049819974
1000+1047362394+1046574919+1044855312+1042290738+1041702913+1044068978
991+1047101899+1048683484+1049200336+1049799003+1050369423+1049604559
983+1046261640+1040867933+1035741995+1032526471+1030805937+1029134834
974+1026206695+1021783280+1017108429+1013388107+1010222013+1006706763
965+1003225394+1000874737+999880406+999309772+997911432+995336302+992543688
955+990349385+988151088+985109678+981538077+978181320+975304681+972891968
945+970917929+968805084+965485847+961286191+958576177+959211222+962311193
935+965461951+967147463+967158947+965824589+963868954+962447932+962691807
925+964878692+967936008+970141652+970353572+968245577+964074311+959297174
915+956279731+956122592+957671365+958986963+959013069+957982575+956755925
905+955885922+955375917+955098945+955029685+954971123+954383227+952676745
895+949881350+947092588+945732767+946124364+947176686+947497525+946494278
885+944651272+943056135+942660542+943910874+946632657+949724283+951459297
875+950882742+948669679+946246694+944565962+943786547+943575269+943614215
865+943859945+944162737+944093548+943539319+942818965+941912441+940560394
855+939429468+939686753+941107704+942153534+942125287+941968934+942846855
845+944649917+945975714+945482258+943310138+940960765+939992755+941183241
835+944133920+947135957+948086847+946348909+943669567+942604192+944486144
825+948558120+952127581+952830888+951222911+949901179+950260893+951506089
815+952852001+954927256+958109684+960696227+960412122+957389615+954173733
805+952639440+952398347+952472601+952972619+954370745+956057540+956581311
795+955883496+955894481+957839988+960439727+961686420+961655321+961836854
785+962402780+962322463+961585846+961206160+961215861+960619476+959416865
776+958653641+958863563+959899764+961217573+961742770+960856789+959643763
766+959730713+960956293+961599969+960777899+959240396+957641407+955751680
756+954154617+954715051+958095846+962375960+965360592+966869421+967725800
746+968275535+968737678+969378358+969919034+969921744+969768672+970386597
736+971884441+973276076+973553119+972501012+970401790+967703046+965580500
726+965595408+968099352+971140049+972113908+971113229+969768600+967677011
716+963793416+960327740+960539231+963430778+965122566+963715311+960456774
706+957662948+956397067+955710380+953305584+948908418+946411893+948958278
696+953818014+954701285+948960917+940368447+934178205+932362375+933779973
686+936809757+940103601+941635041+939929558+935752015+930695552+926175771
676+924007218+924168137+921780174+910921430+893254803+881834198+888038492
666+902337520+910569705+911498983+910379613+910815292+913437500+917893512
656+922114780+921592008+914150365+904325895+898949521+899919171+903218080
646+904505431+903982659+904117899+905139834+905146325+903284701+900883971
636+898774478+896506207+894573325+894566621+897021347+900286018+901822023
626+900494442+896900515+891994700+887649034+886193916+886887808+886653134
616+885199443+887171342+896746230+910220976+917123084+912930277+906680689
606+908416987+915317455+916797038+910880273+906181170
##END=
