##TITLE=<SNM>
##JCAMP-DX=4.24
##DATA TYPE=INFRARED SPECTRUM
##DATE=3/5/2025
##SAMPLING PROCEDURE=Instrument type and / or accessory
##ORIGIN=Admin
##XUNITS=1/CM
##YUNITS=ABSORBANCE
##RESOLUTION=4
##FIRSTX=4497.3318
##LASTX=599.83466
##DELTAX=-1.4281778
##MAXY=1.7181307
##MINY=0.18484028
##XFACTOR=1
##YFACTOR=1.6001339e-09
##NPOINTS=2730
##FIRSTY=0.20594589
##XYDATA=(X++(Y..Y))
4497+128705412+128487342+128133525+127779410+127319794+126592771+125824886
4487+125457137+125614750+126187997+127110767+128072212+128430396+127959717
4477+127305155+127284062+128022064+129011549+129699459+129753807+129059899
4467+127903759+127041082+127100458+127915548+128764192+129049935+128494410
4457+127226846+125937995+125309721+125206344+125127402+125301461+126348692
4447+127880692+128486439+127367436+125294607+123666233+123114116+123316113
4437+123757383+124161487+124309862+124038311+123563935+123378068+123574393
4427+123555005+122713243+121342703+120495512+120767352+121559534+121885088
4417+121619087+121391453+121467853+121474362+121183730+120817583+120454454
4407+119819820+118924018+118398051+118769413+119684966+120270021+120132234
4397+119608818+119104605+118643146+118097176+117530821+117192267+117190898
4387+117225475+116875951+116212253+115725603+115650777+115802654+115969459
4377+116058914+116073274+116240730+116797773+117487546+117737939+117384811
4367+116784214+116283530+116002723+116007360+116296614+116683416+116909075
4357+116822479+116472927+116211405+116526678+117479146+118527159+119159204
4347+119320012+119059393+118359814+117465680+116819592+116628044+116853405
4337+117398696+117964306+118100230+117797613+117652357+118065411+118659228
4327+118860899+118633004+118149223+117315116+116224759+115515505+115642824
4317+116205157+116499737+116395168+116271238+116413169+116760607+117122144
4307+117416352+117651882+117827748+117957182+118076260+118189630+118322919
4297+118547786+118856755+119193511+119642529+120324405+121102712+121662474
4287+121813410+121563762+121061541+120554125+120230666+120067130+119961406
4277+119962412+120161372+120440690+120579473+120502087+120221549+119831796
4267+119767847+120552886+121951402+122932933+122892685+122412070+122432874
4257+123108743+123852016+124219420+124291573+124309993+124411750+124661491
4247+124946918+125003584+124883611+125050071+125713807+126470061+126762509
4237+126359429+125414272+124402354+123881611+124017228+124427330+124665952
4227+124766554+125096848+125661191+125919211+125577696+125166524+125364273
4217+126071051+126670698+126904925+126958760+126944512+126806250+126592818
4207+126512805+126788389+127479530+128325045+128891353+129046079+129058968
4197+129107793+129006082+128589695+128062666+127748101+127700906+127720285
4187+127617718+127354967+127019775+126751455+126654392+126819855+127396221
4177+128392383+129436513+130089520+130380925+130642642+130901603+130854175
4167+130392277+129857100+129752866+130211923+130773073+130891350+130565405
4157+130171386+129955952+130035946+130491241+131118555+131464782+131317068
4147+130908178+130592989+130531694+130702102+131027805+131352242+131421936
4137+131199545+131063798+131314079+131694800+131876802+132094378+132726330
4127+133551115+134014158+133993028+133796470+133647871+133591047+133705907
4117+134097476+134789354+135718308+136710549+137477624+137733325+137302783
4107+136221431+134876528+133928474+133895350+134765849+135968486+136765781
4097+136890000+136769804+136922975+137286281+137374824+136915264+136177765
4087+135843113+136486277+137942744+139262019+139517925+138693439+137703339
4077+137542737+138379451+139441386+139814573+139299828+138425221+137804174
4067+137689156+137997156+138455403+138702472+138571390+138367903+138537483
4057+139014243+139290478+139178775+139054529+139217599+139474026+139571677
4047+139645273+139918733+140271479+140417312+140320519+140179705+140157364
4037+140275055+140454003+140606643+140766408+141068969+141510277+141857100
4027+141938444+141932168+142184181+142762866+143387508+143777485+143863830
4017+143688802+143303016+142790840+142292299+141946202+141812121+141885261
4007+142205274+142847497+143744984+144623725+145189326+145364856+145360377
3997+145472918+145720797+145730808+145168690+144251628+143611518+143573514
3987+143778584+143803010+143921232+144693383+145938932+146846569+147086895
3977+147064313+147088171+147040082+146842043+146648419+146521434+146314782
3967+146043119+146099143+146815726+147951901+148898958+149294867+149209081
3957+148874466+148478631+148166199+148149753+148667022+149575321+150227723
3947+150247512+150050237+150061905+150050265+149718686+149304152+149113675
3937+149161736+149570571+150622170+152095325+153061323+152874385+152087251
3927+151803463+152467664+153585744+154439770+154913746+155412967+156082020
3917+156297454+155208177+152948587+150729412+149611695+149733930+150813150
3907+152932299+156273801+160163665+163091554+164077798+163187547+160778548
3897+157647033+155381100+155297866+157067053+158582170+158253683+157408951
3887+158099375+160060334+161483854+162072996+162658228+162465460+160505022
3878+158354052+158178662+160096672+163019308+166102231+168094983+167594290
3868+165632399+164576163+164739541+164623396+163609513+162698551+163010052
3858+165352616+170404712+177196260+180486459+176194092+169013916+163952006
3848+162130026+162957995+165307302+168095225+170999423+174345925+177633275
3838+178950706+177490496+175026423+173156931+171752223+170415086+169555882
3828+169547855+170376439+172608409+176847136+181336909+182568964+180778032
3818+179291300+178469905+176386617+173258138+171241267+171748255+174716635
3808+178342510+180411606+181583074+184052996+187105094+187793526+186274182
3798+184933059+183911521+182192220+180288234+179517890+180250165+182046331
3788+184447899+187018656+189265991+191313873+194002283+197441984+200328004
3778+201873628+203323017+206386905+211658793+218462708+225079779+230065923
3768+233976871+238102453+242545570+247385062+253753919+262148307+271110009
3758+279059001+286802598+296610281+309809426+324973683+337517250+344994660
3748+351180769+359897629+370194550+378146596+383498832+389706509+398738501
3738+410856117+425892738+442389737+456835762+466249789+470906198+473323597
3728+475641614+478379026+480875284+482593430+483642309+484538651+486334538
3718+490127087+496385722+505469641+517667567+531252601+541938670+547463819
3708+549936199+552648282+558041715+566584991+575832473+582553080+586389137
3698+589054396+591968149+596014817+601634357+608437955+614367153+615773705
3688+611754006+606820793+605255297+607296287+610533405+612782435+614344468
3678+616931279+620187730+621810107+622113432+622455720+621611305+618539166
3668+615595204+615511541+618190731+622057892+625985920+630278510+636092457
3658+643452269+650200738+654217532+656018261+657316639+658829130+660124081
3648+660297591+659176521+658453354+660284106+664309169+667289375+667236481
3638+666451553+668154986+672585624+677820933+682307818+685093581+685546538
3628+684696498+684599574+685602040+687204750+690045195+695144467+701053773
3618+704054541+702549650+698765817+696421092+698075206+703550328+709824160
3608+713345084+712885422+709585464+705875013+704706561+707475487+712551441
3598+717047192+719263777+719477368+719330380+720168873+722147432+724695467
3588+726323655+725017975+721257684+718379318+718697879+721491389+724489177
3578+726074454+726000476+724902203+723750663+723238255+723342182+723367661
3568+722454743+720389615+718200594+717558855+718854477+720545170+721344997
3558+721918197+723060573+723672736+722438651+720197480+718725294+718543590
3548+719421716+721432534+724113476+726227178+727624864+729506947+731970499
3538+733098273+731168287+726633796+721713994+718657649+718352499+719890393
3528+721801009+723567022+725475626+727128995+727088244+724441274+720043117
3518+716364552+715999579+719582338+724943029+728413740+727670309+723864945
3508+720467318+719573025+720318021+721317656+722634138+724277300+725201915
3498+724807365+724140147+724883131+727228005+729803381+731922819+734150803
3488+736231353+736603254+734741883+732206960+730578102+729846888+729371805
3478+729338876+730628538+733280499+735284687+734249440+730986881+729047135
3468+729967429+731623480+731744243+730540330+728882268+726770801+724502066
3458+722772782+721585258+720886825+721347754+723070705+724718859+725001064
3448+724234985+723576781+723516436+723456837+722500933+720649097+718753083
3438+717457163+716789125+716755675+717877936+720753992+725110280+729354744
3428+731356101+730016896+726297207+722690534+720978310+720424406+719546131
3418+719288660+721754075+726204902+729279500+729257746+727766935+727319490
3408+728779012+730595907+730184967+726972546+723384423+722020783+723172248
3398+725414313+727298854+728244775+728669199+729275998+729762257+728896348
3388+726491726+724172554+723804675+725295933+726232616+724935877+722942343
3378+722610298+723547726+723822406+723739041+725139260+727781388+729714503
3368+730559626+731771808+734153932+736739663+738265712+738589189+738052420
3358+736759853+735134719+734421460+735551842+737518556+738041916+736214963
3348+733476135+731467850+730076198+728615112+727802695+728935386+731624225
3338+733907562+734804686+735256228+736089654+736544996+735389284+732485663
3328+728954532+726523612+726654507+729477966+733465183+736668963+738322555
3318+738548289+737338342+735004121+732775019+731752662+731699097+732005588
3308+733259118+736195816+739782673+741960966+742203909+741349250+739708322
3298+737985296+738232262+741007893+743137314+741565969+738262062+737490246
3288+740153084+743859811+746335431+746399426+743618059+739422393+736859682
3278+737327986+739285462+741127166+743186334+745708219+746883972+744461991
3268+738914678+733345612+730043418+729147039+730157999+732726446+735681620
3258+737134287+736533523+735496936+735748819+736907287+737124975+735712761
3248+734221056+734586402+737047495+740289493+742636826+742631238+739725010
3238+734841265+729531085+724936398+721985545+721516942+723393438+726496568
3228+729862012+732725701+734032945+733218366+731154803+729348710+728568252
3218+728807247+729778945+730807635+731179388+731120310+731710048+733431584
3208+735156994+735390401+733930284+731578109+729093996+727054868+725837619
3198+725190665+724758568+724924106+726010160+727341021+728415305+729824240
3188+731677194+732559269+731374130+728860738+725887162+722045964+717397861
3178+714067358+714305905+717303694+719828112+720096757+719086617+718579052
3168+719491448+721314825+722167845+720172747+715409393+709970254+706288113
3158+705492904+706846114+708604602+709434900+709636496+710928169+714242804
3148+717774754+718221156+714564046+709249769+705356496+704118089+704992491
3138+706644072+707612417+707222337+706235963+705966200+706674765+707164004
3128+706041668+703266559+700311981+698563178+698002568+698143894+699116039
3118+700459192+700242249+697312479+693336660+690859624+690444512+690739754
3108+690486828+689741013+689314131+689490992+689606392+688930830+687625002
3098+686474877+685958223+685951518+686151922+686341747+686166151+685179106
3088+683633091+682490491+682346409+682917821+683313786+682402433+679766564
3078+676676545+675061916+675487308+676903247+678022976+678327828+677994740
3068+677207429+675767203+673841687+672493543+672481474+673220882+673795050
3058+673915889+673297915+671854262+670800540+671522739+673285324+673887430
3048+672623619+670847251+669626054+668521226+666814143+664648142+662568561
3038+660868034+659706884+659068199+658433463+657328112+656208831+655883491
3028+656109001+655746636+654389849+652960575+652569005+653385968+654497874
3018+654535496+652875422+650478994+648989226+648810502+648666494+647331015
3008+645296804+644231907+644899051+645962085+645317068+642693119+640068499
2998+639126601+639402771+639577100+639507517+639815573+640172426+639460359
2988+637491708+635325335+633775371+632742509+632285976+632971074+634496303
2978+635063022+633207312+629946093+627759009+627457659+627427710+626298371
2968+624843245+624378666+624858331+625329355+625148768+624238197+622846731
2958+621368995+620127609+619157922+618204998+617188414+616598862+616862628
2948+617434412+617363414+616568876+615613717+614505424+612709053+610245613
2938+607972966+606588168+605827081+605020884+604131992+603543892+603053648
2928+601986851+600193833+598217248+596645828+595638966+594752086+593325531
2918+591480773+590260805+590402615+591499808+592514156+592634511+591633870
2908+589804235+587676676+585735552+584319613+583534351+583114620+582611599
2898+581839672+580912785+579818983+578431875+577047859+576281296+576171037
2888+575947128+574966602+573364265+571556608+569802739+568465770+567948892
2878+568136407+568435672+568418798+567903596+566597879+564502094+562556464
2868+561899862+562318512+562334939+561160528+559648038+558917309+558996353
2858+559124268+558680661+557555978+556100145+554977920+554633621+554703352
2848+554312900+553029384+551202655+549423605+547995485+546878104+545856118
2838+544733298+543469301+542184593+541017036+539964096+538924827+537918450
2828+537127041+536582896+535990476+535044108+533762007+532370169+531119321
2818+530335958+530275390+530710244+530932886+530348400+528954252+527247951
2808+525818416+524892237+524093490+522840445+521105573+519523761+518662211
2798+518434354+518314633+517937218+517294883+516392395+515066638+513365291
2788+511770106+510674106+509929185+509257124+508745312+508502630+508123017
2778+507021988+505163224+503050192+501169488+499764389+498888684+498311424
2768+497591460+496584822+495670153+495234182+495167467+494980473+494169695
2758+492475388+490115577+487847140+486490167+486160246+486129068+485673503
2748+484822234+483933714+482954418+481634732+480070688+478477962+476839158
2738+475258686+474216214+473915273+473739379+472936274+471601018+470395615
2728+469536263+468734387+467927593+467281831+466569056+465305544+463514723
2718+461784992+460543606+459611802+458513902+457078109+455632035+454604686
2708+454066315+453682605+453007825+451907131+450782635+450108935+449659293
2698+448691916+447050206+445460199+444526049+444043068+443514494+442781902
2688+441909363+440948393+440040840+439351197+438733894+437779964+436273955
2678+434431991+432741260+431636469+431173752+430972044+430605879+429986005
2668+429237061+428405422+427488370+426615645+426003482+425712747+425518974
2658+425070002+424209048+423161584+422336985+421879483+421516000+420922313
2648+420058900+419045743+417993213+417081190+416473571+416043597+415470136
2638+414630601+413694216+412914727+412447838+412189324+411802895+411152178
2628+410504293+410009504+409333532+408205497+406957108+406063970+405515280
2618+405081208+404820795+404802133+404649670+403947772+402882391+401961129
2608+401289218+400616114+399936678+399511770+399339489+399080603+398547298
2598+397892261+397281327+396681419+395995800+395208376+394425833+393877181
2588+393745056+393899568+393931193+393548377+392864694+392221651+391802256
2578+391531413+391294467+391065269+390804818+390441968+390035908+389765773
2568+389642253+389401805+388859970+388253879+388010936+388195844+388411073
2558+388279693+387834260+387370388+387092468+386992489+386959002+386878691
2548+386666218+386311824+385927406+385672580+385598006+385579381+385424906
2538+385079824+384706805+384495524+384455593+384488149+384527187+384486808
2528+384258355+383886341+383571357+383433756+383392111+383269559+382968618
2518+382588037+382340364+382306578+382350533+382289741+382054546+381706745
2508+381392394+381227936+381187892+381144385+380994454+380716757+380364039
2498+380029983+379780521+379595799+379399120+379167762+378982742+378911633
2488+378879449+378716146+378270452+377503814+376636565+376103744+376118383
2478+376401146+376562028+376577710+376681078+376951176+377195609+377164059
2468+376816667+376349853+375905389+375396780+374784356+374307522+374196666
2458+374338812+374442403+374380941+374251461+374226243+374366786+374474662
2448+374252355+373712643+373197478+372933862+372859623+372869531+372897878
2438+372810341+372541472+372277632+372208459+372183688+371900888+371370488
2428+370920324+370733256+370645980+370479771+370297098+370207438+370164079
2418+370088462+369988297+369858854+369652640+369402805+369219425+369152450
2408+369166157+369218642+369274219+369269265+369155467+368973166+368829792
2398+368799694+368852440+368877956+368788445+368588898+368336866+368062633
2388+367752193+367357122+366767122+365763725+364036266+361348024+357769511
2378+353671662+349402427+345071991+340758577+336727368+333176383+329905070
2368+326608315+323479482+321107304+319773575+319343638+319893482+321932014
2358+325840001+331374202+337978291+345496340+353878287+362000007+367849154
2348+370135360+369317615+367270926+365602284+364160420+361900401+358472191
2338+354252349+349669098+345020884+340668582+337094018+334675091+333427261
2328+333025932+333038596+333127959+333196536+333435307+334192893+335705160
2318+337829589+340027140+341729158+342781688+343527801+344487392+345921658
2308+347603859+349013018+349818768+350151595+350374162+350679536+351002901
2298+351270616+351564405+351992516+352542547+353118056+353604911+353910992
2288+354058241+354166041+354256968+354227168+354066808+353908943+353813658
2278+353697998+353505640+353280167+353057972+352816742+352570559+352431505
2268+352467600+352528578+352380920+352051520+351861583+352035465+352416307
2258+352676125+352701752+352625390+352537779+352396751+352234826+352229053
2248+352474193+352833021+353078608+353117758+353065087+353142566+353473829
2238+353942654+354299358+354424369+354417552+354425821+354498012+354629764
2228+354813256+354990863+355088123+355132971+355221849+355366863+355495412
2218+355578144+355659907+355807900+356080755+356491322+356988867+357507161
2208+357991818+358389161+358693716+358992012+359361381+359766509+360146494
2198+360538399+361036131+361669713+362352687+362918996+363248657+363400114
2188+363570197+363901310+364392001+364964568+365512550+365927326+366214112
2178+366550552+367111534+367863048+368614749+369263156+369927208+370828206
2168+372058603+373493987+374916221+376185284+377330752+378560106+380179019
2158+382413150+385255122+388512280+392006757+395631273+399164974+402229588
2148+404606385+406488952+408290873+410274238+412390622+414419096+416292984
2138+418278584+420713491+423633092+426805805+430024745+433209229+436339738
2128+439438995+442547676+445611620+448381998+450474132+451598629+451757275
2118+451183256+450092433+448518742+446405450+443833836+441066252+438283581
2108+435397579+432260924+428968229+425795628+422872600+420040871+417077129
2098+413943752+410713823+407402243+404058888+400867736+397963557+395291555
2088+392746501+390309769+388055263+386145876+384718725+383678674+382738862
2078+381720527+380709344+379908660+379396252+379023717+378572622+378008102
2068+377497109+377171621+376977549+376764220+376451880+376095623+375813568
2058+375635588+375438761+375085223+374610176+374202477+374004718+373981921
2048+373980841+373911706+373892038+374138706+374665977+375230311+375649371
2038+376013897+376519228+377229246+378059991+378930332+379865451+380865905
2028+381722054+382181530+382268881+382186224+381987720+381576445+380878049
2018+379862359+378563980+377155752+375859348+374775901+373856054+372979530
2008+372074323+371200852+370464685+369844662+369210894+368496406+367745898
1998+367046570+366533380+366367246+366515574+366621513+366312861+365612006
1988+364844661+364258163+363874751+363576753+363258528+362944996+362703692
1978+362457732+362068025+361564668+361114207+360867837+360958018+361396337
1968+361857563+361876412+361392314+360786893+360348686+360041078+359771687
1958+359557538+359388908+359185711+358944928+358772797+358744375+358828746
1948+359008700+359427425+360215407+361041979+361148886+360204306+358781923
1938+357659587+357120471+357024180+357114734+357219183+357336780+357505857
1928+357696986+357992414+358529519+359106592+359388424+359548673+359926572
1918+360167205+359630175+358535255+357772566+357825498+358424511+358943848
1908+358960275+358536670+358012790+357622188+357386695+357248498+357218438
1898+357398578+357766345+358066131+358221910+358561702+359167086+359466425
1888+359036861+358269031+357706038+357417091+357249281+357102628+356911984
1878+356714821+356665763+356900362+357627962+359221284+361670644+363837166
1868+364032429+362069850+359594117+358034618+357535434+357576185+357756697
1858+357930579+358055776+358133814+358201422+358382047+358876128+359879078
1848+361637194+364217300+366656863+367088513+365188961+362948572+361920776
1838+361920553+362083893+362175900+362862935+364758316+367236954+368721134
1828+368736258+368299876+367837644+366803031+365299891+364295078+364281146
1818+364851552+365449746+366061649+367070596+368529261+369791209+370166649
1808+369845109+369721291+370525477+372384241+374806743+376844493+377723364
1798+377736812+378191110+380202002+383445229+385864491+385711693+384097734
1788+383331282+384171116+385931764+387956067+390157529+392283076+393830656
1778+395048053+397112995+400966485+406049703+409973223+410744331+409325076
1768+407753285+407055112+407817242+410282657+413411527+415534243+416633820
1758+417898897+419495609+421103570+423481001+427533554+432389510+435735956
1748+436654313+436454542+436649917+437927324+440272124+442914325+444837606
1738+446513772+449857387+455314816+459750074+460040287+458112759+456789721
1728+456688029+457749090+459840293+462516839+465902211+471194400+479073623
1718+487501648+492156754+491729349+489419043+488084123+488709919+491534049
1708+496380358+502168714+507438403+512443136+518982633+527052799+533313930
1698+535802811+536185590+535414147+534238134+534815282+538396178+544301685
1688+551667532+560958262+571792883+579630275+581136023+580330310+581558436
1678+585892486+592476646+599215169+604566772+609616352+615763386+621567425
1668+624759619+626724657+630355692+635866053+641064111+644693209+648239090
1658+653838925+662818507+675616714+689258479+695814144+695657396+697213245
1648+702455035+707384076+708402932+707672911+708527421+711612299+716671490
1638+723421375+729733947+731142957+726945130+722077179+719822301+720113743
1628+721650744+723380847+724718710+724659036+722493185+719864393+719088927
1618+719609828+717839420+712060786+705386519+700492866+697149697+694098940
1608+690724854+687447991+684895784+683046705+681450999+680013381+679048015
1598+678544845+677902435+676616126+674847804+673072330+671584946+670524221
1588+669852012+669223608+668333338+667346442+666787546+667276711+669339529
1578+672834378+676130537+677253246+677309717+679012851+682684488+686204369
1568+688154247+689868407+692873124+697592448+704943246+716516159+730978015
1558+740695143+743125245+744812437+748821258+754695624+762024668+770537958
1548+779514039+788713842+798562610+808871190+818439543+824872581+824938289
1538+820331683+816800925+816366592+817383362+817960808+818733667+821548261
1528+826538316+832024316+836854570+841853789+847642629+852646095+855186307
1518+855686124+855178410+854590981+855075451+857527679+862662860+871219210
1508+881887102+887779943+883349305+875581980+871679171+872507829+876543471
1498+881082581+882931139+881725736+880689894+882192401+885342467+887432775
1488+887226561+886185355+885952692+886827168+888253016+889669774+891265853
1478+893944634+898352476+903860303+908040102+908018571+904508301+901675976
1468+901796218+903727769+904880426+904137814+903334634+904880500+909408510
1458+914891082+916911362+914197715+910591265+908602499+908000840+907746201
1448+907165402+906237510+905211055+904273031+903918636+905123518+908199233
1438+911374553+911703842+909298697+907847595+909121910+911675755+913721737
1428+915153768+916437470+916953007+916101924+915016316+915416006+917150654
1418+918107899+917073547+914854950+912332245+909764990+907328705+905325635
1408+904168731+904153310+905051104+906240490+907361411+908359928+908980882
1398+909020442+908630734+907521287+904993963+901662417+899333188+898428316
1388+896913963+892796149+887597643+885102056+887109149+892145544+897361780
1378+901194113+904062644+906600919+908492389+909584403+910565563+911748243
1368+912720686+913618928+915460706+918894466+923279659+927004712+928618448
1358+927834638+925755802+924097516+923938608+925218585+927208320+929139870
1348+930706224+932132741+933442071+934148029+934355436+935352464+937987365
1338+941035663+942474772+941744899+939782804+937866228+936838879+936793434
1328+937543198+939321875+942195771+945049030+946481433+946694949+947181506
1318+948501414+949539193+949329775+948581799+948469603+948809172+948689973
1308+948381768+948952658+950278900+951117765+950846884+949880327+948781607
1298+947868243+947254515+946690032+945575220+943501674+940799798+938274858
1288+936354706+934766748+933047373+931019196+928751131+926368859+923900092
1278+921217809+918292137+915365272+912660640+910269650+908409024+907234836
1268+906393810+905241451+903423065+901032747+898424964+895979366+894001850
1258+892789369+892333804+891779229+890013143+887198623+884705123+883359884
1248+882838834+882686557+882951254+883778944+884916925+885690752+885558962
1238+884827376+884492352+885189146+886664312+888370576+890068719+891794502
1228+893615346+895392086+896652619+896932812+896508090+896511740+897911960
1218+900424234+902776409+904180651+905197198+906896384+909628880+912861043
1208+915765186+917732645+918697042+919242155+920151869+921678068+923545995
1198+925698735+928340341+931043483+932697523+933003269+933226916+934615886
1188+936854748+938894918+940617423+942772621+945695612+948811705+951289635
1178+952979882+954561955+956456702+958230537+959654671+961206124+962930864
1168+964102221+964589075+965367968+967235449+969825650+972214255+973972594
1158+975247058+976256229+977482939+979938892+983743511+986859455+987242681
1148+985823241+985040548+985647943+986784062+987805972+988752042+989733798
1138+990605666+991197714+992067646+994183359+996925912+998528547+999513282
1128+1002305973+1006729385+1009507474+1008893970+1006552821+1004930071
1120+1005731016+1010049011+1017628672+1025982905+1031516211+1032015284
1111+1028028812+1022480009+1018876167+1018810459+1021263059+1024557728
1103+1027887784+1030649930+1032141263+1032544007+1032809077+1033339961
1094+1033857360+1034412680+1035440402+1036878765+1038486168+1041095962
1085+1045958549+1051947868+1055152690+1053249524+1048460319+1044586863
1077+1043209292+1043488814+1044044730+1044117367+1044175849+1045485700
1068+1047879074+1049504729+1049919617+1051162195+1054909002+1059859573
1060+1063305327+1064983728+1067214841+1070902346+1073741823+1073074679
1051+1068559111+1062073179+1056785721+1055714342+1059264992+1064223460
1043+1066731637+1066260502+1065249691+1065261239+1065126693+1063213618
1034+1060211658+1058256789+1058071509+1058506139+1058466357+1057877959
1025+1057009294+1056143013+1055833020+1056261765+1056758901+1056784231
1017+1056651175+1057050194+1058296796+1060051707+1061395307+1061417061
1008+1060143193+1058425009+1056605432+1054111633+1050953745+1048666758
1000+1048706466+1050552938+1052023038+1051460864+1049621097+1048839597
991+1050353279+1052225602+1050391125+1043448733+1035301460+1031345905
983+1033039206+1037026945+1039250012+1038823874+1037366514+1035931279
974+1033749858+1029509714+1023120184+1015747707+1008468279+1001786562+996133162
964+991783504+988388783+985319996+982401476+979725898+976984090+973876564
954+971108980+969761953+969415753+968192470+965258081+961806963+959076181
944+957094791+955642645+954930206+954973118+955249288+955442167+955981767
934+957096430+957857518+957255337+955684514+954194001+953102657+952576392
924+953359904+955507727+957573674+958186806+957393162+955668869+953006850
914+949616450+946237521+943651418+942318546+942008106+941966387+941987842
904+942585180+943565445+943639423+942211192+940273607+938964054+938451497
894+938309426+937952275+936935580+935636009+935194152+936215243+937765579
884+937989004+936084646+933385601+931842938+931876686+932368905+932353037
874+932043416+932244267+933137592+933931682+933900914+933273255+932435061
864+931251411+929883599+928831218+927724229+926034430+925031964+926494614
854+929747861+932259838+932566701+930656607+926895645+922665559+920272410
844+920696610+922913643+925899288+929208931+931572654+931525495+929457462
834+927420345+926915015+927777198+929242083+931001018+932676067+933167317
824+931776335+929705992+928960475+929927405+931302295+932017863+932196960
814+932750715+934813906+938502231+941855606+942558211+940890166+939111340
804+938243196+937292060+935366693+933214848+932129389+932031347+932008253
794+932259391+933366082+934553903+934883936+935107062+936175609+937166081
784+936967018+936742775+938149029+940259527+940697733+939054273+937174649
774+936457590+936605025+936965603+937433013+937880532+938226583+939080646
764+941074254+943500705+944720189+943920436+942001625+940858280+941506277
754+943292479+945202201+947029973+948651904+949223539+948064102+945639364
744+943412274+943071960+945101180+947740327+948776318+948618751+949484511
734+951763751+953744173+954272598+953626761+952170891+949170123+943932877
724+938373868+936529631+940296851+946678484+950628452+950454197+948386760
714+947175620+948029609+949393696+948004204+943326078+938646164+936744265
704+936840369+936278940+934102882+931902091+930964588+929985440+927015217
694+922603352+918889549+916247347+912789002+907472638+901983957+898629241
684+897658438+897466303+897199669+897612471+898619929+898094409+894701103
674+889879937+884703335+876833871+864010632+851777132+851182700+860947359
664+870595649+875222296+875663333+873956995+870808345+866303282+861765438
654+859127483+858736956+858891468+857947112+856223713+854861265+853783480
644+852408441+851130476+850463183+849673041+848173364+847625643+849460344
634+851459838+850775485+848907334+849166295+850480169+848927374+844911401
624+842482417+843173773+845297681+846587939+845508962+842290282+839326764
614+838813313+839368111+836965276+830879406+825564086+824362333+825796375
604+826863135+826783122+825930176+824023136
##END=
