##TITLE=<SNM>
##JCAMP-DX=4.24
##DATA TYPE=INFRARED SPECTRUM
##DATE=3/5/2025
##SAMPLING PROCEDURE=Instrument type and / or accessory
##ORIGIN=Admin
##XUNITS=1/CM
##YUNITS=ABSORBANCE
##RESOLUTION=4
##FIRSTX=4497.3318
##LASTX=599.83466
##DELTAX=-1.4281778
##MAXY=1.7737767
##MINY=0.21031336
##XFACTOR=1
##YFACTOR=1.6519582e-09
##NPOINTS=2730
##FIRSTY=0.23090024
##XYDATA=(X++(Y..Y))
4497+139773656+139497274+139598888+139865402+139903711+139481047+138791526
4487+138293551+138285460+138814428+139804055+140902177+141455951+141103673
4477+140125971+138967034+137919849+137383006+137661913+138436117+139050634
4467+139286037+139411139+139696073+140219737+140861874+141264532+141013343
4457+140060376+138868794+137940632+137256171+136501749+135759397+135457189
4447+135712762+136271299+136943735+137575869+137774072+137275394+136572369
4437+136518401+137076938+137127100+136029537+134739976+134644406+135875578
4427+137401551+138282068+138301904+137688099+136693683+135507712+134417167
4417+133835691+133961434+134438933+134564495+133962273+132957014+132140668
4407+131733988+131630814+131833554+132399235+133102277+133501029+133307769
4397+132660418+132117693+132241894+133029357+133904426+134418998+134729594
4387+135116601+135231637+134355387+132530102+130828629+130179988+130444563
4377+130892764+131077725+130972260+130697546+130434442+130387942+130606649
4367+130826329+130624058+129874615+128935935+128206725+127765696+127629688
4357+127917453+128427759+128612937+128423826+128575322+129503303+130619187
4347+131040651+130609535+129797997+129051928+128552834+128336158+128476694
4337+129088694+129975769+130485849+130101250+129029530+127922622+127311551
4327+127523564+128597268+129927041+130464272+129761031+128583422+128012419
4317+128190417+128477082+128493842+128389964+128334453+128343464+128471201
4307+128787506+129257022+129733925+130026797+130100041+130159142+130284858
4297+130172898+129612521+128985177+128843035+129191264+129633665+130074108
4287+130730570+131458715+131619412+130860354+129620603+128629092+128236916
4277+128351988+128751010+129339892+130102279+130766543+130866875+130435831
4267+130152404+130430717+130874046+130956447+130769537+130760282+131042383
4257+131237962+131002279+130558056+130492668+131077833+132053911+132974234
4247+133506883+133593974+133530868+133619059+133660661+133224809+132453564
4237+132020346+132187511+132462043+132342407+131931145+131626502+131648809
4227+132076588+132874858+133588084+133553969+132870266+132525357+133037881
4217+133679965+133692837+133449866+133655763+134174025+134373905+134051394
4207+133524175+133239611+133421235+133817028+133980268+133957267+134300633
4197+135263397+136389131+137014157+136846992+136052935+135086942+134421668
4187+134234596+134422922+134907907+135599322+136137483+136217862+136155676
4177+136522722+137266599+137759675+137639660+137149957+136737044+136589517
4167+136551614+136430814+136306721+136374130+136609019+136861993+137138267
4157+137497744+137824856+137967990+138008464+138165084+138464928+138689209
4147+138645451+138337146+137904884+137545678+137391701+137383006+137429090
4137+137657548+138201869+138812227+139019415+138687008+138188248+137979464
4127+138067006+138019641+137563150+136979113+136743051+136932658+137240377
4117+137504690+137931792+138641338+139255530+139277991+138753009+138174221
4107+137832271+137573145+137204088+136905227+137085597+137843014+138767487
4097+139373967+139470258+139049407+138246402+137462393+137087555+137121155
4087+137386442+137843068+138379235+138661597+138485178+138030339+137660353
4077+137623451+137879682+138093003+137963570+137608847+137359436+137253979
4067+137102700+136956318+137071977+137450342+137799978+137927237+137863797
4057+137701621+137546968+137540491+137756708+138137599+138531353+138741770
4047+138660235+138405231+138158292+137884661+137502840+137219062+137294652
4037+137576482+137674740+137555510+137604355+138133305+139032124+139847911
4027+140123887+139783579+139226232+138932666+139034569+139382085+139845449
4017+140344299+140698264+140673747+140203979+139497509+138952998+138948696
4007+139559054+140398420+140912136+140932088+140787313+140782090+140829095
3997+140755778+140627626+140532453+140393793+140235045+140290078+140691328
3987+141328341+142017943+142532624+142610325+142253274+141901969+142099821
3977+142988573+144106657+144686491+144337216+143434735+142661704+142332427
3967+142440644+143104321+144407773+145823960+146423648+145916833+144987517
3957+144405139+144349808+144750599+145773537+147559881+149504126+150326471
3947+149556985+148463869+148459764+149193891+149207710+148092918+146856731
3937+146602962+147882826+150546043+153395908+154585487+153430816+151507580
3927+150946968+152055166+153169805+153011210+152542786+153424160+155446114
3917+156468168+154969860+151996985+149711972+149027583+149543202+151194548
3907+154914927+161187662+168398906+173496062+174770775+172585120+167815599
3897+162011324+157875245+157546239+160448827+163077506+162725732+161488471
3887+162626292+165442250+167034622+167530053+168666971+168847738+165953448
3878+162591726+162574227+165975332+170615158+175189443+178419397+178473591
3868+176569766+175969681+176624609+175326011+171087353+166915554+165902718
3858+169369906+177719728+189090720+195154076+188784571+177076490+168325373
3848+164780322+165975638+170306556+175706361+180933373+185854506+189655210
3838+190247141+187365768+183615649+180818021+178646834+176641730+175337827
3828+175031426+175601220+178241228+184580894+192433229+195646224+193088950
3818+189676246+186738730+181899447+175785378+171954980+172643409+177530500
3808+183583898+187350307+189728167+193741641+198194531+199097788+197057793
3798+195312888+193663526+190810061+187994861+187276882+189125466+193058299
3788+198646990+205078464+211013588+216297103+222748243+231632283+241343305
3778+249570686+256942365+265921822+277992339+292703657+307190080+317582694
3768+323032111+325477442+326242580+326724661+329128680+333939820+339009662
3758+342844229+347456489+356232449+370755639+388817097+404000068+412681278
3748+420027664+431627194+445728163+454708558+457681974+462085613+473030053
3738+491205094+512983530+530449612+537535022+536981284+536519877+540816752
3728+549704924+560511137+570456560+577801106+580725885+577616551+570162643
3718+562817195+558913245+559362203+563015894+566283913+564999242+558892101
3708+551200310+545378427+543388765+544499705+545986143+546618213+547742576
3698+550170408+553528341+558369068+566156980+576867036+586858499+590217299
3688+585784939+579293930+575280365+574261360+575715937+579670077+586537809
3678+595432765+601097658+597918327+590977457+588612154+589530818+585879977
3668+576139855+566562027+561015769+558732694+557742662+557904811+560411372
3658+564574927+567160109+567426641+569841628+578169748+590154698+596715560
3648+591433740+579952665+570071033+563891260+560021804+557151688+555546363
3638+556145636+559056090+563430359+568863936+576026669+584587692+590270843
3628+588097672+580842644+575068063+574776563+581462988+593024922+603036410
3618+606504355+605915582+605968693+607461950+608670887+608548283+607067005
3608+604511842+601841436+600361494+600587651+602244066+605428341+610997980
3598+618817860+626115428+629385251+628852837+628861713+632573026+637892117
3588+638911844+633288228+625968866+622025768+621894577+623639392+625761832
3578+627623045+628833498+629338201+629487505+630057083+632110826+635748894
3568+638528085+637280252+632654858+628075504+625474482+624709416+624555998
3558+623647835+622034572+621195106+621848032+623145295+624224196+624711003
3548+623878466+621639194+619528443+618582971+617749856+616200241+614925564
3538+614450591+613270808+610526110+608315415+608890910+611015660+611458809
3528+609577319+607781052+607557277+607714951+606568796+603810099+600199633
3518+596919238+595103235+595201268+596898600+599396718+601378623+601712879
3508+600962318+600764917+601434765+601488526+599499946+595665885+591374279
3498+587800652+585170187+583397374+582873078+583782901+585212222+585817196
3488+585097412+583532858+581629250+579292739+576321308+573426224+572133543
3478+573066675+575095774+576694676+577215400+576667940+575518285+574639202
3468+574297982+573743594+572449975+570809615+569244485+567792000+566788762
3458+566909706+568198815+569582710+569670531+568139101+566096039+564779940
3448+564225661+563658356+562900687+562497299+562572204+562510144+561669993
3438+559783596+557021724+554065518+551591069+549881939+549294464+549990182
3428+550757629+549837270+547386598+545368035+544941880+545497459+545924696
3418+545576477+544349607+542669342+541100134+539777902+538536889+537350539
3408+536334131+535566035+535009085+534446651+533718677+533173743+533391132
3398+534260581+534894491+534481903+533042335+531504662+530947640+531415469
3388+531691851+530819300+529446013+528814556+528893177+528442450+526757133
3378+524797924+524244366+525276180+526220569+526087105+526008773+527038170
3368+528217989+528239638+527546049+527287707+527454042+527335840+526852676
3358+526451994+526421686+526770916+527130141+526750602+525308906+523582709
3348+522633015+522568574+522784015+522984410+523218288+523405225+523528046
3338+523928980+524760074+525414804+525120598+523916496+522639654+522089452
3328+522341948+522694317+522367061+521272754+519876086+518423818+516744815
3318+514889736+513393160+512700942+512830762+513550943+514428546+514818764
3308+514283319+512968051+511435826+510316696+510033422+510449475+510934659
3298+511135090+511288110+511525669+511581162+511526968+511857832+512434374
3288+512343233+511255204+510122940+510058968+511079669+512334068+513276726
3278+514055286+514684362+514602746+513505192+511950850+510703703+510159815
3268+510508756+511536962+512215577+511465990+509357874+506899336+505164660
3258+504882000+505862399+506810974+506815772+506617651+507249360+508323931
3248+508612580+507581524+505857889+504485792+503759730+502949888+501556648
3238+500170011+499432908+499107203+498734124+498245440+497599406+496693118
3228+495758146+495231685+495152847+494955122+494004743+492380223+490929831
3218+490353217+490468208+490617368+490472935+490109417+489580538+488917835
3208+488321015+487831790+487113774+486044869+485032394+484304889+483551333
3198+482481489+481125846+479694901+478623145+478326846+478558343+478487841
3188+477577043+475985248+474247650+472874651+472042474+471483829+470758849
3178+469561819+467776233+465555326+463430432+462034991+461544034+461491175
3168+461183872+460264378+458932657+457679449+456895548+456632228+456518716
3158+456016249+454925803+453569330+452484549+451978510+451880297+451715225
3148+451144854+450145657+448800441+447212724+445672417+444538457+443808751
3138+443118156+442272088+441431649+440705623+440013297+439422539+439122271
3128+438926025+438240447+436797234+435197033+434391448+434532706+434673422
3118+433949489+432658107+431651369+431175205+430890019+430505899+429799176
3108+428482573+426670828+425215059+425065142+426277434+427877780+428754842
3098+428499640+427367736+425822270+424263995+422930145+421950251+421488592
3088+421637211+422135709+422436770+422148626+421293682+420100909+418696448
3078+417168662+415897918+415390616+415532848+415519967+414886994+414067302
3068+413617910+413468426+413209760+412661037+411949804+411284358+410722249
3058+410107498+409250713+408154783+407081728+406415993+406285776+406270153
3048+405757980+404627448+403294933+402215708+401589627+401301410+400978880
3038+400377984+399678333+399109621+398502194+397552032+396330539+395235943
3028+394544519+394159063+393742253+393058082+392195849+391436087+390928930
3018+390554551+390117608+389632063+389263024+388976576+388464439+387540544
3008+386435412+385553804+385029689+384587261+383855678+382838874+381942545
2998+381437588+381108708+380563773+379667552+378598575+377691349+377212768
2988+377084030+376852280+376110270+374936873+373799522+373016668+372463940
2978+371913521+371433857+371152893+370867058+370339226+369747963+369347065
2968+368944362+368212600+367279107+366553261+366128621+365712172+365119899
2958+364590624+364426382+364420609+363971975+362857860+361557060+360654345
2948+360221442+359885526+359317175+358556944+357863355+357304205+356693422
2938+355954587+355207021+354457578+353658596+353043375+352893746+353055787
2928+353116187+352894504+352481338+352019427+351563865+350986963+350131225
2918+349127121+348273007+347648946+347180468+346899756+346814713+346732123
2908+346444592+345940862+345347326+344757687+344146868+343472727+342844156
2898+342403064+342025654+341414547+340530557+339670345+339074572+338696261
2888+338395416+338103663+337699626+336996872+336053241+335249748+334851628
2878+334715025+334603822+334526753+334564963+334616162+334513944+334212666
2868+333710163+332973638+332079870+331270785+330746525+330504925+330393795
2858+330191019+329696273+328908368+328035528+327269379+326716435+326484902
2848+326544039+326584955+326300815+325698440+324987135+324345755+323869916
2838+323550598+323245062+322776945+322104427+321365484+320725944+320198978
2828+319683017+319148041+318666574+318275814+317910203+317460776+316876693
2818+316251731+315770227+315521411+315419662+315287027+314970559+314468201
2808+313928317+313413403+312815501+312137355+311562076+311114164+310628294
2798+310108400+309704399+309352283+308822899+308056498+307190188+306391603
2788+305758739+305209366+304532699+303733356+303118966+302839914+302615182
2778+302131351+301427370+300684476+299941005+299217306+298631239+298214574
2768+297844218+297441552+297040076+296649245+296216306+295677596+294992017
2758+294216794+293511010+292957993+292481144+291975826+291389525+290719280
2748+290058381+289509929+288982999+288288670+287460480+286765069+286391304
2738+286239817+285998253+285450306+284733066+284140251+283694143+283160268
2728+282445932+281701775+281067396+280557388+280184921+280013031+280022610
2718+280004606+279682906+278967632+278017253+277051594+276199482+275507985
2708+274984429+274597151+274287034+274016641+273799053+273644103+273475008
2698+273141942+272550084+271794490+271154355+270844363+270733648+270449725
2688+269818232+269062078+268526435+268332913+268315107+268195606+267811305
2678+267211004+266570094+266052310+265741290+265621483+265582641+265490165
2668+265321828+265198033+265170161+265046547+264604444+263900932+263160221
2658+262450341+261710893+261003503+260496526+260223716+260033171+259809179
2648+259611761+259508929+259402616+259181294+258912832+258703669+258508289
2638+258231492+257865142+257424392+256893655+256309861+255805356+255507596
2628+255410303+255368936+255230384+254934626+254509951+254077607+253835430
2618+253866821+253995703+253975389+253757062+253461016+253212939+253102351
2608+253147398+253210053+253082271+252725410+252338439+252155580+252217188
2598+252342246+252337465+252221933+252160920+252183958+252124045+251875193
2588+251560023+251377380+251373375+251412307+251341732+251142401+250888967
2578+250632105+250408636+250276398+250220617+250128249+249954211+249787985
2568+249697367+249663433+249716346+249968463+250432630+250917940+251193998
2558+251221997+251170815+251215538+251336085+251328635+251037802+250527487
2548+249953436+249376154+248836650+248474774+248371545+248373241+248241996
2538+247923164+247563398+247300222+247118210+246949495+246834775+246838798
2528+246866526+246772083+246607932+246549535+246603007+246581250+246368299
2518+246071928+245881870+245863180+245951489+246076257+246181272+246190292
2508+246088850+245986758+245982374+246029009+246015406+245901011+245712523
2498+245488350+245273090+245086460+244866960+244530809+244120385+243819414
2488+243767944+243896123+243974148+243812306+243403055+242898748+242479160
2478+242227367+242080769+241881889+241509387+240979210+240409758+239910917
2468+239538740+239319745+239252399+239280561+239302462+239222993+238990937
2458+238606311+238150209+237798706+237694124+237764248+237773557+237584311
2448+237266760+236950491+236693196+236493396+236317662+236117935+235889811
2438+235670311+235451587+235208616+235022600+234994709+235028355+234925216
2428+234704778+234581507+234629675+234717208+234757926+234812300+234927868
2418+235026929+234981936+234765756+234526429+234486740+234721249+235039720
2408+235154170+234998299+234814682+234855742+235083902+235279624+235363729
2398+235463819+235687865+235976948+236231843+236502434+236959240+237708485
2388+238755742+240134134+241927965+244168139+246820342+249875464+253378606
2378+257387661+261938782+267000308+272451348+278158421+283981296+289569986
2368+294320564+297776656+299956701+301125551+301469080+301140832+300327309
2358+299062247+297200547+294766167+292297941+290735914+290736221+292230614
2348+294837210+298402557+302895226+307688145+311384160+312871788+312173833
2338+310106885+307495219+304807963+302235860+299824661+297503179+295111103
2328+292512931+289657717+286532291+283207390+279957917+277161172+274954464
2318+273028413+270859896+268221440+265387947+262770310+260522450+258604734
2308+256941698+255357678+253638770+251801172+250079233+248594653+247246660
2298+245952048+244789854+243859572+243131436+242499816+241911981+241387829
2288+240944464+240556230+240193018+239844582+239481262+239059004+238612986
2278+238252319+237994212+237707204+237277567+236741057+236233106+235881567
2268+235725498+235697986+235705238+235687288+235585521+235366670+235105731
2258+234922312+234830900+234749718+234621413+234451885+234274402+234123402
2248+234006300+233878140+233682111+233436362+233244265+233193102+233267231
2238+233378487+233461402+233543649+233719545+234018983+234341260+234595362
2228+234845387+235217889+235729142+236306098+236930429+237668110+238546813
2218+239470889+240307143+241026115+241732279+242593014+243720515+245061798
2208+246451267+247805702+249166071+250552744+251926374+253284669+254669790
2198+256083163+257474653+258826832+260186715+261566190+262868595+263986769
2188+264919252+265761874+266649815+267637700+268564843+269190437+269494962
2178+269665374+269836525+270004591+270078125+269934648+269546125+269030236
2168+268502459+267948035+267265902+266392917+265383473+264330190+263232420
2158+262038366+260746515+259409219+258160701+257195439+256601325+256325990
2148+256259528+256270136+256558136+258035950+261673279+267423270+274410972
2138+281962191+289855984+297960724+306169018+314460046+322905321+331693765
2128+340892163+350257726+359598176+368986614+378399803+387583264+396268984
2118+404120796+410648102+415504885+418879416+421585146+424681418+428934635
2108+434726209+442238136+451378227+461612192+471915108+480885004+487402641
2098+491342456+493267677+493718187+492943740+490769594+486836707+481090306
2088+473458121+463504326+451048120+436380388+419873092+402221553+384475626
2078+367395649+351493327+337362158+325261857+314974745+306323337+299208088
2068+293373775+288585799+284603660+281043853+277784403+275040626+272820729
2058+270978694+269597541+268718116+268209281+268155772+268789430+270234230
2048+272710177+276507615+281772080+288810891+298175714+310131131+324631302
2038+341650843+360798669+381000103+400981623+419476271+435160988+447315627
2028+456234288+462664464+467294909+470481313+472202855+472549740+471734666
2018+469456751+465192169+459073338+451689824+443374946+434115607+423781300
2008+412374444+400219696+387839440+375690177+364039159+352930802+342301062
1998+332265544+323248959+315683632+309478819+303893701+298218615+292485834
1988+287163550+282501714+278533611+275282767+272681239+270555533+268752213
1978+267155637+265713345+264454689+263351903+262363566+261679737+261497707
1968+261471314+260890334+259591646+258220939+257414235+257149958+257055570
1958+256983498+256997786+257045088+256974477+256784564+256650811+256748591
1948+257192841+258168855+259789533+261467670+261904469+260534393+258428947
1938+256961542+256459869+256510671+256710778+256850683+256872367+256864285
1928+257104947+258086410+259988178+262034325+263282500+264030139+265015751
1918+265622709+264698579+262793239+261642754+262032413+263326303+264421945
1908+264722303+264435638+264125538+264088031+264268473+264600186+265192495
1898+266160013+267259226+267935587+268170836+268787356+270097356+270960599
1888+270306555+268795384+267674756+267201208+267004223+266897981+266840685
1878+266767782+266702403+266850932+267812225+270518514+275120022+279584819
1868+280637759+277599523+273298499+270426074+269441292+269432434+269502161
1858+269321556+269037326+268953185+269225508+269903889+271123920+273112229
1848+276197335+280447502+284414649+285151950+281968470+277988135+275928277
1838+275751065+276086872+276445429+277923586+281610472+286398051+289314350
1828+289279694+288166247+287067177+285242370+282730775+280924676+280549179
1818+280987602+281476791+282183514+283826327+286353635+288425400+288776416
1808+287821455+287137229+287989268+290714319+294537231+297699623+298789618
1798+298404054+298745166+301562982+306346682+309652081+308199596+303718202
1788+300519405+300356534+302099942+304242390+306410690+308394651+309591862
1778+310379731+312582272+317756930+325119950+330755040+331045386+327224097
1768+322610213+319202776+318418660+320863883+324734386+327075226+327643578
1758+328153369+328843494+329694181+332561771+338964705+346916353+351886756
1748+352163030+350311595+349156780+349783871+351995505+354568925+356028770
1738+357207507+361230886+368876710+374644976+372660582+366142765+360102447
1728+355846704+353739418+353899654+355525870+358479261+364483282+374785404
1718+386334457+391642435+387745882+380018586+373796924+371151738+372563740
1708+377523968+383890533+388946231+393082545+399441749+408319097+414689053
1698+415357133+412263205+406321316+399292012+395320662+396072269+400000683
1688+406057490+415633479+428145322+435372676+431231889+422874796+417919548
1678+418411840+423184228+428838370+432685204+436152391+440920919+444025238
1668+441994046+438211870+438100524+442135773+446253866+447264392+447230873
1658+450476738+459989692+476711888+495529788+502436308+497959568+496765677
1648+502070877+506623965+503718778+497528867+494772443+497283803+504818497
1638+516856234+530208553+536957759+533969333+529246375+529583013+535367444
1628+543613731+551965592+560558872+569266350+576273067+581905921+589696575
1618+601364804+612674025+617411920+617162887+617371509+619633873+622403466
1608+624069624+624669871+625475275+627571882+631062522+635492789+640700101
1598+646959829+654452669+662739945+670828918+677950121+684075555+689511910
1588+694473581+699099481+703328486+706874475+709899668+713710420+720259087
1578+730271116+740720955+746259781+747986195+752457305+762283517+774108121
1568+783492121+791351041+801033144+813615526+830044814+853481001+882771723
1558+900652992+897671818+889139407+884365647+883604189+884727686+885302098
1548+884831599+885557481+889347956+895450298+901258651+901626607+890978971
1538+875097179+864473356+860425622+858009986+852842652+846715847+844089784
1528+845678368+848822412+851796874+855204528+858107910+857759727+855153004
1518+853510732+852418626+850046575+847527890+847790417+852652215+861983970
1508+871894394+872430850+859677803+845438283+837750100+836411127+839305633
1498+843448333+844766451+842206129+840197705+842854292+849128958+853283131
1488+850723964+843402871+836041655+831160662+828683110+827694268+828353688
1478+831709818+837765687+844688444+849412773+848846009+843215898+837113195
1468+834391084+834973579+835640937+834073858+832993443+836804484+846116394
1458+855337090+855030328+845278011+835697224+830926856+830435863+831950552
1448+832350548+829643880+824925829+820672721+818357390+818680028+821955336
1438+826650295+828522621+825224221+820495274+818236807+818048680+817601056
1428+816452591+816112057+816928358+817744226+818494571+820353908+822436082
1418+821266907+816131685+810323910+806210725+803746234+801957039+800487019
1408+800034560+800990929+802109085+802003656+801574867+802580667+804766250
1398+806449510+807063684+807051561+806176880+804274318+802442187+801642195
1388+801183242+799685439+797607450+797294698+800186390+805406547+810981742
1378+815955031+820875281+826040955+830221035+832266839+832948486+833581278
1368+834604902+836517927+840099636+844613034+847427729+846970147+844699990
1358+842788985+841793577+841046479+840112265+839467782+839773606+840782076
1348+841424538+841040201+840260775+840586444+843027770+846930891+850266382
1338+851675209+851883974+852405348+853898172+856260552+859115658+861880417
1328+864248787+866674310+869780902+873613303+877947738+882737951+887767311
1318+892569719+896975595+901101625+904927532+908435852+911870133+915453935
1308+919089189+922380805+924855470+926487135+927956073+929835543+931710322
1298+932693824+932569127+931807020+930777767+929511028+927868612+925643773
1288+922905859+920345969+918739923+917961362+916969706+914984879+912392878
1278+910301106+909450022+909691550+910391814+911188920+912195730+913463551
1268+914624717+915466636+916553257+918678657+921780197+924826678+926714158
1258+927103474+926569689+926240411+927185595+929503379+931898089+932637970
1248+931168382+928454643+925689884+923235785+920918001+918709037+916669583
1238+914485010+911624709+908156150+904994932+902902294+901563825+900156442
1228+898442801+896717975+895237491+894316627+894296205+894971068+895752370
1218+896484169+897365849+898185614+898533582+898674010+899537361+901705192
1208+904401684+905910312+905577138+904981654+906418407+910596755+916037224
1198+920360762+922365506+923000391+923922338+925523045+927187110+928800950
1188+930843435+933439622+936227545+938901162+941453763+943995901+946437227
1178+948430064+949896188+951312736+952896412+954127503+954544890+954393927
1168+954325228+955025420+957122965+960707127+964822478+968255676+971087402
1158+974492457+978586375+981694049+982582080+982274091+982623140+984035719
1148+985755205+987545555+989512702+990696238+989714829+987291038+986185005
1138+987667870+989845227+990281520+989414489+989929368+993121833+997572233
1128+1001043462+1002586294+1002979290+1003929958+1006801445+1010843478
1120+1013272898+1012520099+1010153822+1008831013+1009621552+1011833546
1111+1014188061+1015857900+1017030611+1018608442+1021606862+1026481794
1103+1032067453+1035764117+1035944884+1034182678+1034065558+1037484830
1094+1042568167+1045600503+1044612383+1040582401+1036538853+1035597566
1085+1037943999+1040180312+1039521614+1037265961+1036225668+1037589104
1077+1041494462+1047429099+1053341437+1057007216+1058371518+1058533884
1068+1057648884+1055802103+1054398039+1055079036+1057537898+1059298733
1060+1058202081+1054749687+1051657600+1051403371+1054260209+1058147309
1051+1060570812+1061269633+1062091635+1063751947+1064780190+1064702615
1043+1065015078+1065975993+1065855337+1064717553+1065687415+1070052087
1034+1073741823+1071686205+1064815982+1059728532+1061242716+1066552571
1025+1068199678+1063765081+1058343086+1056789285+1059658174+1064719718
1017+1068351435+1067724488+1063141165+1057858155+1055520093+1057333967
1008+1061490666+1064847084+1065420270+1063656837+1061333136+1059831291
1000+1059511107+1059983266+1060749775+1061648557+1062552031+1062752065
991+1061099185+1057050152+1051922508+1048746856+1049635104+1053008191
983+1054612217+1052089419+1047220189+1043165022+1040974965+1039123855
974+1035890113+1031393745+1026699580+1022004910+1017103423+1012493183
965+1008691162+1005529943+1002853511+1000560695+997829348+993965195+989616977
955+985905881+983182255+981322629+980238533+979527084+978359569+976172687
945+973111846+969964049+967620936+966257066+965470424+964991193+964929567
935+965377262+965816587+965299832+963811410+962937884+964088947+966356506
925+967293896+965689076+962601102+959881734+958470165+958103796+958247183
915+958751237+959339145+959269003+958316026+957416666+957504776+958098528
905+957665915+955568009+953024717+951867160+952602423+953872481+953778742
895+951633714+948878481+947939937+949418978+951320530+951716990+950768198
885+949356052+947651720+945960161+945191848+945673677+946517905+946672116
875+946112713+945422912+944854633+944460121+944171183+943523165+942325990
865+941127084+940131820+938907512+937791088+938005121+939825707+941956302
855+943171661+943446456+943526051+944211810+945665594+946961848+947013444
845+945903730+944588137+943598719+942592414+941137764+939671207+939086042
835+939344744+939443896+939102279+939116206+939652445+939749359+938865947
825+937760780+937575539+938854112+941303593+944090650+946538327+948520917
815+950236506+951898911+953466784+954495892+954937310+955780022+957738943
805+960112076+962054688+963556027+964012166+962032174+957950523+954272766
795+952477510+951602901+950844185+951324354+954174481+958526884+962358853
785+964269713+963945055+962132479+960318388+959415925+959064639+958899964
776+959314465+959949061+959074236+956089743+953080426+952280650+953178712
766+953745475+953616521+953798226+954199954+954303435+955359748+958636499
756+962246352+963056375+961049682+958847935+958187721+959100792+961054373
746+962920276+962696501+959347515+954869982+952730583+953749588+955408602
736+955774971+955666511+956214440+957319607+959023001+961599055+963793874
726+963559780+961044920+958641406+958088570+959355381+961589601+963193700
716+962324071+959011599+955135756+952867620+953756805+957082915+960133941
706+960700994+958537204+954770759+950922843+948790948+949623775+951906921
696+951437000+945848887+937890600+931722806+928161303+925831972+924914499
686+926154177+927172172+924425671+918857908+914867182+913907711+912924715
676+909251071+904312347+900256243+895810605+888799017+882416540+884068121
666+893165636+903269456+910572292+912267459+906967708+898408596+892408220
656+890893531+891339278+890890716+889373935+888508924+889208899+889738788
646+887126292+880980364+873962569+868561862+866242779+868305397+874150480
636+880172145+883095588+883231903+882953140+883618116+883876313+880350530
626+872273391+864827818+863790411+868202060+872331843+872770951+869599269
616+863630572+856446731+851069838+850006597+852534951+855649553+857632649
606+858418209+857198303+854020703+852478737+855879102
##END=
