##TITLE=<SNM>
##JCAMP-DX=4.24
##DATA TYPE=INFRARED SPECTRUM
##DATE=3/5/2025
##SAMPLING PROCEDURE=Instrument type and / or accessory
##ORIGIN=Admin
##XUNITS=1/CM
##YUNITS=ABSORBANCE
##RESOLUTION=4
##FIRSTX=4497.3318
##LASTX=599.83466
##DELTAX=-1.4281778
##MAXY=1.7291527
##MINY=0.1814121
##XFACTOR=1
##YFACTOR=1.6103989e-09
##NPOINTS=2730
##FIRSTY=0.20672661
##XYDATA=(X++(Y..Y))
4497+128369814+128305662+128703147+129343285+129697549+129343877+128292727
4487+127056496+126412768+126845211+127984987+128825242+128765717+128229000
4477+128024415+128402191+128999570+129439869+129572308+129264976+128480731
4467+127629761+127340695+127685215+128034029+127864512+127315795+126814444
4457+126566924+126474106+126234997+125630354+124935299+124760536+125272306
4447+125951261+126282049+126199012+125794328+125167126+124613014+124430136
4437+124489550+124367030+123880873+123287140+123000303+123152637+123387832
4427+123230020+122653683+122034447+121610545+121304240+120967761+120527869
4417+120030562+119676280+119664686+120024492+120654294+121314493+121586802
4407+121186911+120283902+119243920+118311709+117794156+118069056+119025945
4397+119922643+120157079+119870391+119532422+119297597+119089708+118966318
4387+119010603+119050114+118769015+118044156+117086961+116309239+115949858
4377+115833843+115653556+115336138+115013918+114896070+115182694+115798209
4367+116318936+116398078+116034274+115402020+114791020+114580651+114837822
4357+115121420+115034654+114754072+114704430+114957613+115283802+115570019
4347+115806556+115828291+115539456+115251324+115301994+115527464+115503804
4337+115015787+114112167+113127287+112650411+113021302+113908747+114647717
4327+114853599+114651335+114500788+114747549+115229117+115446083+115196712
4317+114904389+115159043+115964034+116681194+116826024+116586646+116324775
4307+115995152+115458982+115026826+115196564+115971797+116813606+117260586
4297+117305556+117178714+117081279+117159107+117465042+117864026+118095603
4287+117940058+117291176+116237592+115190726+114727803+115047479+115660144
4277+115934461+115884457+115952699+116152769+116138621+116004858+116200348
4267+116732364+117205446+117457334+117547376+117450505+117256440+117267794
4257+117606512+118147466+118857770+119695526+120331815+120552251+120694221
4247+121151314+121721924+121904118+121573431+121030682+120588976+120326309
4237+120098332+119750203+119374166+119233390+119414556+119764230+120157098
4227+120546597+120783763+120692389+120356752+120099636+120125859+120386639
4217+120788519+121322284+121942638+122466779+122633039+122256966+121434144
4207+120657884+120588097+121480752+122828140+123762693+123902424+123603928
4197+123363070+123320256+123430711+123658864+123844666+123777424+123524019
4187+123390783+123565260+123996805+124487080+124764062+124662444+124332748
4177+124129420+124245972+124540942+124781291+125019512+125530412+126276405
4167+126801268+126874284+126737634+126521158+126068886+125496925+125165128
4157+124971525+124477466+123862219+123932987+124948735+126119639+126573022
4147+126269113+125667570+125056358+124534335+124143356+123745963+123199282
4137+122753079+122840086+123472100+124237385+124880123+125520169+126223422
4127+126682097+126559188+125953315+125272463+124831471+124776442+125126681
4117+125652229+125989624+126077584+126235895+126689833+127245444+127538304
4107+127428035+127043514+126590214+126267698+126269650+126657900+127274461
4097+127866298+128206238+128106110+127550176+126837494+126351919+126192026
4087+126199391+126230732+126232018+126210967+126289313+126593092+127026266
4077+127372553+127566729+127620915+127468388+127133231+126813389+126618871
4067+126467407+126277145+126034797+125746999+125525572+125585181+125995962
4057+126572994+127078666+127379336+127371267+126975059+126362162+126010120
4047+126279431+126990281+127568876+127575788+127059558+126465890+126171188
4037+126080452+125883445+125654866+125772334+126238819+126573734+126489448
4027+126308245+126555367+127337447+128257241+128852381+128955793+128681513
4017+128257500+127832543+127399258+127013496+126942220+127326908+127887062
4007+128258740+128436427+128666801+129123330+129775802+130391040+130698168
3997+130657408+130418882+130053617+129646518+129542189+129975419+130525404
3987+130536989+130045724+129659074+129612541+129587826+129438805+129528523
3977+130225641+131398451+132493249+132979332+132721393+132010931+131312305
3967+130992824+131208689+131881592+132696705+133252437+133374633+133230988
3957+133030029+132785563+132597364+132951674+134263605+136042427+137066059
3947+136870079+136432649+136641121+136882598+136092292+134586028+133638105
3937+133864232+135043094+136822231+138724120+139824802+139439754+138195001
3927+137499428+137903982+138559378+138601998+138577782+139562117+141285661
3917+142031654+140674523+138167362+136270821+135664476+136020655+137384606
3907+140568954+145859462+151827500+156066302+157262837+155615288+151814092
3897+147205361+143936671+143630282+145871445+147970554+147749914+146885037
3887+148079916+150601651+151740835+151659269+152148887+152044299+149503198
3878+146657883+146698042+149632732+153547954+157231043+159588693+159338360
3868+157693587+157129352+157398247+156193143+153184835+150719017+150787295
3858+154161526+161277159+170779913+175686973+170078418+160120560+152791921
3848+149794125+150562630+153785647+157917141+162049570+166106900+169431146
3838+170172133+167756133+164244050+161474509+159504897+157984707+157194383
3828+157303125+158162015+160574757+165684053+171656772+173817035+171781744
3818+169609508+168083952+164999435+160672710+157766538+157950027+161203079
3808+165610287+168741754+171267254+175325788+179324528+179489695+176884026
3798+175067941+173950094+171948707+169852679+169566241+171436641+174508944
3788+178055300+181874308+185747854+189791712+194891792+201485097+208325516
3778+213930592+218743511+224306726+231684138+240987543+250829718+258886437
3768+264418432+268650664+273029669+279208473+288786843+301380887+314084931
3758+324692632+334944535+348390639+366748949+388172584+407386212+421254331
3748+433178229+447010595+461466655+470987785+475288287+480628096+491130016
3738+506969154+525420328+541702022+551190471+553150941+551275599+549646315
3728+549898444+551301730+552043309+550736699+546851587+541034282+535500751
3718+532442458+532379981+534929318+539309766+542832157+542110231+538202875
3708+535344078+535923062+540063560+546259649+551549157+554206977+555969616
3698+558616221+561694131+565002109+570247647+578882887+588934071+595110914
3688+594803859+591772252+589846537+589049957+588172579+587465421+588744309
3678+592865671+597111320+597774840+596701371+597261257+597105805+591697450
3668+582867821+576187759+573316008+572426823+571981750+572857795+576518427
3658+581589267+584413235+584836878+587685126+596664766+609742043+618277904
3648+615463893+605535182+595876551+589516275+585963904+583973232+583616063
3638+586094743+591639044+598506019+604795046+610308258+614869881+616257289
3628+613892904+611456529+611626897+614623675+620479325+628606015+635737036
3618+638964216+640570700+643746064+647352621+648783444+648969838+650611558
3608+653123142+653672183+652140908+650899366+651024098+651918390+653822527
3598+657400585+660883669+661568397+660337293+661009881+665540637+671897211
3588+675400060+673410942+668845469+665898324+665344397+665579648+665608073
3578+666058957+667605333+669048815+668479935+666530199+666515764+670440257
3568+675728063+677424413+674384589+669889439+666706896+664911131+663270891
3558+661570914+661038455+662505328+665179692+667604001+669346394+670912757
3548+672029123+671199676+667249423+661132170+655946444+654723186+657836146
3538+662323819+664227809+662343140+659324635+658867680+661948144+665361645
3528+664968056+660656635+655434785+650818753+646604083+643576029+643148832
3518+645075843+647547972+649242990+650066884+650003001+648797657+647344552
3508+647647979+649969098+651386078+649021952+644294069+641357879+641847552
3498+643810835+644852807+644685659+644575362+645328860+646226335+645956441
3488+644555746+643455813+643222635+642532355+640195025+637091910+634967845
3478+634393043+634847111+635772642+636714384+637192509+637285410+637952225
3468+640112265+643225596+645130992+643810169+639765386+635951189+634792925
3458+635913659+637079992+636953336+636004561+634869837+633336637+631370689
3448+629737112+629009079+629113306+629631923+629745625+628671305+626808917
3438+625488539+625493795+626564488+627846596+628548424+628606977+628426505
3428+627947343+626930170+625881758+625469070+625490982+625119230+623717572
3418+621488985+619622452+619428544+621091250+623468109+625034990+625010784
3408+623781233+622279346+621041949+620057495+619410186+619278052+619158502
3398+618153025+616366476+614860813+614014822+613211839+612378099+612157172
3388+612249555+611488915+609892942+608812478+608859668+609336461+609700589
3378+610255737+611168795+611783126+611373140+610142035+609087998+608894830
3368+609340755+609991728+610849008+611952235+612917480+613373916+613426178
3358+613102024+612193111+611223684+611270468+612325690+613211543+613224646
3348+612739969+612283533+611878655+611266137+610256514+609029037+607930621
3338+606931473+605954458+605354673+605389058+605791937+606047581+605749114
3328+604924108+604321473+604929031+606595068+608047506+608618459+608782683
3318+608933101+608486436+606790049+604438247+602697224+601868036+601093701
3308+599749375+598385359+598211216+599914228+602843533+605172572+605194928
3298+603080301+600904345+600323881+600773507+600778207+600496247+601192376
3288+602786460+603988399+604382470+604609652+604974445+605388169+606075933
3278+607175051+608121050+608147995+607072231+605357486+603735938+602806706
3268+602532186+602145592+601128159+600103065+600032631+600891983+601820993
3258+602108283+601528966+600315331+599207922+598972190+599581302+600143335
3248+599905419+599161212+598513570+597552840+595567646+593329991+592584081
3238+593733869+595313519+595777543+594877255+593437474+592476338+592357010
3228+592651406+592958794+593191824+593051177+592168321+590607399+588716809
3218+586955132+585974638+586016943+586257375+585784468+584949174+584577126
3208+584327847+583230912+581463425+580148635+579647895+579341729+578984338
3198+579066024+579600741+579561545+578167364+576201231+575278773+575923898
3188+576995701+577066025+575749607+573624469+571556922+570251830+569884815
3178+569971794+569704787+568493003+566556813+565126952+565330076+566568620
3168+566891627+565290435+562587979+559946186+557761014+556029835+554693430
3158+553594756+552739993+552330192+552217970+551865761+551124441+550399739
3148+549848884+549174889+548332377+547709163+547425241+547010481+546019994
3138+544593908+543248657+542256726+541384197+540367468+539510336+539371762
3128+539808026+539923912+539227525+538290631+537830272+537627148+536922951
3118+535550644+534013780+532660239+531437684+530322872+529462187+528881537
3108+528382574+527794522+527188518+526732489+526308180+525464224+523989467
3098+522407041+521543839+521564085+521722054+521291008+520465744+519988062
3088+520126711+520461413+520614385+520691371+520817213+520699847+519972110
3078+518661836+517062569+515434581+513993987+512882395+512059980+511464193
3068+511143481+510956827+510501242+509749077+509274357+509395758+509578043
3058+509051839+507627345+505675202+503783353+502586078+502340612+502573235
3048+502591334+502153292+501318220+500134750+498846868+497888545+497374776
3038+496977412+496375554+495519792+494525603+493534301+492563837+491516610
3028+490473602+489702154+489159405+488422082+487430891+486787579+486840988
3018+486973863+486433519+485497810+485016094+485035637+484773515+483833291
3008+482607590+481517946+480565138+479640939+478820857+478318044+478290396
2998+478493742+478207821+476924640+475063067+473609111+473084091+473161521
2988+473141830+472504033+471177918+469624806+468503184+467973611+467559221
2978+466907914+466299913+466028945+465649124+464385042+462160230+459797435
2968+458257426+457894816+458305134+458730110+458725447+458421131+458022841
2958+457402884+456516143+455753836+455350772+454899591+454029468+453063187
2948+452406625+451762425+450536132+448685921+446751730+445340968+444811765
2938+445055380+445449525+445394487+444875500+444222713+443605718+443066448
2928+442662014+442277233+441614564+440544871+439256101+438054754+437147877
2918+436541985+436122339+435875023+435888532+436037026+435877280+435050276
2908+433702990+432375616+431474810+430962004+430539767+429960042+429134630
2898+428173493+427345971+426828983+426542396+426361887+426278572+426168534
2888+425728976+424911484+424061533+423393867+422735935+421941132+421127823
2878+420377879+419603469+418789568+418046027+417434472+416932991+416477851
2868+416019712+415650625+415517010+415473113+415081227+414116056+412847346
2858+411743712+411027597+410533112+410032817+409667394+409771213+410231388
2848+410409380+409856379+408795087+407750746+406966677+406326585+405673687
2838+405013239+404419524+403877626+403291425+402610804+401866745+401077790
2828+400243643+399474304+398939698+398614026+398301679+397972158+397745346
2818+397524642+397016240+396149966+395167510+394280769+393500104+392823111
2808+392346873+392040337+391598114+390802755+389849983+388979194+388092600
2798+387156595+386557809+386535935+386632574+386180320+385083422+383769521
2788+382578945+381486081+380356501+379266784+378453660+378004922+377726589
2778+377325449+376671441+375876453+375108335+374347732+373434119+372373382
2768+371424571+370813201+370504444+370266602+369821307+368988159+367851325
2758+366743175+365946188+365465953+365114113+364652421+363874459+362818719
2748+361878642+361367612+361016698+360262609+358977725+357569924+356436902
2738+355634844+355006893+354388009+353709462+353019922+352383679+351759318
2728+351072406+350387307+349868320+349523439+349101202+348332197+347241961
2718+346172563+345464776+345075702+344568485+343623893+342489576+341711983
2708+341520222+341658611+341669493+341193551+340189702+338974106+337902598
2698+337060049+336376468+335830610+335394457+334993650+334606649+334244742
2688+333890460+333571191+333349117+333160132+332818212+332198292+331316621
2678+330305888+329364035+328603616+327927956+327152325+326246855+325404491
2668+324864740+324686711+324712989+324743376+324644776+324296082+323634412
2658+322836278+322228572+321905159+321613649+321104989+320392575+319573344
2648+318635377+317613503+316731277+316170947+315834467+315525599+315262701
2638+315205887+315322883+315327028+314996323+314443136+313968971+313702556
2628+313506354+313230649+312863375+312377551+311691934+310915563+310370890
2618+310213439+310236627+310145892+309827326+309300030+308610027+307846037
2608+307158977+306707000+306554324+306603810+306666731+306588339+306273697
2598+305728061+305160458+304825237+304658145+304351683+303886808+303618301
2588+303682407+303703559+303317928+302682592+302200358+301971196+301796406
2578+301573721+301392619+301286264+301139751+300865490+300507506+300151225
2568+299847946+299653095+299653631+299917677+300439385+301117969+301753582
2558+302121929+302146154+301957891+301723973+301482448+301184036+300767888
2548+300177800+299447935+298767704+298329792+298147044+298094893+298056549
2538+297987317+297899875+297782102+297547092+297174711+296858477+296817560
2528+296991352+297103869+297015632+296856053+296788524+296766742+296597411
2518+296199732+295716646+295353130+295189683+295183447+295243259+295247830
2508+295103703+294868712+294702601+294607960+294374949+293910092+293428913
2498+293155762+293044447+292956987+292851632+292624524+292090232+291332164
2488+290776127+290701140+290891495+290911111+290552998+289932745+289294764
2478+288824466+288558051+288376450+288108814+287693868+287226773+286830870
2468+286555387+286422531+286446127+286535178+286516876+286331629+286068471
2458+285768375+285383706+284965189+284661484+284481974+284280442+284015914
2448+283830427+283829428+283947960+284044877+284001813+283747834+283280775
2438+282665130+282019228+281541695+281430250+281634762+281819546+281741043
2428+281529536+281422163+281389981+281266804+281109705+281172422+281540455
2418+281960415+282073192+281805297+281487564+281485195+281753165+281957325
2408+281970668+281952957+281983381+281955382+281847046+281825764+282041787
2398+282445740+282813217+282916019+282706529+282341050+282012010+281781313
2388+281574321+281269062+280720020+279701219+277930751+275233255+271669780
2378+267535204+263285151+259356623+255891120+252674118+249454710+246275756
2368+243489485+241519281+240473534+239998480+239833331+240403969+242458062
2358+246301350+251693753+258333121+266226540+275226093+284096749+290815120
2348+293982747+293776663+291836401+289805090+287791081+285057312+281454086
2338+277391574+273309834+269547714+266260166+263398075+260977098+259265073
2328+258471991+258308674+258172339+257864082+257822184+258507634+259873426
2318+261517015+263031412+264212106+265179720+266268142+267692970+269397962
2308+271154216+272670908+273733866+274362558+274742415+274995469+275134098
2298+275198963+275308982+275582355+276048414+276601046+277051579+277317179
2288+277542344+277924478+278446222+278908895+279173126+279206604+278978738
2278+278511013+277984826+277616406+277431677+277281629+277076988+276912042
2268+276917372+277062812+277177957+277128509+276919297+276674145+276539864
2258+276536293+276508478+276326599+276084020+275955569+275925441+275834816
2248+275646831+275481256+275430567+275489806+275605728+275707734+275784091
2238+275934102+276226740+276574841+276864352+277108004+277401956+277819196
2228+278347307+278895941+279426865+280036162+280805093+281653712+282457750
2218+283239025+284151713+285317528+286744076+288403173+290268892+292219202
2208+294087696+295899358+297831550+299902169+301926041+303762279+305444768
2198+307134326+308998416+311052953+313154366+315183753+317121979+318950648
2188+320639966+322230497+323797156+325304854+326595844+327583741+328380654
2178+329148475+329903564+330507716+330774464+330619494+330162169+329611722
2168+329092142+328623899+328130524+327447462+326481106+325302781+324041733
2158+322784572+321505018+320092516+318619054+317366112+316428701+315681865
2148+315100809+314758370+315028190+317058207+322005351+329538141+338108054
2138+346644027+354975321+363022138+370639280+377897105+385020871+392322741
2128+400065761+408180200+416365999+424355263+431833644+438421879+443813283
2118+447729485+450042498+451070553+451432941+451802435+453127736+456709828
2108+463587167+473914315+487081346+502101734+517415260+530744110+540088210
2098+544588467+544097609+539147171+531274608+521937466+511611687+500388433
2088+488124798+474160447+458172445+440822574+423171608+406255447+390898025
2078+377322747+365419835+355258206+346798812+339727455+333919070+329396939
2068+325952570+323282166+321026374+318690044+316203851+314079749+312549436
2058+311350162+310371741+309671689+309201429+309045496+309406533+310345499
2048+312014164+314770732+318915745+324854636+333300631+344848965+359719712
2038+377949736+399227913+422630524+446805065+469993967+490050884+505290644
2028+515161504+519888758+520170126+517072193+511671166+504911268+497502691
2018+489611992+481036490+471737063+461897923+451691398+441185517+430343009
2008+419178086+407941656+396995587+386569727+376736768+367503112+358882900
1998+350968179+343952859+338035843+333178342+328950570+324839609+320752113
1988+316973929+313755336+311164731+309126868+307449561+305967956+304647411
1978+303477951+302435424+301528436+300717570+299967404+299470735+299445696
1968+299627186+299408406+298618785+297731210+297192107+296947381+296717867
1958+296433057+296212223+296096227+295982543+295776421+295524848+295384368
1948+295508045+296040079+297037080+298076239+298232246+297085289+295403614
1938+294213408+293776829+293773924+293890180+293987078+294027736+294033436
1928+294164626+294798962+296118415+297579941+298499975+299105108+299902114
1918+300318392+299415235+297696381+296652763+296956449+298026606+298852388
1908+298906889+298437147+297989612+297782343+297677209+297602037+297750012
1898+298353054+299288449+300062303+300507747+301141176+302161329+302695343
1888+302010004+300750104+299894415+299534267+299335122+299223233+299215405
1878+299219310+299203469+299360623+300253398+302626500+306422264+309834433
1868+310374239+307806397+304421229+302171378+301322203+301236649+301342209
1858+301413124+301460426+301556436+301729728+302079476+302855662+304339339
1848+306828327+310361600+313695783+314357231+311741938+308383678+306530322
1838+306227228+306424781+306727579+308012093+311149185+315157104+317528634
1828+317417078+316429145+315481814+313988514+312017865+310706592+310601218
1818+311156625+311741383+312477707+313885471+315860857+317399497+317686158
1808+317132342+316868074+317766364+320081412+323234383+325838424+326763843
1798+326501241+326873511+329348453+333484916+336385092+335333090+331767173
1788+329255552+329292860+331001979+333085923+335057348+336655467+337548057
1778+338284788+340414515+345075517+351435090+356187771+356484277+353516997
1768+350081511+347792779+347732523+350292778+353885122+356061818+356752987
1758+357527544+358607861+359805765+362403144+367542308+373768711+377787770
1748+378345176+377212635+376434710+376951032+378709896+380674437+381643458
1738+382477235+385804867+392078645+396662550+394960315+389761783+385151377
1728+382132724+380854058+381325781+383008880+385958838+391546888+400548106
1718+410293976+414951498+412487142+407110655+402908162+401547958+403459979
1708+408147926+413761440+418226240+422210323+428484545+437184964+443758320
1698+445233669+443403038+439367212+434611421+432410186+434058309+438250105
1688+444190476+453174224+464783147+472218113+470386409+465042825+462507850
1678+464530130+470027833+475939853+480072059+484094746+489814671+494619392
1668+494941029+493185127+494106179+498401795+502794309+504599883+505408936
1658+508710733+516927918+530686777+545616004+550882454+547585024+547272158
1648+552265827+556717302+555162229+550572438+548225634+549907845+555833373
1638+565591235+576004696+580333179+576835105+572520279+572542783+576863974
1628+583201673+590048661+597546030+605224538+611421700+616664795+624124190
1618+635033135+645051859+648089019+645458773+642201464+640042534+638233371
1608+636170598+634363360+633848518+635345667+638958294+644313981+650735846
1598+657337294+663228771+667824891+671046445+673258081+674840285+675787135
1588+675997661+675919565+676396950+677783655+679760706+682369041+686658253
1578+693388875+700594957+704334240+705274650+708340531+715740854+725116525
1568+732974469+739873126+748690430+760648749+776435848+798508161+826939196
1558+849167406+855572688+856393622+859348984+864452839+869747677+873702669
1548+876173465+878731832+882972781+889221576+896481844+900113199+892994170
1538+878938065+868634050+864730580+863508506+860662552+856515985+854513469
1528+855699937+858287026+861257415+865685572+871035485+873882105+873151777
1518+871327808+869407534+866953615+864868562+865088933+869254895+877817776
1508+887340090+888282128+877394354+866280805+861948880+862869747+865673284
1498+867497919+866488740+863374595+861518796+863330847+867809859+870975525
1488+869512649+864382812+858876188+855305089+854159927+854948216+857598522
1478+862491777+869115136+875505614+878533816+875166803+866828735+859768852
1468+858213371+861409462+865148079+866095299+866197527+869431444+876430109
1458+882993434+882668836+875704074+868366969+863644637+861497403+861030455
1448+860542262+858370822+854492520+850216410+846923421+845920238+848071396
1438+852259121+854643753+852505549+848525389+846424272+846466689+846590680
1428+845596306+844389334+844021357+844393627+845315531+847084869+848797652
1418+847805351+843370458+838050007+834244841+832482017+831945116+831736292
1408+831809799+832184660+831873016+830241142+828717861+829056376+831080730
1398+833323382+834531761+833605046+830038832+825607418+823158089+823537095
1388+824874943+824615931+822787373+822143876+824671450+829792182+835719191
1378+841332040+846404138+850714670+853746869+855394881+856421900+857686390
1368+859557882+862319447+866078643+869796015+871457278+870205520+867365266
1358+864832586+863725990+864109142+865084566+865673654+865783507+865956280
1348+866563357+867656332+869318556+871891432+875688381+880278134+884332911
1338+886735086+887547063+887472520+887289827+888019045+890417519+893967817
1328+897321506+900056496+903045910+906897933+911153242+915318242+919580954
1318+924019475+928043161+931057373+933030205+934385967+935785700+937664521
1308+939687690+941134132+941899029+942423198+942696942+942436449+942189354
1298+942956620+944576503+945545116+944764970+942616033+940074247+937654009
1288+935348880+933047601+930884377+929198983+928082172+927205794+926220525
1278+925033391+923753356+922837670+923023843+924489680+926330674+927353399
1268+927234367+926684142+926676961+927551785+928736032+929419132+929441932
1258+929204905+928797695+927668744+925315795+922150573+919123333+916394043
1248+913216977+909332753+905421288+901969221+898770317+895532477+892146144
1238+888733235+885976925+884686527+884676015+884897275+884788829+884574676
1228+884407158+884178199+883919113+883774617+883926515+884771433+886671721
1218+889416779+892329725+894827096+896719759+898269836+899898676+901578888
1208+902976845+904292116+906060417+908180855+910138068+911912884+913706502
1198+915335638+916749509+918452744+920879273+923953593+927325788+930394926
1188+932471022+933651198+935096900+937886077+941813901+945594860+948081572
1178+949136276+949532900+950359978+952349762+955166550+957628093+959289133
1168+961152557+963968678+966682275+967875553+968261592+970014645+973574048
1158+976728759+977437101+976405567+976192302+978366037+982036329+985019895
1148+986482031+987865626+990545690+993783234+996134999+997859182+1000440645
1138+1004229007+1007772865+1009327310+1008407923+1006087545+1004042539
1130+1003514151+1005114046+1008741553+1013329973+1017374016+1019934012
1121+1021070365+1021421465+1021302211+1020615188+1019670633+1019308948
1113+1019799510+1020502670+1021189471+1022430791+1024195762+1025706680
1104+1027068290+1029317457+1032710527+1036352838+1039163037+1040292062
1095+1039545745+1038234101+1038344102+1040281698+1042916682+1045853241
1087+1049268667+1051730062+1051405834+1049493480+1049522127+1052831253
1078+1056635012+1057494883+1055690161+1054160737+1054099000+1054204115
1070+1053835102+1054198563+1055762779+1057260743+1057898540+1058299013
1061+1059101515+1060455575+1062889951+1066759814+1070658176+1072535961
1053+1072495247+1072268658+1072260145+1071221208+1068944283+1067125644
1044+1067265550+1069207514+1071296639+1072086187+1071952868+1071959530
1035+1071935324+1071238752+1070457199+1070480887+1070585484+1069735755
1027+1069051766+1070372811+1072948130+1073741823+1071507536+1068320180
1018+1066455350+1066159622+1066459792+1066511683+1066171614+1065765662
1010+1065363560+1064893873+1064742789+1064889284+1064188270+1061896835
1001+1058868707+1056116913+1053384366+1049851241+1045452768+1041520354
993+1040242391+1042567507+1046632203+1049332328+1049087084+1046009433
984+1040962504+1035982640+1033508291+1033771523+1034624583+1034314864
975+1032813347+1030498965+1027404955+1023758942+1019902922+1015673373
967+1010591800+1005009375+1000341748+997707283+996845266+996409927+995080887
957+992137443+987587219+982387873+977824842+974306597+971407346+968998508
947+967371667+966408014+965721435+965484778+965912196+965987479+964315336
937+961510022+959886586+960296535+960978154+960334954+959128277+958725065
927+959043963+959353904+959440291+958890880+956891769+954004954+952502401
917+953586344+955662737+956522978+955901689+954688868+953131981+950912646
907+948084607+945526906+944667109+946074022+948219036+948791765+947402025
897+945636758+944721517+944601153+944950327+946017986+948010360+950095044
887+950794059+949232064+945675695+941409800+938360131+938006515+940149086
877+943122510+945244798+945615439+943904951+940427493+936506108+933870459
867+933312831+934213786+935275300+935465469+934694280+933944558+934125474
857+934936341+935768896+937037458+939360797+941952919+943074912+941792212
847+938861796+936150198+934817383+934210528+933230960+932429346+933258941
837+935540012+937319196+937060257+934866831+932012143+930106451+930221634
827+932295732+935587462+939326523+942629949+944794950+945874970+946384630
817+946738320+947219480+947778737+948085051+948533641+950146269+952722032
807+954247533+953017539+949471756+945806793+944775777+947894215+953461317
797+957156777+956187868+952244425+949052776+948371675+949019243+948905763
787+947581239+946441851+947213854+950354056+954013245+955380333+953922935
777+951831811+950951657+951310455+952563175+954752900+957196381+958612473
767+958979858+959237316+959131460+957500918+954676580+952592711+952145158
757+952323557+952451694+953107997+954121173+953994961+952512468+952275219
747+955157963+958782138+959615804+957915679+956411201+956395063+958218514
737+962382699+967121982+968463976+965186014+960173062+956058251+953492333
727+953007841+954724622+957016649+958214590+958637345+959364934+960019016
717+959111103+956186536+952379668+949218369+947751570+947995925+948389589
707+947115476+944574208+942824782+942812568+943858611+945078686+945996444
697+946356204+945766376+942974608+936824711+928776968+922202465+918903406
687+917875277+917230744+916495235+916497011+916820055+915108234+910039911
677+903185742+897179749+892981882+889216838+883679569+876239125+872123944
667+877431663+887804299+894827910+895960636+893103283+888825544+884078784
657+879179756+875344388+873052140+870874111+868588303+868952726+873510279
647+879553210+884055689+887334020+889777945+888675718+882139189+873757225
637+869516942+871406719+874520197+872629089+866794092+862169177+860026754
627+856507324+849041416+842535533+844583426+855579795+866991442+870341874
617+864676023+853698161+841871902+833748802+831986422+834935418+837431382
607+835095237+829697726+827453224+830454037+835521323+841838221
##END=
