##TITLE=<SNM>
##JCAMP-DX=4.24
##DATA TYPE=INFRARED SPECTRUM
##DATE=2/5/2025
##SAMPLING PROCEDURE=Instrument type and / or accessory
##ORIGIN=Admin
##XUNITS=1/CM
##YUNITS=ABSORBANCE
##RESOLUTION=4
##FIRSTX=4497.3318
##LASTX=599.83466
##DELTAX=-1.4281778
##MAXY=1.741376
##MINY=0.18864036
##XFACTOR=1
##YFACTOR=1.6217828e-09
##NPOINTS=2730
##FIRSTY=0.20607747
##XYDATA=(X++(Y..Y))
4497+127068476+126691818+126931371+127332093+127653972+127878254+127980325
4487+127852674+127460313+127082304+127149166+127678320+128192801+128296562
4477+127970898+127431904+127104245+127455820+128424626+129292703+129488098
4467+129207511+129013301+129171383+129552176+129853299+129832947+129578353
4457+129494934+129774143+130067520+129962188+129518851+129101121+128969832
4447+129178237+129571333+129786685+129457088+128502505+127234864+126181150
4437+125670317+125563386+125500714+125313193+125077425+124996211+125311824
4427+125984368+126428311+126051579+125042317+124137736+123746753+123702412
4417+123729066+123759626+123815040+123875397+123910477+123870453+123667781
4407+123310133+122988971+122877593+122978184+123281273+123772517+124139188
4397+123804675+122513127+120770872+119544174+119451677+120209551+120962151
4387+121188629+121022241+120730812+120407766+120129623+119874919+119374211
4377+118517445+117690660+117321214+117388086+117647558+117926951+118016866
4367+117798786+117590482+117823098+118349560+118552682+118131746+117400526
4357+116906673+117055273+117899387+119002662+119673203+119586301+119058553
4347+118557009+118146906+117679487+117361118+117674461+118612258+119396529
4337+119269816+118348889+117401197+116977716+117011344+117070773+116849358
4327+116556164+116764422+117609198+118349109+118165935+117223002+116414217
4317+116316657+116910054+117916247+118854769+119134576+118652823+118087780
4307+118156434+118750594+119148964+118939144+118408492+118105468+118280584
4297+118714834+118954295+118783203+118520505+118668066+119257559+119820057
4287+119981327+119819579+119653420+119703955+119893249+119880717+119492049
4277+119044780+118930654+119081983+119237474+119451373+119920777+120575523
4267+121147751+121447046+121429184+121150085+120715927+120268869+119988594
4257+119968987+120138949+120462215+121017702+121707823+122227054+122449481
4247+122475602+122295616+121805484+121095838+120482291+120310317+120690430
4237+121273923+121486619+121147724+120624726+120383142+120629991+121247810
4227+121901417+122370747+122739963+123123265+123511418+123956500+124438519
4217+124568127+123988548+122956528+122039929+121508597+121343247+121441744
4207+121645050+121930654+122495201+123308286+123918893+124064571+124045497
4197+124188593+124350285+124234938+123892707+123658290+123747489+124037576
4187+124215394+124111780+123923258+124068605+124750576+125692828+126407197
4177+126734699+126987345+127462087+128003001+128256869+128171677+127934614
4167+127628520+127286547+127075762+127083848+127147531+127179579+127373366
4157+127810583+128143028+127999271+127550688+127351608+127709817+128488879
4147+129381883+130056835+130217535+129848576+129229305+128571242+127925398
4137+127434550+127280125+127405828+127575441+127624717+127567190+127606487
4127+128012033+128756796+129333526+129184338+128388067+127727872+127858362
4117+128544522+129043769+129105826+129130092+129392082+129667790+129692084
4107+129516995+129277028+129001485+128838956+129077646+129726236+130420005
4097+130865510+131012199+130787071+130175986+129531181+129265387+129367963
4087+129680691+130334601+131385586+132358867+132696540+132466956+132251715
4077+132444730+132855293+132946954+132450886+131714613+131306963+131367853
4067+131579538+131640492+131466285+131050054+130428054+129759111+129293374
4057+129243712+129649212+130321389+130952246+131293539+131280097+131088359
4047+131024014+131180645+131264799+130979865+130487317+130172430+130078032
4037+129936599+129719446+129792281+130450886+131525145+132472791+132775981
4027+132325064+131529399+131024952+131205131+131937076+132659494+132912314
4017+132818733+132754361+132662140+132229305+131608058+131355339+131737556
4007+132539892+133402731+134003755+134153778+133993041+133876150+133965633
3997+134169242+134386606+134518410+134395730+134015975+133674139+133626471
3987+133829842+134111660+134333223+134416109+134471274+134772416+135417120
3977+136189291+136813229+137109106+136954194+136420731+135875424+135649056
3967+135764789+136206408+137099173+138281098+139096794+139070929+138477679
3957+137956463+137903778+138377362+139383059+141022875+143047563+144410063
3947+144296837+143602968+143841023+144772994+144716460+143143488+141290075
3937+140499895+141540544+144605228+148508578+150630238+149497690+146899680
3927+145676427+146471274+147675526+148043686+148325403+149785913+152129209
3917+153370195+151780152+147987289+144382204+142698249+143098925+145416320
3907+150200858+157649028+165836520+171387845+172597408+170008118+164451556
3897+157531897+152467608+151929808+155346150+158525227+158126020+156797122
3887+158721173+163031419+165636826+166142320+166861880+166419324+162651380
3878+158761417+159040626+163202300+168433290+173174809+175931323+174742323
3868+171623980+170926527+172814708+173186662+169816803+165423698+163946245
3858+167817648+178017471+192097536+199408775+191281575+176709118+165640813
3848+160575816+161122547+165892384+172804362+180164775+187139196+191993766
3838+191859215+186949846+181286298+177317611+174401094+171834683+170397254
3828+170574456+171974692+175463261+182668837+191157094+194061372+190524619
3818+186585739+183580447+178439225+171836208+167794917+168650259+174029398
3808+180810848+185235156+188197448+193050089+198102388+198154889+194030665
3798+190191072+186802634+182464125+178570285+177292454+178815259+182249086
3788+187025520+192446612+197334682+201618706+206899771+213741569+219911145
3778+223511810+226312226+231494812+240767846+253911843+268534100+281203602
3768+290885067+298756599+305217586+310999514+318467558+328716630+339578440
3758+348777712+358078311+371760805+392685793+418926558+441688180+454805568
3748+464874772+479229912+495002487+502105026+500640915+501101939+509430984
3738+524894360+541641208+552081577+554000096+551991753+550892448+552074594
3728+554684796+556675424+555827286+551962903+546622207+541068236+536162433
3718+533037327+533327305+538812695+549326827+559297093+560685935+553750252
3708+545289118+540185623+540274124+544533192+549163204+551144791+551465604
3698+552286509+554788328+560371885+570259128+583143210+593836216+596200397
3688+590840001+584570091+581287611+580944232+583041148+587437598+594199662
3678+603091866+610623786+611022477+605996126+601900165+598291800+590010386
3668+577375413+565876203+558649220+555853601+556285810+558773737+562768849
3658+566760800+568081135+567598317+570870580+581655246+596779212+605395185
3648+599865213+586563879+574767415+567831696+565067243+564914536+566628087
3638+569997339+574467404+579525216+585745180+594472953+605255856+612921555
3628+611599235+604012003+597319879+595925782+600958160+609690859+616188194
3618+617628122+617897298+620944745+626355822+631761460+635753227+637396728
3608+636031150+632942834+630395662+629189296+629151662+631179594+637037067
3598+646480633+655640323+659693541+658010936+655297936+656949522+664191611
3588+671751462+672366332+666594639+661183562+659961393+661137622+661367472
3578+660300325+659782041+660487910+661470085+662593390+665513821+671075510
3568+675985208+674879177+668220204+662122810+659880905+659780424+659837978
3558+660962385+664275848+667946251+668724523+665835552+661760577+659173860
3548+658639184+659274121+659862529+659155924+657253319+656193008+657336379
3538+659211053+659401946+657715004+655753374+654732756+655102339+656327890
3528+657288601+657792479+657874584+656302604+652579057+649088153+648483059
3518+650472254+652729448+653619962+652984364+651332925+649423483+648141334
3508+647959629+648233362+647398050+644707103+641747788+641030378+642942540
3498+645105868+644904537+642293490+639540283+638316791+638356190+639028320
3488+640499377+642711366+644566046+644690270+642473798+638530911+634284816
3478+630885941+628960990+629197235+631544252+633987488+634182424+632160299
3468+629763739+628276143+627832834+628073048+628645359+629578138+630964003
3458+632437413+633604012+634213810+633544252+631044932+627972640+626687110
3448+628073489+630644697+631901561+630155521+625732573+620916813+618126340
3438+617920672+619211422+620945554+622672556+623958748+624354426+623797478
3428+622290550+619863485+617325722+615879216+615883589+616942320+618809349
3418+621145414+622943716+623392024+622547009+620786489+618725700+617472585
3408+617600705+617890021+616519114+613934234+612711661+613931845+615520511
3398+615147546+613459428+612847241+614035892+615463250+615635068+614675055
3388+613351302+611946032+610645433+609806556+609308265+608735330+608253357
3378+608206424+608286912+607976316+607439361+607278054+607731030+608619522
3368+609768186+611142254+612594714+613821110+614685236+615096203+614365415
3358+611684096+607787922+604921187+604665831+606590855+608959336+610219544
3348+610029644+609188672+608427821+607564357+606376404+605610261+606077680
3338+607405770+608675496+609562005+610058862+610032584+609749773+609899466
3328+610475710+610540651+609661126+608569355+607913579+607543702+607251703
3318+607236524+607773295+608786158+609629298+609352919+607524737+604873372
3308+602910860+602732978+604017589+605444213+606345348+607253945+608477915
3298+609353250+609567003+609917365+610966540+612028358+612136116+611314954
3288+610476261+610286765+610434583+610340938+610383020+611530397+613709162
3278+615475048+615578617+614050225+611635693+609203189+607720592+607768480
3268+609015641+610626579+611908066+612434657+612015641+610731397+608993002
3258+607605520+607165996+606926957+605429732+603095688+602358285+604540394
3248+608397133+611869697+613782667+613848307+612516615+610993002+610348288
3238+610545025+610809129+610620000+610007813+609236046+608527531+607821882
3228+606626505+604694534+602755580+601668109+601205726+600779249+600715888
3218+601643301+603156220+603903399+602922878+600782924+599125789+598660722
3208+598461707+597820779+597222191+596857532+595976169+594215539+592158278
3198+590392171+589072167+588226124+587814789+587758043+588067389+588564614
3188+588650395+587759109+585883112+583578691+581713683+580956581+581191062
3178+581721475+582047249+581936514+580989474+579105722+577155963+576075255
3168+575645764+575156147+574661384+574548958+574437304+573698504+572549252
3158+571481958+570297020+568615481+566884950+565965181+565865288+565741836
3148+565138249+564397795+563728678+562833681+561746945+560995980+560489199
3138+559382102+557527936+555986571+555620883+556042068+556271698+555809498
3128+554764586+553540359+552714014+552700637+553238731+553530730+553137183
3118+552437966+551923504+551388460+550269860+548536096+546762638+545509450
3108+545004066+545196429+545714235+545935706+545491662+544610777+543738749
3098+543059636+542614783+542480452+542493573+542160705+541225941+540109215
3088+539455387+539358066+539308781+538911413+538354722+538115573+538274601
3078+538295256+537621692+536332707+534997855+533902041+532729745+531305510
3068+530168497+529838753+529967167+529707988+528601075+526887487+525264532
3058+524293860+523879365+523659364+523790130+524501144+525060628+524232263
3048+521853087+519280960+518128694+518787190+520231160+521258284+521569945
3038+521381074+520730701+519771680+518982713+518442341+517431572+515265928
3028+512253359+509595783+508424442+508866098+509942947+510392945+509639298
3018+508088965+506604456+505757310+505531944+505509414+505184853+504247332
3008+502824457+501442304+500465128+499632094+498459468+497110429+496444105
2998+496896272+497647825+497459652+496280740+495369792+495650544+496557156
2988+496781604+495760875+494048979+492509929+491588028+491185882+490899506
2978+490379862+489516581+488357921+487156774+486446017+486576415+487135935
2968+487218739+486278204+484445024+482172173+479977642+478424590+477827030
2958+477773078+477321499+475966800+474084519+472361596+471321463+471260674
2948+471913693+472396070+472189264+471796894+471862791+472234727+472336899
2938+471928431+471204369+470462923+469858454+469342742+468710782+467740919
2928+466439953+465102344+463970255+463038836+462366374+462158135+462236528
2918+461956400+461015829+459859116+458973196+458262990+457449803+456705784
2908+456382987+456289231+455882233+455109768+454384053+453847759+453309592
2898+452718648+452173350+451644261+450993483+450127557+449071987+448023106
2888+447265783+446941626+446902080+446742059+446069194+444934643+443874920
2878+443359649+443390889+443699132+443996167+443958422+443312569+442060520
2868+440494531+439023805+437963200+437323963+436864335+436492841+436362884
2858+436338076+435836771+434648267+433423305+432841439+432695274+432259683
2848+431292686+430202606+429325617+428514562+427568808+426708431+426255750
2838+426026451+425506586+424601555+423739414+423211721+422867937+422526029
2828+422245901+422046702+421698839+420977864+419944236+418838315+417804209
2818+416869665+416186472+416023989+416291437+416322750+415512393+414002415
2808+412413897+411119031+410054530+409032957+408016234+407157217+406636323
2798+406458478+406423636+406251230+405781496+405139061+404563847+404009215
2788+403162473+401955960+400743641+399862940+399283426+398754630+398131527
2778+397467005+396808325+396044865+395104330+394173719+393486006+392964597
2768+392319112+391462043+390648121+390154755+389869592+389257699+387881684
2758+385971323+384302721+383479758+383435471+383590787+383411031+382845115
2748+382237522+381784216+381243255+380357335+379347412+378684139+378472885
2738+378312902+377761503+376808289+375808473+374998667+374285080+373549845
2728+372867057+372269497+371605526+370831774+370189119+369856251+369578696
2718+368880361+367654774+366331903+365379424+364858604+364536468+364177616
2708+363663338+363027335+362406106+361888925+361484389+361202314+360986797
2698+360619676+359898958+358912336+358005173+357424520+357017926+356388906
2688+355413237+354440617+353847725+353586635+353333484+352895614+352282912
2678+351564510+350887712+350469872+350316798+350102935+349574911+348905206
2668+348397102+348039904+347620925+347094776+346572045+346039647+345327236
2658+344386885+343465279+342862316+342577815+342376337+342154940+341988157
2648+341823469+341432054+340728978+339924024+339282214+338849894+338446020
2638+337865881+337084339+336267256+335605306+335162842+334845190+334495416
2628+334088896+333775213+333590789+333296144+332740555+332149611+331759079
2618+331461126+331077981+330643492+330209922+329721628+329197831+328734638
2608+328307905+327820529+327299415+326870071+326627064+326576529+326547678
2598+326226681+325520775+324776683+324367738+324213157+323979631+323572743
2588+323129545+322692300+322202903+321738571+321488911+321471931+321440104
2578+321163320+320695056+320238369+319880289+319604351+319395817+319157293
2568+318680392+317872497+316927259+316199154+315944606+316146524+316538490
2558+316816229+316830416+316624344+316362960+316169973+315973126+315609643
2548+315109221+314715380+314576529+314543783+314332345+313833283+313215656
2538+312713543+312376118+312085074+311764629+311478510+311307721+311197170
2528+311004402+310726516+310568554+310671865+310874041+310908552+310758234
2518+310609276+310525407+310414120+310298460+310345760+310553449+310645220
2508+310403645+309933433+309478327+309120614+308783887+308429960+308109258
2498+307859542+307678738+307567580+307477132+307246326+306752023+306134543
2488+305706192+305579231+305526344+305302466+304965702+304739233+304674549
2478+304627413+304488911+304283428+304086012+303932754+303770215+303488562
2468+303066827+302635389+302335966+302193145+302138494+302055213+301816891
2458+301418347+301045621+300882182+300883266+300870844+300788316+300683902
2448+300493744+300077099+299508243+299125025+299170837+299485935+299652718
2438+299427939+298961219+298566974+298377533+298295189+298196104+298067599
2428+297996777+298088713+298333797+298560432+298617380+298541137+298416932
2418+298202352+297858201+297526528+297401937+297503337+297679271+297780672
2408+297763306+297669918+297579047+297578735+297725047+297956790+298093638
2398+298016531+297824003+297732250+297839512+298047256+298203491+298268635
2388+298284751+298226517+298011937+297631493+297104186+296364541+295402470
2378+294446536+293790889+293513462+293543599+293859138+294380124+294826998
2368+294980661+295008519+295286901+295970333+296908001+297849675+298652221
2358+299482774+300785743+302920478+306036910+310141710+314791495+319044463
2348+322107015+323905869+325044426+326026784+326527611+325842360+323711043
2338+320447197+316700165+313136381+310077981+307449549+305111610+303052769
2328+301181458+299221169+297050968+295013573+293668301+293228299+293336205
2318+293385729+293023312+292367922+291787269+291508427+291495784+291629950
2308+291822386+291946132+291849105+291545180+291267184+291203473+291266302
2298+291237635+291056500+290841626+290709023+290666041+290634544+290539961
2288+290412724+290370128+290446885+290510669+290408663+290135481+289805204
2278+289528402+289386813+289438818+289634323+289792745+289771392+289592113
2268+289358716+289164166+289081087+289108964+289166941+289230192+289357558
2258+289518755+289550215+289361564+289087151+288981561+289183149+289586821
2248+289958922+290157716+290188460+290094483+289915407+289757665+289800831
2238+290166482+290778761+291388669+291779275+291958903+292145386+292556445
2228+293213212+293958536+294658359+295336150+296107071+297057676+298203767
2218+299475607+300719276+301811636+302812371+303925201+305292561+306896130
2208+308626109+310351935+311975735+313528567+315163173+316976287+318910499
2198+320865588+322820125+324800352+326770031+328631180+330385783+332195001
2188+334155161+336120283+337839420+339164716+340120871+340888631+341654701
2178+342396331+342921855+343111205+343005614+342746583+342464213+342125942
2168+341568590+340741547+339760622+338711888+337553963+336171038+334466308
2158+332461567+330271703+327979080+325599132+323082906+320375052+317594134
2148+314923951+312303972+309852835+308561130+309612032+312998632+317636693
2138+322663596+327819537+332888925+337659112+342254025+346961805+351860331
2128+356800241+361622211+366322274+371037993+375906639+381009179+386396771
2118+392036118+397809097+403681088+409770360+416242299+423329917+431443776
2108+441136120+453134797+468475052+488079594+511830154+538292720+565309993
2098+590358359+611042581+626744150+639091167+649648923+658298561+664236449
2088+667137695+666994066+663417896+655336085+641972860+624038574+602932581
2078+579597729+554958272+530135751+505945263+483120683+462478653+444339178
2068+428580238+415158650+403800129+393783848+384728793+376900538+370506147
2058+365366561+361156593+357521252+354260126+351497180+349401880+347991575
2048+347321061+347458847+348375639+350175779+353194780+357878781+364986944
2038+375675282+390949749+411172947+435980510+464169087+493828169+523092456
2028+550642862+575538043+597122334+614969921+628897187+639529037+648117739
2018+655108440+659928022+662473577+663407459+662758115+659461118+652600520
2008+642388238+629652011+615051548+599129391+582399228+564943019+546482694
1998+527260011+508435725+491157288+475406398+460204369+444983781+430234176
1988+416713136+404744045+394328815+385327639+377481228+370528382+364241382
1978+358405555+353007489+348268211+344289601+340993780+338474063+336830231
1968+335529081+333610819+330837950+327987753+325753860+324045859+322545730
1958+321284971+320331610+319416766+318262368+317001646+316028549+315593288
1948+315743790+316588805+318164533+319707111+319715674+317665470+314920754
1938+313038913+312233738+311898959+311656723+311517100+311520188+311547201
1928+311581087+312105472+313589429+315435142+316529082+316968458+317581601
1918+317901642+316688000+314359395+312779293+312946921+314172545+315038031
1908+314798588+313903700+313181807+312866727+312684508+312531654+312702664
1898+313510816+314739674+315684030+316196471+317125833+318772347+319768745
1888+318869410+316929758+315537535+315065485+315031305+315158212+315464103
1878+315918953+316360718+316764923+317817552+320828946+326161703+331464360
1868+332798367+329258215+324147186+320668337+319412980+319353772+319480531
1858+319430732+319286735+319204667+319272255+319702443+320861655+323028291
1848+326497548+331363144+335968237+336732065+332711080+327670248+324979998
1838+324693990+325112749+325423124+326843977+330882126+336455686+339949016
1828+339817258+338257223+336720893+334425917+331397544+329212568+328686198
1818+329112381+329630298+330422058+332267477+335051298+337215361+337356124
1808+336006497+334971986+335704722+338640846+342885140+346286771+347119621
1798+346174750+346206283+349366230+355005761+358827144+356731256+350882089
1788+346577778+345902229+347484353+349557049+351669990+353505853+354354396
1778+354796639+357087940+363010208+371495635+377789619+377611369+372532498
1768+366532094+362015243+360733829+363381151+367667086+369966803+370082794
1758+370212678+370621366+371065006+373554697+379990471+388392691+393589721
1748+393251819+390143913+387732689+387551977+389417389+391732064+392673407
1738+393348294+397567082+406314959+413208303+411234912+403959856+397190625
1728+392508168+390433707+391216904+393969265+398417903+406420071+419379018
1718+433612764+440090621+435492657+426605083+419752535+417201908+419518421
1708+426290555+435086615+442399232+448318045+456730923+468521544+477724858
1698+479786051+476818982+470297353+462484019+458295773+459899066+465740809
1688+474514707+487534737+503923983+513735736+509620444+500431352+495406728
1678+496947909+503716147+511841143+518123255+523962573+531113515+536002559
1668+534610777+531177428+532191320+537936919+543035048+543523453+542457372
1658+545457776+555891162+574129281+593086023+596853085+588785314+585930707
1648+590433702+592952868+585947392+575253211+569006601+569280003+575705010
1638+587272064+599366444+602334690+593971612+584627829+581425947+584005939
1628+588853379+593573619+598264052+602165555+603021191+602150523+604175000
1618+610350383+615429438+614037325+609614340+607863339+609638670+612507978
1608+614198595+614657193+615200764+616480818+617916483+618792075+619310507
1598+620264015+621925303+623575272+624251739+623889874+623369090+623468101
1588+624170369+624996272+625695159+626462405+627849813+630937100+637145193
1578+646462404+654472695+654882265+650399337+649292424+653670828+658617867
1568+659291982+657670681+657779395+661455458+671023835+689957644+714807362
1558+725790933+716896670+706372800+702532674+704490335+710005054+717071466
1548+724981128+735239204+749363280+766374048+783529180+795456263+793271618
1538+780098330+770212778+768697103+770871971+769915450+765955143+764657704
1528+768549799+775575415+783200098+791204949+798672478+802353539+801976311
1518+800482247+797944631+793235895+788727092+788667259+795583574+809246332
1508+824517161+828106047+814139713+797978296+790531054+791611138+797588572
1498+803391799+804246663+800677476+798505327+801706621+808694309+813434652
1488+811370335+804939228+799468979+797510950+798235123+799598127+801113949
1478+804302747+810569129+819564682+828156398+830470338+824393966+816260628
1468+812675785+814615952+818197340+818958853+818152943+821164300+830527084
1458+841451043+842707465+832414327+821333288+815465818+814559941+816415504
1448+818046582+817313956+814884540+812943417+812839996+815198774+820559132
1438+827931399+832962161+831867155+827558140+824698057+823704121+822353759
1428+820087377+818796995+819569313+821614078+824525247+828666744+831966681
1418+830045332+823079695+816122953+812262613+811093221+810709965+809993217
1408+809743888+810916809+812397201+812772665+813493456+816802434+821923754
1398+826004904+827600405+826665494+823204581+818777369+816328547+816926732
1388+818207484+816797216+813098219+811174003+813569607+819335567+826334280
1378+833537558+840655056+846547371+849497204+849602095+849063303+849258386
1368+849852233+850990386+853821067+857952568+860431747+858893286+854578831
1358+850619332+848820075+848529877+847872521+846127289+844327297+843515654
1348+843493088+843357618+842813313+842834997+844652630+847919858+850571628
1338+851089250+850146548+849337183+849462656+850334500+851316675+851988365
1328+852548400+853558286+855357397+857826359+860598824+863326892+865761013
1318+867792473+869484487+870871748+871910890+872880201+874310390+876177052
1308+877824448+878961939+880031070+881345562+882548105+883192524+883411202
1298+883726686+884350009+884903208+884830585+883869506+882077232+879611944
1288+876717388+873838267+871392458+869294623+866987592+864165218+861250300
1278+858983770+857776890+857466405+857488971+857353575+857001044+856707391
1268+856793392+857484928+858759286+860228285+861413628+862180507+862749216
1258+863351222+863998876+864515984+864790231+864917322+864954148+864813827
1248+864678210+865034930+865965578+866924746+867477430+867745062+868064736
1238+868717682+869966019+871895454+874197780+876339498+877982925+879278672
1228+880666448+882143092+882978477+882789937+882555088+883670822+886408298
1218+889932500+893276981+895849659+897673909+899546892+902313182+905723745
1208+908561703+910057384+910683207+911405909+912657700+914305758+916250115
1198+918534359+921120488+924018132+927171427+929982335+931820257+933052422
1188+934546634+936463205+938560894+941155844+944684529+948882919+953116959
1178+956748772+958902545+959045586+957969104+957027283+956666299+956912542
1168+958531785+962156395+966710402+969957122+970533622+968946868+966913791
1158+966088917+967093805+969404878+971986156+974029598+975558430+977458096
1148+980492900+984101853+986664755+987401276+987658764+989699045+993743222
1138+997147830+997694561+996512746+996063189+996849841+997779607+998315753
1128+998961936+1000617050+1003858330+1008098986+1011612309+1012998615
1120+1012537076+1011675449+1011701985+1013481764+1017399070+1022726425
1111+1027593491+1030379848+1031059991+1030434022+1028830361+1026915553
1103+1026339862+1027600033+1028817130+1028731864+1028994645+1031520206
1094+1035845172+1040149924+1042760972+1042458792+1039512267+1035965279
1085+1033535642+1032411308+1032906953+1035959473+1040941647+1045064180
1077+1046133238+1044640570+1042561406+1041528439+1042296126+1045034852
1068+1049470222+1054063335+1056173445+1054788830+1051860755+1049653103
1060+1048805001+1049689856+1052834330+1057223833+1060191969+1060333833
1051+1059320933+1059561074+1061500947+1064166977+1067367388+1071210675
1043+1073741823+1072476874+1068392196+1064852559+1063271317+1062572504
1034+1061911326+1061764610+1062414395+1063206412+1064106556+1066065172
1025+1069077264+1071480806+1071499918+1068697389+1063990638+1059400760
1017+1057018386+1056910260+1056976341+1055587757+1053413623+1052220783
1008+1052714075+1053808934+1053916398+1052892252+1052077521+1052491943
1000+1053942419+1055869281+1057708893+1058584412+1058120522+1056985750
991+1055602311+1053503520+1050365147+1046634396+1042877845+1039272641
983+1035963956+1033182744+1030732232+1028267753+1025966382+1024130225
974+1022587721+1020973696+1019122250+1016734511+1013501242+1009800555
965+1006225415+1002754284+999153270+995247503+990627120+985891996+983049040
955+982776777+982896296+981025518+977483308+974138238+971725948+969794308
945+968282015+967544906+967159959+966063999+964057898+962241587+961623777
935+962095385+962859691+963144450+962416970+960760312+959267424+959164517
925+960221079+960822130+959838412+957866564+956236662+955696620+956394184
915+957886925+958971493+958603967+956910924+954532961+951933454+950222917
905+951027063+954105162+956323251+954981269+951513813+949479192+949739474
895+950079729+949090204+947680743+946554278+944856090+941929191+938740981
885+936947604+937369156+939462801+941667807+942451150+941697870+940892549
875+941327846+942287455+941911697+939764245+937415684+936576477+937606136
865+939480148+940779571+940836317+939766230+938059074+936786701+937063595
855+938164628+937873327+935932278+934501796+934496871+934472394+933524766
845+932542518+932097885+931737710+931772919+933522046+937086308+940271725
835+940630797+938032319+934541415+932149780+931154741+930756050+931047498
825+933550713+939029195+945458023+949458023+950008723+949251327+949033605
815+948919010+948461956+948864543+951041470+953983437+956479229+958570449
805+959874650+958629547+954558321+950610950+949672143+951151360+952159114
795+951122619+949067049+947919782+948472540+949722421+950386833+950737526
785+951708749+952974800+953687653+954171831+954740613+954223652+952142429
776+950485257+950862632+951783062+950629474+947090718+943217588+941143789
766+941876120+945359085+950324427+954341922+955510946+954259302+952434759
756+951285874+951104831+951348427+950864910+949413699+948393081+948755020
746+949626129+950117364+950684382+951929999+954229753+957973514+961933821
736+963462800+962230194+960995382+961454862+962148750+961099465+958710476
726+956726868+955935659+955910006+955728154+954717680+953040955+951393412
716+950056648+949053230+949056097+950650202+952626092+952907764+951426489
706+950234678+950861750+952695408+953541672+951557108+947576734+945021035
696+946192706+949113137+948695261+941930293+931389590+922122804+916641676
686+914296717+913826652+914352875+914644617+913739695+912091123+910726648
676+910003799+909607460+908386467+904334793+896655790+889247506+888179918
666+891211562+891941541+889454129+887165180+887585850+889948377+892799345
656+895504774+896379411+892961204+886299511+881669425+881941762+883205829
646+880064221+873764982+869932427+869738373+869234423+866350377+863130266
636+861649285+862404771+865029343+866939006+864477320+858497020+853989908
626+853170841+853823419+853243170+850033717+844599413+839715147+838742968
616+843304033+851790342+860814709+867039046+868606469+866441597+862607057
606+857958889+852515029+847551892+845848558+848691000
##END=
