##TITLE=<SNM>
##JCAMP-DX=4.24
##DATA TYPE=INFRARED SPECTRUM
##DATE=2/5/2025
##SAMPLING PROCEDURE=Instrument type and / or accessory
##ORIGIN=Admin
##XUNITS=1/CM
##YUNITS=ABSORBANCE
##RESOLUTION=4
##FIRSTX=4497.3318
##LASTX=599.83466
##DELTAX=-1.4281778
##MAXY=1.8357193
##MINY=0.3428871
##XFACTOR=1
##YFACTOR=1.7096469e-09
##NPOINTS=2730
##FIRSTY=0.36428577
##XYDATA=(X++(Y..Y))
4497+213076615+213187917+213361434+213223565+212645385+211955519+211569177
4487+211758505+212520155+213400847+213730623+213283043+212466569+211702949
4477+210940602+210075319+209532352+209870774+210885238+211690869+211799103
4467+211595621+211673141+212156578+212778913+213190776+213019020+212120739
4457+211107878+211066146+212241262+213408099+213150927+211540118+209901210
4447+209157288+209085085+209053830+208940122+209137259+209844330+210711599
4437+211357955+211823787+212143348+211948843+211067663+210120991+209883586
4427+210286035+210521034+209948781+208642316+207232148+206350358+206072302
4417+205951203+205707070+205584559+205833451+206298428+206761523+207270376
4407+207962857+208849232+209752167+210256593+210021036+209420003+209343878
4397+209987846+210445938+209957515+208980337+208517120+208838180+209275371
4387+209046735+208011875+206659180+205589788+205194991+205580793+206364565
4377+206772331+206404867+205655419+205037564+204569815+204179342+204135919
4367+204570861+204984258+204756057+203943907+203120757+202611137+202431589
4357+202761591+203805114+205273452+206496140+206965632+206574322+205573611
4347+204503330+203917672+203981734+204358785+204550745+204426177+204286460
4337+204378413+204556550+204461720+203807503+202626669+201502767+201233009
4327+201932898+202762254+202817931+202106589+201463406+201604517+202352884
4317+202954963+203028403+202689214+201989656+201055640+200560191+201134188
4307+202440967+203539558+203900136+203571580+202865363+202309879+202393639
4297+202978409+203346413+203054028+202452611+202253923+202766193+203579250
4287+203966900+203658600+203009594+202379345+201795796+201339674+201332754
4277+201896291+202676803+203194947+203256743+203035881+202911679+203076341
4267+203257475+203053644+202540416+202228438+202353860+202594315+202617517
4257+202485348+202355132+202226485+202150151+202315353+202828495+203562202
4247+204130620+204055907+203358005+202821888+203075103+203727630+204157691
4237+204533452+205134050+205430879+204894763+203927434+203115039+202466104
4227+202042945+202363953+203515414+204624185+204832548+204314491+203868549
4217+203908119+204315938+204896070+205446167+205633786+205252238+204468135
4207+203666148+203222176+203264361+203414467+203149328+202666291+202853997
4197+204120649+205708987+206496890+206243744+205701038+205512147+205426626
4187+204879353+203953163+203279474+203187695+203379673+203422642+203307696
4177+203375489+203830356+204561500+205277967+205575790+205201337+204528746
4167+204300179+204644563+204875152+204427327+203552544+202921581+202876380
4157+203229445+203622655+203881170+204017086+204111689+204287123+204627724
4147+205069099+205436562+205620050+205746291+206048298+206412363+206361340
4137+205727500+204909283+204292230+203967963+204040950+204592546+205361047
4127+205907100+205977577+205568486+204988476+204752135+205046054+205584715
4117+206134377+206606728+206607617+205744112+204482081+203800582+203911187
4107+204157186+204168673+204331295+204988511+205809621+206166190+205787814
4097+204881636+203866161+203174988+203063337+203323577+203446977+203342229
4087+203511928+204220463+204930149+204920579+204147668+203258730+202926305
4077+203236522+203688861+203793679+203534677+203164494+202789430+202365243
4067+201962672+201776290+201838557+201949389+201978726+201986850+201993561
4057+201948482+201919057+202010051+202245259+202712189+203470405+204217029
4047+204509954+204313358+203922867+203530092+203153599+202724740+202107077
4037+201339169+200815045+200932832+201701316+202847949+204020154+204773489
4027+204811299+204410750+204202073+204410854+204698462+204790869+204859812
4017+205148518+205463756+205327822+204662012+204024093+203960624+204353538
4007+204617579+204397623+203969671+203982135+204721438+205652421+205938181
3997+205363401+204440628+203741018+203407651+203242658+203154052+203469046
3987+204567200+206199084+207537816+207934059+207365694+206280212+205273888
3977+204791322+204898162+205314016+205681218+205845688+205972661+206342478
3967+207012768+207810415+208596348+209308300+209763062+209649895+208815606
3957+207511825+206334547+205881005+206436854+207908609+209784992+211203579
3947+211585162+211240029+210902374+210891705+211016762+210952926+210548245
3937+210097388+210275751+211385236+212786461+213491022+213285378+212818745
3927+212646396+212691475+212623630+212544751+212989351+214106070+215229885
3917+215412850+214299564+212487923+211069998+210777143+211519270+212902139
3907+215003881+218021179+221194910+223022710+222977997+221792666+220075279
3897+218149355+216756183+216678124+217702594+218437295+217975141+217510983
3887+218563449+220497548+221444046+221348084+221373796+221159785+219937620
3878+218866659+219396918+221263853+223462777+225412984+226292927+225509713
3868+224451425+224772677+225796781+225564798+223673807+221669545+221194666
3858+223235448+228200809+234872260+238413263+235023359+228663381+223861008
3848+221807709+222189415+224197896+226881165+229600221+232236964+234567725
3838+235676880+234886606+232909677+230973276+229699617+229185691+229273112
3828+229450760+229462806+230362882+233351557+236954286+237794868+236129724
3818+234990866+234282505+231874155+228466906+226769514+228151424+232033987
3808+236188487+238559237+240140603+242998661+246140370+246747034+245181112
3798+243766465+242798142+241646855+240762990+241105352+243165031+246933868
3788+251921977+257221628+262103978+266789104+272287426+279188437+286888420
3778+294491099+302178897+310947715+321606076+333929319+345778241+354301514
3768+359385341+363131691+366399468+369081289+371537891+373558732+373986649
3758+373036857+373039123+375965653+381973439+389388916+395630324+400464771
3748+406878230+417047279+428969520+437266736+441345861+446320530+455831317
3738+470494543+487956384+503119103+512138172+516404376+520316782+526953369
3728+536641787+547183111+555807000+562269757+567866325+572394564+574797232
3718+574756232+573012384+571735326+572813068+574319320+572290252+567540593
3708+564068550+563152681+563580807+563973721+563343629+561291307+558788894
3698+557713487+559108001+562146583+565135276+567536898+570009502+572343977
3688+573219928+572695403+572119210+572324279+573453863+575671718+579569552
3678+584975729+588860872+587889011+584615552+583019003+581716250+577590129
3668+572000743+568365294+567001217+566156782+564996797+564346205+564991986
3658+566029495+566086602+566002511+567674644+570993042+573688496+573173838
3648+568881347+563013191+558377920+556066560+554992584+553483682+551638938
3638+551216285+553079681+556110977+558944456+561706534+564615841+565761881
3628+563432183+559982488+558757272+560902960+565818744+571185281+573203507
3618+570555468+567028062+566701040+569989386+574903636+579719047+583345292
3608+584580130+583502562+582277626+582882093+585084643+587095652+588088222
3598+589188939+591429491+593937657+595449138+596962712+600555348+605418767
3588+607175201+603949191+599941049+598747873+599448495+600110208+600959139
3578+602650448+603879045+603127942+601308892+600623890+601664432+602837178
3568+602251816+599811426+597347468+596637154+598055829+600474673+601757519
3558+600509886+597612013+595295040+594949192+596294862+598219827+599711367
3548+600145699+599758224+599560825+599752088+598974209+596289423+592851931
3538+590435805+589474403+589387872+589901972+591076182+592220061+591889901
3528+589869409+588223005+588997328+591386051+592292926+589809932+584995880
3518+580310022+577562169+577010137+577487665+577425433+576098904+573998888
3508+572231750+571639485+571893886+571363609+568952120+565913469+564250225
3498+563950885+563432601+562214777+561279070+561160498+561309017+560861646
3488+559091615+555811846+552026832+549512356+549266985+550476233+551347373
3478+551236541+551281341+552502861+554258179+555087483+554267558+552046042
3468+549223301+547117358+546835276+547807067+547989369+546280245+543852231
3458+542263457+541239510+539529200+537220002+535596050+535172839+535315048
3448+535337047+534975092+534122117+532770659+531112994+529471122+528251032
3438+527812830+528094494+528460040+528085325+526541733+524155277+521909391
3428+520776634+520961691+521887148+523033642+524397789+525630466+525560947
3418+523724885+521401985+519911247+518927567+517645803+516471314+516253869
3408+516840451+517397329+517327985+516222980+513769097+510400146+507539090
3398+506581837+507660346+509583324+510931016+511080895+510293184+509236883
3388+508494635+508113714+507606865+506648706+505599517+504944114+504541124
3378+503876099+502815545+501684287+500819597+500429053+500550588+500943991
3368+501435325+502321944+503779736+505066346+505143534+503906151+502155853
3358+500686557+499867329+499788607+500485567+502015631+504142423+505995360
3348+506596724+505811593+504270896+502500133+500652460+498873190+497461628
3338+496747340+496868771+497493424+497979912+498091058+498078193+497798028
3328+496565282+494317269+492070303+490816534+490652221+491096036+491610764
3318+491806245+491656401+491420129+491127553+490528211+489606101+488611578
3308+487648642+486769031+486195976+485983481+485832731+485587674+485473111
3298+485694531+486350457+487616324+489285110+490407652+490253415+489337755
3288+488844433+489428679+490972061+492903093+494408543+494843398+494256467
3278+493335193+492814120+492860559+492876213+492172070+490897453+489941873
3268+489924302+490579844+491114514+490973909+490278796+489517233+488814346
3258+487833803+486537989+485499747+485124579+484994433+484303399+482728953
3248+480717979+479187637+478908727+479766444+480721954+480855517+480247145
3238+479523618+478894712+478144723+477354642+476925260+476771651+476222861
3228+475032265+473810571+473144011+472980291+473162245+473784737+474533574
3218+474418419+472833062+470416797+468294677+466836398+465621362+464335588
3208+463296475+463088792+463795619+464679380+464807399+463918618+462426939
3198+460893807+459776390+459207205+458811258+458153833+457261322+456312924
3188+455221376+453944981+452759370+451880003+451191967+450526977+449877640
3178+449168338+448088713+446486376+444759681+443433953+442494516+441604027
3168+440744357+440091569+439473226+438480551+437064492+435698775+434839210
3158+434413594+434090756+433802433+433598027+433287670+432689723+431892006
3148+430969582+429851712+428578977+427316492+426205141+425434444+425123494
3138+424953499+424348125+423162062+421828141+420768598+420024188+419438198
3128+418844818+418149426+417490781+417125339+416902978+416243287+414983452
3118+413833821+413573703+414040284+414280146+413659119+412556031+411827135
3108+411813573+412085196+411934655+410969871+409455321+408168990+407708091
3098+407951614+408319740+408371374+408089012+407749021+407459583+406822936
3088+405420718+403633325+402396988+402121460+402326493+402297068+401734612
3078+400868562+400207407+400048986+400117493+399886033+399201414+398259885
3068+397170882+395991128+394956791+394212137+393530621+392730011+392155248
3058+392292158+392991071+393475397+393154337+392152772+391024408+390234536
3048+389897927+389704084+389141558+388041399+386730837+385534070+384535643
3038+383886620+383790536+384051456+384081927+383470487+382292755+380934604
3028+379827124+379239461+379080482+378953125+378580188+378055524+377508163
3018+376789030+375814833+374911305+374359029+373885196+373070117+372016500
3008+371201666+370862337+370833853+370867358+370826950+370554107+369807675
2998+368557148+367161902+366019941+365189487+364517664+363941331+363489986
2988+363129111+362724692+362157076+361510145+361083832+361036173+361081775
2978+360778739+360051133+359232219+358664812+358391237+358137464+357553218
2968+356583902+355609670+355089573+355036720+354952001+354341189+353234405
2958+352161962+351677322+351848328+352107122+351720867+350544251+349163334
2948+348245581+347951785+347961686+347824846+347295929+346495458+345749304
2938+345272822+345048683+344903441+344628715+344149966+343592809+343071178
2928+342511511+341814516+341013696+340159430+339249662+338366738+337671904
2918+337225160+336992620+336963264+337069773+337140546+337064090+336771549
2908+336074518+334944934+333902962+333572663+333844042+333975723+333514580
2898+332698630+331980716+331523095+331221733+330970679+330731410+330431059
2888+329971241+329367402+328807560+328546605+328685502+328984284+329010397
2878+328553264+327754467+326860770+326032757+325343815+324822393+324512734
2868+324455522+324507016+324352082+323889126+323364602+322913709+322291113
2858+321342785+320414713+319928992+319793685+319607234+319283490+319084209
2848+319141106+319302037+319379400+319263722+318884440+318276556+317586464
2838+316885459+316116086+315316138+314726070+314523512+314545720+314425649
2828+313966111+313298366+312721790+312436674+312372176+312253012+311900156
2818+311427160+311061440+310849782+310650292+310354996+309979619+309522556
2808+308866908+307961742+307055738+306552097+306550075+306679942+306505449
2798+305982912+305419410+305078338+304939824+304801660+304507305+304040654
2788+303453793+302778867+302032644+301270279+300599117+300098196+299701656
2778+299238317+298641101+298036530+297550529+297116406+296580935+295934352
2768+295308932+294764117+294218848+293657438+293232902+292999141+292695234
2758+292045705+291187117+290530929+290238370+290049688+289650010+289050860
2748+288514464+288161399+287811507+287276889+286663026+286210722+285918808
2738+285531681+284900509+284157179+283479167+282899105+282452744+282273772
2728+282368060+282480827+282356555+281993171+281524062+280987161+280336290
2718+279604082+278929522+278391052+277900171+277362502+276876171+276622049
2708+276604705+276641242+276550526+276244719+275724779+275095838+274519157
2698+274077922+273743753+273482728+273305045+273186979+273008007+272613367
2688+271976075+271306779+270902935+270815131+270776397+270545757+270176480
2678+269862933+269696564+269642368+269582245+269361698+268940579+268460035
2668+268057062+267722371+267424234+267220490+267127055+266986868+266614855
2658+266067791+265631733+265468065+265409703+265228499+264938695+264676380
2648+264466291+264280102+264138921+264004992+263748081+263339810+262938197
2638+262699276+262606556+262521227+262331028+262050602+261805684+261687496
2628+261611075+261394397+260997421+260599556+260412373+260464860+260562880
2618+260439793+260017803+259518485+259215641+259125152+259078104+259008899
2608+258973025+258940043+258771512+258406507+257962047+257629377+257500555
2598+257518022+257593328+257712841+257875515+257990478+257936770+257730150
2588+257549626+257532543+257597773+257583793+257490584+257413466+257330002
2578+257171599+257006571+256954276+257026043+257163842+257296359+257323204
2568+257206271+257072603+257113045+257397028+257804131+258086684+258057747
2558+257778681+257482618+257307968+257222936+257173220+257141599+257065910
2548+256852003+256512256+256189453+255979190+255780449+255393950+254769471
2538+254096218+253614210+253396678+253377137+253489433+253642432+253657197
2528+253426713+253078686+252832792+252766411+252795122+252796377+252724453
2518+252642000+252607973+252566503+252451540+252334886+252330301+252396194
2508+252339000+252024459+251552840+251168241+250994899+250971035+251013394
2498+251066317+251043185+250922190+250814688+250790650+250781446+250749423
2488+250783973+250951424+251158200+251214871+251019600+250659196+250297189
2478+250010051+249795378+249639328+249489117+249265676+248950124+248560156
2468+248092773+247624832+247367277+247454401+247753044+247988792+247985986
2458+247737303+247326486+246854675+246434812+246203334+246236577+246418025
2448+246518764+246451355+246283172+246011967+245582498+245115551+244843231
2438+244808245+244844817+244834184+244793254+244743416+244648709+244486575
2428+244287730+244089861+243903810+243745163+243655162+243667923+243776070
2418+243918122+244004357+244012882+244039622+244173342+244369607+244540701
2408+244688261+244835386+244910291+244820011+244610167+244475296+244598923
2398+245001930+245571621+246259133+247252732+248989747+252066627+257139333
2388+264814022+275532628+289544687+306966522+327781102+351722854+378209691
2378+406461469+435669350+464898149+492817119+517928094+539337833+557067602
2368+571515928+582860826+590966849+595463014+595890094+592193564+584773868
2358+573657014+558087192+537277911+511825968+485669220+465182637+454953483
2348+456115421+467201177+484069498+500393144+511491241+516911259+518576385
2338+518644753+518572550+518827230+519242491+519573871+519614487+518863139
2328+516599578+512494375+506685731+499435926+491230889+482723654+474039311
2318+464696149+454620953+444599064+435333717+426565353+417433186+407387450
2308+396449028+384942956+373433990+362658591+353041504+344332687+335970869
2298+327724972+319783714+312354256+305421188+298873294+292685542+286948177
2288+281822896+277463102+273877543+270871297+268186912+265691995+263409101
2278+261419359+259764483+258397651+257216085+256154851+255215291+254388202
2268+253610915+252831537+252060038+251332048+250677534+250136624+249726905
2258+249379610+248990985+248539255+248065039+247560805+246980987+246350215
2248+245777735+245342584+244995254+244627651+244249815+243998134+243919621
2238+243879772+243750654+243545603+243317995+243097047+242969655+243050225
2228+243296484+243478647+243416851+243183073+242975372+242850630+242704725
2218+242488535+242291852+242206558+242233159+242332015+242491011+242739659
2208+243096436+243465138+243646760+243563785+243411517+243469949+243810951
2198+244261843+244605791+244772039+244861046+245003656+245205935+245370196
2188+245452230+245516501+245626845+245745277+245768775+245667008+245581261
2178+245736805+246196762+246711264+246887552+246568165+245998126+245548890
2168+245337197+245216255+245060031+244885329+244724171+244545826+244335127
2158+244140030+244000400+243890754+243771328+243657603+243616376+243713106
2148+243940400+244196247+244439579+244887717+245899549+247612717+249837040
2138+252328140+255035150+258042285+261360788+264883488+268572139+272580386
2128+277092396+282143346+287682128+293665386+299990676+306436280+312744695
2118+318753771+324385795+329430958+333446422+336050846+337198002+337019534
2108+335631540+333202271+329976994+326187203+322017189+317565789+312831192
2098+307810503+302519411+296925493+291065739+285198925+279673426+274698653
2088+270324633+266559962+263430787+260919553+258903158+257237613+255862553
2078+254740604+253794316+252971340+252248650+251573410+250935578+250442692
2068+250201104+250170407+250179558+250072509+249847412+249616475+249453260
2058+249382121+249430442+249538641+249565800+249505660+249506584+249629601
2048+249789381+249919022+250039284+250197478+250401571+250597958+250729778
2038+250801893+250862608+250974137+251177968+251421456+251598337+251703260
2028+251834400+252066923+252404334+252774029+253094409+253445138+253982161
2018+254570208+254821627+254622852+254281118+254112900+254188189+254403141
2008+254592765+254665089+254689198+254753591+254813853+254790668+254696990
1998+254610022+254672777+255089782+255889067+256705854+257034062+256716697
1988+256039905+255447222+255276233+255578972+256073723+256392395+256430379
1978+256385039+256471710+256696389+256926490+257141511+257522293+258191450
1968+258919666+259279006+259138104+258803535+258623394+258689792+258956952
1958+259392174+259910475+260355127+260654048+260903150+261256476+261781402
1948+262445276+263236264+264171135+265034204+265340743+264928288+264296540
1938+263976125+263957159+263967880+263960384+264121768+264558035+265094448
1928+265494509+265870811+266521717+267329596+267911367+268368483+269044507
1918+269628719+269471937+268720275+268181752+268308761+268901078+269475196
1908+269697487+269622234+269572553+269785048+270224540+270703515+271125889
1898+271587362+272149435+272634233+272954003+273415807+274194245+274813912
1888+274760344+274262124+273857043+273712567+273752765+273953214+274287522
1878+274675190+275058028+275465899+276164393+277641395+280002296+282264498
1868+282910697+281725818+280061843+279066048+278833925+278983421+279266427
1858+279620242+280023249+280437813+280835190+281300167+282037518+283250217
1848+285123497+287638600+289939571+290472393+288967623+287098178+286286550
1838+286526657+287062338+287536694+288488961+290522945+293046765+294529693
1828+294551343+294180219+293935301+293325012+292302511+291605568+291670886
1818+292192813+292718627+293299143+294341394+295852701+297148411+297596968
1808+297425508+297434189+298259936+300031780+302251169+303954785+304528677
1798+304484714+305034584+306973530+309910310+312113174+311992231+310297158
1788+309086306+309317104+310541308+312053382+313669385+315256661+316404165
1778+317180162+318552642+321491967+325690953+329100624+329814215+328431415
1768+326621012+325382897+325461550+327183434+329570797+331100512+331744549
1758+332428297+333228105+334135050+336181445+340122335+344723126+347532549
1748+347866404+347310537+347410839+348629013+350659336+352694575+353976514
1738+355103170+357795799+362399797+366047170+365799289+363223906+360808269
1728+359246548+358758282+359396393+360733765+362750108+366352994+371985123
1718+377792895+380189881+378303998+374907156+372355027+371505050+372678005
1708+375773659+379697012+382950564+385771492+389911942+395481909+399666949
1698+400738834+399788833+397340528+394282701+392802005+393861095+396790309
1688+401200430+407762026+415659250+419990439+417869714+413775389+412011529
1678+413492540+417197891+421067240+423839533+426557334+430195677+433156095
1668+433464987+432664237+433562501+436510716+439501012+440982790+442046447
1658+444916115+451120915+461051670+471904397+476568779+475319716+475708203
1648+479831151+484407223+485809790+485359316+486289097+489793528+495882511
1638+504320960+513661298+520295445+522618136+524208479+528556682+536222621
1628+545843786+555905560+566029600+576200287+585803812+594838605+604836054
1618+616938366+629207606+637869705+643056381+647636985+652548585+657008143
1608+660602592+663895958+667501076+671328415+674810115+677712310+680462290
1598+683596329+687313499+691620632+696442145+701496826+706341627+710728250
1588+714916568+719270976+723458109+726691858+729014897+731700798+736077240
1578+742192336+748273684+752286777+755290147+759886161+766655649+774251686
1568+781620411+789466770+798518297+808378941+819245404+833147102+850747213
1558+865123267+870491652+871741725+872441091+872217475+870517381+867849121
1548+865632138+865351276+866972578+868710325+868420747+864100644+855409468
1538+846769054+842169414+841005593+840668949+839159490+836880867+835316114
1528+834606986+833963750+833588407+834364195+835514628+835126525+833484444
1518+832318880+831629764+830639634+829836513+830444188+833197794+837971962
1508+842829733+843183251+837535747+831547764+829069442+829812039+832089128
1498+833548035+832133196+828611193+826135800+826398881+828221208+828834670
1488+826795979+823674630+821738648+821546549+821949922+821742832+821206558
1478+821489721+823086758+825683617+828279360+828894914+826624101+823701266
1468+822670834+823663404+824602981+823671772+822160639+822945351+827101734
1458+832209966+832868402+827614858+821322027+817520417+816461536+816697703
1448+816474297+815342481+814220288+813632416+813210913+812996083+813754717
1438+815478728+816498841+815564005+813961390+813103463+812499833+811126621
1428+809412442+808706382+809302063+810382141+811544567+813067135+814349632
1418+813684711+810816892+807453798+804962367+803660068+803240030+803033148
1408+802298779+800670783+798614451+797330769+797557035+798616682+799268494
1398+799319326+799676191+800623438+801235436+800993830+800716106+801104627
1388+801402363+800345992+798519413+798211566+800694072+805118487+809848726
1378+814070792+817982989+821915407+825641083+828551576+830277051+831025924
1368+831653053+833192286+835842347+838554744+839818763+839051133+837198406
1358+835854967+836013597+837462394+839175248+840300091+840675573+840543510
1348+840036312+839080210+837960945+837732448+839410857+842680446+845825363
1338+847274508+847146000+846917573+847832606+849880641+852165818+854082276
1328+855939676+858465413+861957502+866035929+870020155+873374254+875911077
1318+877890151+879931561+882418948+885049345+887400206+889699189+892626626
1308+896713351+902045686+907921478+912895484+916003236+917639600+918644651
1298+919318776+919720475+920028252+920225093+920102651+919679824+919131000
1288+918414550+917223815+915226542+912384452+909213388+906669522+905534987
1278+905739497+906351913+906380711+905631489+904830461+904991392+906467591
1268+908341725+909230401+909166461+909822178+912352935+915852067+918456526
1258+919456487+919740069+920651685+922782137+925496975+927378570+927479326
1248+926576286+926427069+927424032+928061968+927042135+924803117+922620997
1238+921468960+921754006+922876548+923362409+922347875+920176284+917286500
1228+914049892+911667515+911326408+912525790+913573374+913657535+913486076
1218+913821953+914341771+914407245+914265907+914641808+915579642+916589853
1208+917478529+918253271+918820155+919390107+920518506+922416905+924855204
1198+927708659+930781129+933279812+934622274+935547906+937289557+939878955
1188+942120344+943182502+943741925+945022400+946900438+947972149+947763943
1178+947795948+949561377+952541388+955230287+957205037+959280684+962365565
1168+966550187+970741782+973267031+973499781+972679368+972325362+972479738
1158+972380237+971878060+971424204+971641894+973246740+976687789+981359388
1148+985620361+988227958+989102550+988721280+987920948+987978822+989830922
1138+993076316+996095165+997649390+997768136+996787628+994795934+992799638
1128+992606004+994614573+997671703+1001391522+1006356324+1011882154+1015823915
1118+1017334560+1017858353+1018744518+1019745874+1020123797+1019820622
1110+1019278491+1019055433+1019861691+1022238909+1025940459+1029747298
1101+1032322751+1033461749+1033712279+1033384700+1032482845+1031343150
1093+1031008040+1032548668+1035973610+1040095965+1043463382+1045329706
1084+1046057243+1046399813+1046203322+1044311268+1039864749+1034144310
1075+1030200945+1030418425+1035308549+1043494899+1051671277+1055472189
1067+1053316635+1048550138+1045806084+1046940550+1051072388+1055952890
1058+1058797770+1058279904+1056267710+1056156773+1059329720+1063891638
1050+1066576632+1066268506+1065113471+1065331718+1066480129+1066637016
1041+1064974714+1062237284+1059678078+1058868125+1061074022+1065052111
1033+1066971080+1064325761+1058972855+1054463652+1053377159+1057113085
1024+1064518696+1071385315+1073741823+1071823900+1068487652+1065517124
1015+1063468671+1062582644+1062440958+1062742041+1064611434+1068663225
1007+1072568101+1072711879+1068074517+1061255731+1055888462+1053780811
998+1053963427+1053929261+1052513306+1050996873+1050351337+1049809903
990+1048531242+1046377710+1043400279+1040465033+1039457123+1041188176
981+1043952380+1045269601+1044345713+1042057119+1039478877+1036689362
973+1032689866+1027107976+1021322133+1017367611+1016433124+1018365620
964+1021835326+1025014619+1026385809+1025224986+1021776965+1017073012
955+1012115810+1007224431+1002500955+997963093+993340025+988831798+985236372
945+982750729+980924219+979835146+979706290+979623872+978406152+976483418
935+975573126+976205345+976660595+975130706+972147208+969878138+969582982
925+970639841+971491073+971016857+969376379+967840702+967642886+968993367
915+971225760+973531646+975227348+975614265+974333651+972086824+969997721
905+967872428+964682538+961121488+959344275+959751902+960810155+961944132
895+963640182+965020437+964431101+962180648+959920363+957993027+955703666
885+953382928+952229148+952517611+953382370+954059075+954187583+953440523
875+952023243+950999923+951213708+952459109+954159413+955739576+956057882
865+953975681+950300906+948000249+949266151+952880681+955307266+954323272
855+950810125+947332539+946168858+948021586+951396045+953888801+954804671
845+955251275+955408371+953755552+949872779+946055900+944769568+945955074
835+947654192+948553746+949287208+950872950+953135256+954904520+954680486
825+951782614+947411750+944148227+943928167+946413950+949097480+949522957
815+948090337+947851311+951407899+957940592+963225792+963936594+961488045
805+959471876+958940135+958633334+958050413+957771503+957377404+955782179
795+953781699+953842781+956873972+960483343+961722887+961075468+961271332
785+962995483+964804212+966174077+967519120+968053720+966491407+963825030
776+962729472+963944961+965458604+965538860+964570765+963474092+962145784
766+960741334+960545051+961943296+963710189+964680585+964936694+965211211
756+965624137+964861319+961615019+957312069+955282931+956677061+959064947
746+959760339+959425996+960397229+962673760+964029819+964032748+965535444
736+970034397+974165957+973895763+969913839+965976330+964337248+964895625
726+966430674+967482443+967402326+967043369+967891325+970060963+971496651
716+970285695+967497574+965556432+964172342+961006368+955906573+951905752
706+951895991+955212437+957587144+955792081+951878768+950050096+950911858
696+951226816+949060803+946689513+946846818+948492037+948258032+945057403
686+940941950+937428943+933325971+927135221+920089961+915491018+915360628
676+918519769+922313220+924541082+923353763+917234623+908513324+904752157
666+907516431+911469628+914455915+917859868+920985959+919589736+913109129
656+907454443+906575390+906683398+902680067+896821010+894571184+896010498
646+896923718+895934007+895352062+895726568+895115686+892886988+890140355
636+887651713+885908318+885043837+883886152+881176614+878062099+876819626
626+877726291+879475753+881281135+882918196+884228514+885188033+884976689
616+882768979+878537361+872679699+866074628+860669845+859132844+863302962
606+870977513+875100844+871539028+866228865+867247234
##END=
