##TITLE=<SNM>
##JCAMP-DX=4.24
##DATA TYPE=INFRARED SPECTRUM
##DATE=2/5/2025
##SAMPLING PROCEDURE=Instrument type and / or accessory
##ORIGIN=Admin
##XUNITS=1/CM
##YUNITS=ABSORBANCE
##RESOLUTION=4
##FIRSTX=4497.3318
##LASTX=599.83466
##DELTAX=-1.4281778
##MAXY=1.7201934
##MINY=0.2151282
##XFACTOR=1
##YFACTOR=1.6020549e-09
##NPOINTS=2730
##FIRSTY=0.23318537
##XYDATA=(X++(Y..Y))
4497+145553914+145297096+146029907+146860771+147390526+147461950+146878518
4487+145913194+145523117+146552025+148865188+151319303+152510276+151778563
4477+149670632+147450370+146186578+146201181+147099666+148190734+149004121
4467+149494754+149791679+149953680+150065183+150211595+150174427+149590967
4457+148682492+148232999+148451141+148547075+147967698+147261871+147042788
4447+146945525+146381672+145516625+144768765+144158238+143751093+143891338
4437+144466520+144726760+144239094+143383748+142724158+142435604+142407979
4427+142547173+142897040+143481170+143992843+143869638+142921103+141652371
4417+140775019+140624896+141095978+141808977+142248676+142024906+141166984
4407+140039185+139006920+138403397+138610164+139651136+140754891+140927476
4397+140083096+139082241+138580716+138382748+138066700+137753293+137893938
4387+138537642+139219082+139522480+139392318+138888784+138073397+137217791
4377+136743974+136797354+137069277+137133288+136905798+136773357+137252615
4367+138427282+139724578+140312261+139729555+138199048+136470135+135357990
4357+135246710+135926857+136895092+137720636+138156066+138179385+137985211
4347+137672921+137071454+136192585+135571157+135691683+136263600+136519906
4337+136168132+135637903+135352903+135161082+134740218+134282660+134311857
4327+134910496+135534203+135622975+135194344+134816935+135036213+135755295
4317+136305279+136267553+135958174+135914932+136222368+136605962+136958871
4307+137406486+137964488+138466078+138819322+139105718+139390077+139585264
4297+139475881+138876190+137910169+137035151+136632303+136745927+137286127
4287+138129809+138940797+139249925+138855020+137940240+136853218+135996784
4277+135771479+136277654+137143529+137922074+138523876+138963724+138952721
4267+138238355+137204118+136643055+136918894+137651686+138272612+138609457
4257+138795455+138907638+138957576+139019551+139161200+139441634+139947195
4247+140577748+141023502+141167365+141095057+140743264+140210533+140114656
4237+140740660+141296402+140978568+140206441+139877752+140101355+140458877
4227+140850582+141410249+142034914+142473832+142653375+142655830+142472084
4217+141956132+141178276+140685159+141009225+141898985+142498350+142369732
4207+141908259+141691688+141801285+141892195+141741291+141567674+141726707
4197+142181428+142504061+142354460+141742352+140999524+140645768+140953668
4187+141541388+141729190+141362999+140962207+141057675+141708644+142586071
4177+143237356+143414964+143388306+143702606+144421948+144908182+144593938
4167+143731244+143141562+143357482+144139645+144845621+145159242+145209348
4157+145084980+144760803+144491084+144654154+145181351+145654051+145825827
4147+145626808+144988498+144113518+143595092+143841725+144547720+145013956
4137+144889458+144419148+144073410+144091278+144376623+144731169+145057607
4127+145295413+145323363+145102857+144842282+144878650+145406116+146312005
4117+147208472+147719540+147797206+147639614+147346308+146885969+146335761
4107+145886202+145642546+145612605+145825883+146279190+146795756+147146516
4097+147347786+147623681+147991575+148154840+147893883+147311167+146731446
4087+146590672+147185526+148222563+148924260+148863728+148375020+147985408
4077+147838596+147776389+147625681+147327445+146965336+146650897+146342746
4067+145932206+145550872+145610028+146395233+147652422+148671005+148870973
4057+148319947+147600335+147255946+147478739+148151603+148927786+149360360
4047+149297009+149098343+149174930+149459670+149628265+149587944+149426492
4037+149167926+148905397+148916401+149358370+149979221+150295269+150067657
4027+149555985+149233537+149329526+149787382+150446257+150989647+151022248
4017+150549147+150060263+149926176+150060375+150158150+149986327+149618303
4007+149520891+150105458+151175840+152107735+152466513+152239590+151670426
3997+151108033+150856118+150931672+151038330+150954795+150898066+151316168
3987+152342257+153605901+154521399+154681650+154135805+153387898+153006555
3977+153209183+153846767+154622615+155236834+155501437+155446327+155276690
3967+155245317+155555812+156248944+157080832+157586505+157438652+156801570
3957+156200707+155988527+156120958+156557002+157458240+158566544+158934540
3947+158201152+157571214+158303838+159813250+160440007+159806181+159046918
3937+159107246+160208145+162324428+164907189+166502284+166080638+164665523
3927+164187586+165034189+165721051+165134568+164216383+164526227+166069068
3917+167175920+166334284+163906780+161606314+160672651+161195271+163031493
3907+166657820+172438844+179152620+184160838+185679756+183640562+178629832
3897+172239239+167403522+166464056+169069158+171981705+172417638+171913787
3887+173276648+175816139+176923661+177016097+178038643+178470538+175972122
3878+172914158+173060784+176470559+180824971+184674213+186923560+186367716
3868+184541149+184217222+185025615+184163703+180871161+177432925+176223424
3858+178752869+186261700+197973536+206107189+201858495+190735280+181624677
3848+177391795+177570602+180652154+185187755+190448317+195964441+200051535
3838+200163113+196492512+192270643+189276951+186799295+184377949+183019255
3828+183364630+185028368+188478399+194746978+201514124+203208334+199723479
3818+196438825+194486914+190986043+186072028+183084234+184140152+188818584
3808+194278063+197579515+199896557+203956640+207980113+207653267+203972825
3798+200801218+198195986+194733119+191433881+190222501+191348123+193908021
3788+197213566+200668117+203471913+205841917+209279223+214112875+218158783
3778+219719984+220362982+222749634+228243305+236753027+246657830+255522359
3768+262483213+268382569+273895065+279957472+288316551+299733295+312590826
3758+324594314+336049435+349786346+368273272+390464712+410041525+422473950
3748+432523723+445454102+458973809+465971832+466780634+469269210+478365452
3738+493920131+511095465+522835764+526442540+525276085+523537490+523301349
3728+525165139+528470182+531197428+531946851+531147574+529423302+527153046
3718+525707181+527130090+532607540+541490746+550884629+557214522+559754292
3708+560481652+561538203+564305483+568570343+572327799+574072310+574422299
3698+574677563+576234262+580749438+588869270+599175646+608359060+612126785
3688+608778101+601612432+595028391+592009382+594161847+601188034+611212432
3678+621294089+625832518+620752569+612239256+607882760+606177389+601137546
3668+593043907+587532304+586667992+588197606+589644885+591079924+593994163
3658+598341433+601969490+604118644+607788668+616344432+628545813+636327562
3648+633203969+623970179+616112421+612413302+612145350+613335877+614698775
3638+616324341+618670496+621773366+625852535+631870909+639885710+646334251
3628+647216235+645408438+646142049+650593493+657146281+663724295+667975427
3618+668888738+669043362+671246650+675096338+678221344+679032565+676933898
3608+672617807+669180426+669363698+672296876+674916786+675639607+675744451
3598+677411910+681168883+685151468+687455432+689302443+693558411+700030018
3588+704205251+702752614+698400955+695558111+695643906+697597845+699405716
3578+699415538+697996833+696978008+697241941+698826879+702251015+706708337
3568+708370364+705105168+701098102+700987901+703997572+706332863+705350499
3558+701394999+697614513+697098999+699373422+701111348+701215224+702314561
3548+705827617+709280401+709970556+708319021+705939977+703463604+701243351
3538+699744283+699145652+699905827+702931496+708011632+712869132+714533838
3528+711639950+705709528+700215820+697862894+698529908+700036938+700790416
3518+701055391+702051446+704397527+707562045+710548277+712168858+710588310
3508+704924723+697999660+694770181+698028680+705876579+712660263+713676186
3498+709243345+703249154+698751576+696134642+694739152+694462793+695300801
3488+696632149+697974286+699243278+699424988+697031136+692892216+689969382
3478+689747416+691172446+692822493+694150419+695273343+696725757+698789376
3468+700762661+701335769+700294323+698664292+697025705+695026971+692607969
3458+691177655+692625678+697160238+702585489+705763178+704873678+700762066
3448+696062241+692865056+691759022+692838864+696030021+700134043+703224375
3438+704148104+702760130+699643308+696459815+695380271+697009930+699350206
3428+699840272+698492107+697760878+698780000+699546054+698273564+696171103
3418+694948394+694326473+693536385+693107038+693899582+695736845+697767054
3408+699239260+699831640+699723894+699133226+697906871+695990881+693822641
3398+691868405+690414280+689868333+690384740+691370675+692231974+693268211
3388+695070352+697409885+699304593+699991994+699500217+698394332+697059859
3378+695715191+695392846+697509669+701580430+704258752+702593674+697988722
3368+694185912+692456841+691672706+691744736+693583859+696185911+697271333
3358+696756265+696794214+698766160+702133744+705467174+707032691+705611009
3348+702113356+699012011+697749791+698171845+699957245+702615253+704552077
3338+704434360+703283829+703239331+704570531+705420965+704258603+701369030
3328+698225421+695927930+694210691+692341282+690789829+690871085+692692796
3318+694994975+696977189+698526336+699104652+698478416+697822266+698226760
3308+699177053+699930531+700780073+701575816+701143642+699536083+698787069
3298+700471866+703963715+707413299+709500358+710205023+710413520+710685638
3288+710569633+709391719+707190887+704559964+702325425+701514949+702831117
3278+705892429+709194904+710995855+710656172+709287396+708527890+708617331
3268+708457796+707582434+706813181+706919290+708060445+710298408+712918913
3258+713739583+711235605+706795694+702954712+700543300+699092077+698605211
3248+699370148+701077640+703321108+705906269+707839819+707394325+704260910
3238+700517033+698602160+699081213+700448799+700532287+698286586+694801731
3228+692462497+692935151+695805749+698825688+699727764+698323642+696730519
3218+697085977+699159790+700575966+699430346+696248341+693009635+690980170
3208+690173266+690370825+691467483+692757459+693154586+692641751+692412642
3198+693104359+693958440+694045351+693351699+692526266+692177803+692444787
3188+693274089+694595094+695902259+696465842+696004350+694732009+693111428
3178+691649490+690547475+689683721+688943860+688101685+686704112+684919903
3168+683723758+683355874+682602694+680508343+677861273+676098644+675614233
3158+675701814+675689908+675713124+676178932+676789096+676865887+676801225
3148+677993203+680578958+682195223+680422027+676011807+671716327+668686119
3138+666317715+664774819+665035032+666645790+667710749+667221353+665834495
3128+664535516+663725039+663325233+663100440+662942765+662887031+662733523
3118+662037787+660762768+659568781+659109447+659393545+660095382+660973572
3108+661611268+661356562+660168528+658988530+658796998+659677346+660855409
3098+661405449+660978781+660013308+659209454+658758454+658206925+657019561
3088+655157445+653155288+651639924+650746182+649995085+648853409+647512611
3078+646781605+646990698+647536050+647813303+647960933+648327775+648661877
3068+648239822+646801547+644984077+643640525+643045764+642778855+642158497
3058+640954986+639821197+639639785+640319001+640821568+640388724+639014887
3048+637020693+635115419+634408596+635290655+636470132+635967267+633307176
3038+630135216+628315439+628059766+628268784+628042577+627225701+625977693
3028+624687270+623972709+624075135+624533167+624843681+624939968+624638085
3018+623314030+620836541+618233670+616582433+615844023+615530979+615736835
3008+616566063+617224035+616702903+615176563+613942581+613840862+614264517
2998+614064167+612998427+611630283+610140925+608279999+606309765+604956391
2988+604476296+604305339+603618867+602182526+600581367+599526788+599254186
2978+599794255+601238260+603248193+604781936+604757753+602931726+600125604
2968+597595730+595995985+594995762+594076015+593274691+592738937+592160137
2958+591267958+590316735+589541789+588683467+587503209+586323212+585614157
2948+585381476+585287905+585117506+584847248+584497408+584204827+584281320
2938+584806285+585033050+583667213+580342266+576533206+574227083+573864780
2928+574214917+574098428+573514457+572938447+572302649+571118521+569216633
2918+567057806+565389119+564682259+564763143+564887036+564311510+563021385
2908+561856679+561640257+562210351+562658040+562441283+561784241+561019489
2898+560218947+559510896+559019751+558431948+557198933+555154809+552693319
2888+550536612+549308211+548926003+548556295+547583381+546348990+545566194
2878+545357474+545149460+544357995+543074791+541953056+541336977+540854092
2868+540125801+539402534+539118845+539218071+539200622+538588337+537256059
2858+535522933+533957602+532943502+532335570+531639016+530631762+529613867
2848+528886135+528352613+527902394+527629123+527412626+526986032+526520931
2838+526355889+526141327+525089687+523138279+521143005+519828697+519106434
2828+518516957+517852585+517127271+516351172+515580915+514875803+514026671
2818+512686096+510943185+509391731+508478085+508039065+507560421+506817286
2808+506128284+505818477+505643911+505071138+503972136+502704483+501609648
2798+500752814+500055218+499374104+498478465+497196042+495649425+494227669
2788+493315399+493076059+493274027+493160477+491924560+489577847+487106721
2778+485577293+485257143+485514528+485388625+484398002+482858975+481332226
2768+480021601+478927882+478149663+477693751+477323969+476833346+476236799
2758+475577859+474767866+473776201+472803957+472034034+471317724+470371337
2748+469220434+468195805+467503529+466935779+466033220+464607409+463073888
2738+462025262+461522062+461138515+460582261+459863384+458993863+457911380
2728+456652433+455396760+454370532+453727553+453429800+453230418+452829124
2718+452100610+451215910+450460757+449875818+449181943+448121523+446787273
2708+445528586+444537888+443614160+442497969+441423559+440959463+441158994
2698+441321320+440828873+439812057+438758594+437870917+437065426+436276603
2688+435481121+434609777+433669343+432835725+432250526+431775342+431104794
2678+430130541+429045900+428094453+427333981+426641779+425855189+424913713
2668+423953152+423244729+422965318+423032734+423200678+423283236+423190670
2658+422775647+421876213+420596729+419323719+418375472+417797341+417452301
2648+417112953+416557927+415760696+414871642+413991667+413175684+412517823
2638+411919156+411040743+409860150+408918154+408621368+408644547+408359816
2628+407582936+406639005+405931773+405650614+405691912+405685252+405238828
2618+404317257+403286005+402500159+401968833+401461243+400818004+400130974
2608+399650544+399450493+399222239+398563523+397437472+396195640+395226967
2598+394678973+394407190+394138048+393726783+393225741+392755989+392441681
2588+392360611+392383789+392195606+391642291+390914485+390250783+389637717
2578+388972712+388362400+388001473+387821363+387513677+386887031+386018440
2568+385100218+384275157+383580426+382990092+382511151+382173849+381960738
2558+381859466+381858982+381786358+381400131+380758864+380204470+379916800
2548+379745248+379447235+378885028+378083481+377240153+376577529+376132445
2538+375777694+375447461+375243689+375266756+375393216+375342022+374985448
2528+374507734+374247373+374411038+374869852+375218203+375113173+374502674
2518+373503122+372312707+371312075+370889760+371042449+371408845+371706896
2508+371870896+371828370+371469639+370837524+370124971+369493340+369041037
2498+368884292+369045167+369259468+369144579+368633604+368024965+367571472
2488+367287783+367158793+367215047+367356687+367386005+367270222+367142572
2478+367017004+366734841+366235660+365654590+365083640+364474593+363862271
2468+363431919+363255306+363181194+363065783+362915661+362763976+362578954
2458+362328341+362047851+361825960+361733691+361756312+361798800+361757800
2448+361555888+361134056+360529473+359982074+359783994+359900744+359911199
2438+359519652+358967193+358697716+358757059+358785558+358546738+358218552
2428+358096370+358190611+358275066+358245563+358213715+358254827+358281986
2418+358215092+358083013+357902717+357642989+357380692+357295232+357408261
2408+357514184+357455177+357278750+357099198+357004102+357050013+357161591
2398+357148830+356969427+356806506+356789615+356808515+356661108+356260223
2388+355668438+354991491+354223801+353150284+351429510+348866189+345616545
2378+342034846+338350609+334661163+331161129+328090851+325463946+323084269
2368+320812897+318726434+317092385+316190496+316115974+316857137+318541041
2358+321413127+325539807+330788817+337173327+344586931+351931073+357360937
2348+359666687+359218997+357765356+356765729+355785076+353585249+350171605
2338+346674101+343795318+341155168+338174182+335095831+332740226+331469224
2328+330830189+330161316+329231932+328326396+327917028+328307831+329496460
2318+331192604+332904970+334199262+335019300+335707446+336657069+337983692
2308+339520933+341016318+342240404+343009397+343307856+343404775+343658217
2298+344155686+344682622+345059064+345351608+345702861+346091618+346364629
2288+346442053+346417832+346468580+346683216+346982903+347218933+347317861
2278+347284972+347139388+346924566+346712125+346547492+346445661+346427022
2268+346500762+346649732+346846547+347026694+347088343+347006417+346892309
2258+346874897+346960097+347047157+347066578+347068029+347153526+347354992
2248+347616879+347888997+348199548+348592211+349001616+349276004+349351753
2238+349326975+349382634+349694264+350286867+350914257+351312351+351580935
2228+352026541+352697870+353393197+354020884+354694743+355567166+356704936
2218+358050868+359447214+360745040+361930990+363155336+364605703+366337788
2208+368269850+370280563+372237813+374070276+375886854+377872230+380082921
2198+382477926+385014534+387588608+390024352+392210376+394174769+396014228
2188+397778234+399456557+401076617+402664606+404096110+405226364+406160659
2178+407131452+408173642+409113183+409759175+410015556+409904499+409519165
2168+408971506+408347613+407590117+406509308+405031186+403252298+401236189
2158+399004850+396640911+394205947+391660708+388862064+385648249+382127863
2148+378634600+375243093+372088546+370205557+370813638+373740899+377706668
2138+381905823+386239327+390521338+394508351+398279424+402036881+405861344
2128+409768253+413813603+418120691+422694168+427247218+431509883+435614799
2118+439964189+444863396+450234364+455544874+460288415+464514731+468559411
2108+472597989+476821663+481562005+486991050+493130676+500226511+508669022
2098+518273635+527747807+535317226+540177777+543009496+544927345+546241988
2088+546170740+543575981+537938624+529452918+518579126+506046173+492795718
2078+479550287+466817765+455073039+444535135+435229912+427340157+420971868
2068+415859662+411690381+408236667+405150540+402216730+399540938+397164275
2058+395030896+393276526+391930594+390692482+389420178+388329250+387593184
2048+387175668+386908982+386564202+386076740+385607398+385306334+385354552
2038+386130465+387997083+391164392+395880847+402454136+411149233+422147587
2028+435140210+448882032+461701689+472529643+481145605+487704272+492335044
2018+495092874+496170743+495924743+494531970+491849146+487656315+481891158
2008+474799081+466909326+458675648+450276629+441907635+433900126+426370591
1998+419183344+412492821+406873807+402535355+398768858+394701706+390366453
1988+386447713+383340155+380971454+379126601+377562312+376084524+374691788
1978+373489914+372495756+371597996+370636356+369623372+368929236+368915098
1968+369292172+369272788+368529281+367527682+366770558+366258801+365827780
1958+365505770+365310108+365060945+364624269+364132305+363851444+363935639
1948+364385970+365253482+366621328+368040220+368384627+367087508+365078543
1938+363660024+363154778+363090897+363049413+362988248+363013324+363097705
1928+363231755+363775620+365021173+366404348+367157751+367608789+368367848
1918+368685170+367415806+365187219+363733950+363783582+364672152+365294482
1908+365061950+364240089+363460046+362972361+362577206+362170628+362055925
1898+362612179+363695889+364646815+365242134+366103544+367424103+368097367
1888+367207160+365522177+364307169+363833325+363734694+363794743+363973923
1878+364215682+364432886+364672859+365506997+367935673+372175643+376383802
1868+377581882+375035080+371117120+368273496+367160765+367178065+367485975
1858+367567008+367391660+367225725+367256531+367578653+368411452+370086092
1848+372957806+377010597+380720952+381194164+377825650+373730036+371599708
1838+371374691+371592825+371706152+372921159+376441284+381108220+383889451
1828+383780366+382665105+381506352+379528974+376908134+375114699+374803180
1818+375281154+375785693+376471234+377979976+380259162+382145275+382517252
1808+381649220+380870665+381394848+383698143+387187797+390206657+391246689
1798+390695756+390708071+393159479+397644407+400770121+399299031+394919095
1788+391834902+391742224+393502845+395553219+397378800+398681277+399018802
1778+399124948+401030966+406173681+413493639+418966996+419204885+415620284
1768+411335147+408031593+407042941+409170702+412866584+415249684+415938425
1758+416576716+417449473+418413495+421036419+426744131+433859982+438332372
1748+438512259+436641623+435403287+435983352+438194527+440683624+442024906
1738+443267147+447525869+455490703+461993340+461505208+456824693+452534943
1728+449914251+449405732+451197642+454504321+459096586+466614774+478380297
1718+491563075+498847987+497090975+491382259+487120003+486646977+490616280
1708+498506034+508020983+516099033+522844582+531665618+543466375+553229109
1698+557139926+557321896+554992483+551188930+549664338+552770631+559582590
1688+568845884+581545591+597320785+608337109+608033701+603041146+601160539
1678+604748824+612958654+622542619+630324888+637185661+645165042+651969933
1668+653703022+652690373+654365050+659950208+665898860+668927803+670745497
1658+675443238+685686105+701568896+716877166+719495141+713754168+713377801
1648+719371769+723420281+719000462+711064535+706438302+706607288+711011332
1638+718722391+725983863+725469465+716182323+706393805+701363449+700541439
1628+701230181+701880824+702572393+702278621+699359358+695792280+695527826
1618+698776950+700557438+696747187+690442035+686028541+684272459+683886047
1608+683541751+682776665+681765653+680692062+679543317+678314208+677252746
1598+676798323+677107125+677747128+678065604+677714611+676735298+675483196
1588+674484685+674030262+673940375+673866708+673961954+675425752+679918716
1578+687444196+693905460+693829934+689562506+688007109+690939170+694399395
1568+694284655+691909629+690774426+692984857+700491510+715123391+732751548
1558+738564922+729810186+719468577+712789141+709347594+708348115+709205470
1548+712204947+718650585+728980661+741694022+754657178+764287500+764048569
1538+755406341+748706368+748126861+750369437+750700563+749791716+751956756
1528+758369207+766421363+774108610+782504168+791543301+797124589+797067889
1518+794375875+791124520+787380048+784681635+785863418+792807977+805344391
1508+819092501+822771045+811328983+797625817+791000180+791430867+796159414
1498+801320955+802914599+800829029+799502666+802406303+808667627+813402648
1488+812159401+806397370+800978445+798800382+799694496+802069596+805037300
1478+809041910+814692475+821559349+827355311+828342066+823884446+818794041
1468+817470804+819910344+822439176+822014889+821072409+824532038+834100600
1458+845435809+848659632+841118229+831662027+826152321+824937723+826147484
1448+826924179+825436792+822739793+821056559+821468643+824336786+829942183
1438+836895895+840752056+838573101+833994044+831475927+831362824+831881909
1428+832461863+834099483+837000962+839978339+842555388+845474353+847762617
1418+846045229+839958471+833562614+829980430+829290871+829781234+830055287
1408+830285289+831053128+831724457+831452265+831156558+832450776+835431873
1398+838831082+841385883+842027745+840135270+837025592+835335958+836240266
1388+838093081+837924839+835434403+834066966+836703470+842481127+848417650
1378+853091581+857309897+861459830+864459233+865974225+867390773+869545768
1368+871731494+873437126+875093349+876454014+876012538+873080775+869203704
1358+866564745+866011058+866658725+866875259+865778749+863762604+861721978
1348+860255501+859630678+860069326+861712528+864172381+866233917+866528953
1338+865008231+863191878+862415258+862548750+862738719+862731873+862898701
1328+863382144+864084131+865278936+867342555+869911941+872010533+873092160
1318+873559382+874230264+875561910+877360405+879068418+880324016+881182711
1308+881748228+881899653+881706335+881788484+882733866+884350057+885915276
1298+886823602+886654616+885208528+882868474+880392920+878073628+875461084
1288+872110019+868363463+865164270+863042685+861403725+859143440+856051545
1278+853049018+850945813+849671463+848799300+848086897+847358941+846494443
1268+845718196+845565431+846426432+848115768+849806369+850607172+850457012
1258+850149995+850231623+850370845+850175295+850103489+851035998+853229984
1248+856132355+859051543+861627402+863729789+865350146+866700618+868124011
1238+869718920+871206232+872429909+873902190+876435189+880099149+883873162
1228+886610119+888190295+889392764+890883573+892699406+894461069+895807299
1218+896773069+897796880+899274965+901301602+903862356+906875971+909939961
1208+912525493+914645888+916923957+919765238+922809286+925578017+928331047
1198+931465280+934415497+936438117+938053637+940039646+941631281+941792528
1188+941677416+943495556+947146792+949990007+950294196+949345316+949415262
1178+951055041+953384379+955892078+958601727+961205639+963366066+965309289
1168+967354826+969668018+972638623+976362930+979974356+982666296+984764143
1158+986830218+988562786+989239473+988786687+988060517+988024577+988780659
1148+989834904+991417758+994211863+997533015+999859972+1001167806+1002422884
1138+1003583014+1004268332+1004987060+1006134466+1007197863+1008083866
1130+1009532856+1011583900+1013307092+1014039438+1014035420+1014044126
1121+1014336186+1014296228+1013922316+1015432026+1020821485+1027726532
1113+1031083847+1030013530+1028668044+1029966503+1032907047+1035489454
1104+1037004595+1037626442+1037729723+1037390189+1036186901+1034129905
1095+1032220464+1031250005+1031175149+1032307449+1035294425+1038918724
1087+1040063898+1037480895+1034338253+1035714768+1043209963+1052325143
1078+1056226843+1053258991+1048535057+1047203411+1049506483+1052493459
1070+1053888204+1053736407+1054158536+1057751658+1064569943+1071063724
1061+1073741823+1072943029+1070720321+1067407503+1062788785+1058416439
1053+1056757016+1058718842+1063069758+1067803514+1071358686+1073028006
1044+1073140067+1072733564+1072123177+1070472758+1067695619+1065633786
1035+1066250572+1069050481+1071170280+1070134861+1065812594+1060479240
1027+1057795188+1060101608+1065845483+1070413751+1070666001+1067974434
1018+1065478566+1064002192+1062033893+1058852111+1056319261+1056633421
1010+1058975334+1060003610+1058090001+1055544799+1055669660+1058973177
1001+1062637658+1063409664+1061119168+1057999519+1055193657+1052326333
993+1049506855+1047006596+1043847212+1039343607+1035190920+1033852057
984+1035331184+1036920884+1036371662+1034326869+1032602783+1031329624
975+1029533287+1027420036+1025806971+1024098958+1021222109+1017758238
967+1014871419+1012006997+1007522515+1001108055+994170342+988144005+983359204
957+979320067+975469040+971813116+969107039+968281383+969449028+971288673
947+971621807+969404903+966146851+964303858+964364651+964642424+963786186
937+962126093+960556186+959424258+958627473+958129296+958238977+959294337
927+961076686+962738192+963208390+961935826+959851447+958937838+959897953
917+961023408+960429094+958443233+956528286+955066869+953548156+952139495
907+951533052+951227598+949719674+947018062+945041428+944833377+945209670
897+944763655+943750113+943310348+943884870+945079601+946594296+948362655
887+949915224+950395245+949481562+947624505+945198359+942353433+939530383
877+937321664+936083552+935986149+937165179+939501586+942213765+944151110
867+944770054+944078634+941899084+938842311+937151934+938047387+939147096
857+937261391+933242792+931062051+932826764+936880634+940037935+940707553
847+939851761+939047907+938232296+936133332+932548619+929505389+929622660
837+933018520+936910026+938929743+939506051+940343910+942017619+943770204
827+944553520+943703383+941505379+939325085+938652491+939632102+940960250
817+941621683+942237278+944117030+947531492+951322322+953454696+952380510
807+948689093+944895659+943240105+944035625+945944173+947558280+948582835
797+949495774+950566314+951458642+952039637+953249919+956141278+960157645
787+963220817+963590636+961216205+957467194+954243594+952896694+952941712
777+952749957+951757250+950416452+948736641+946467649+943837099+941516690
767+940728760+942729130+946899378+950558203+951832032+951139124+949523157
757+947305509+944762688+942778836+942456119+944380591+948146047+952553291
747+956222087+957992605+957049232+953753528+950778309+951677482+956998484
737+962891700+965277665+964223123+961916405+959164715+956514445+955476571
727+956371354+957339432+956885752+955983528+956757990+959663710+962477459
717+962402974+959167394+955388246+954128704+956657387+961595995+965190456
707+963573447+955894757+945079601+935470560+929828032+928168311+928567374
697+929023062+928907875+928290642+926488351+922509264+916800436+911999190
687+911269970+915073077+919844931+920911304+916905131+910655862+905520588
677+901879174+898499387+895641066+893673139+890052932+882463757+876566895
667+881603724+892561673+898419842+897757963+894613014+890488529+884866910
657+879765493+877754780+878079804+879048104+881234798+884833202+886858575
647+885078384+882364866+882981876+886528714+888632292+886672847+881833502
637+876440397+871872278+868131676+864266510+860051765+856560735+854465342
627+853180575+851173880+846308715+837987939+829521319+825795375+828454425
617+834533221+840257898+844669086+848989716+853349933+854947074+850871774
607+842667301+835454271+832118385+831342286+831133342+831670212
##END=
