##TITLE=<SNM>
##JCAMP-DX=4.24
##DATA TYPE=INFRARED SPECTRUM
##DATE=2/5/2025
##SAMPLING PROCEDURE=Instrument type and / or accessory
##ORIGIN=Admin
##XUNITS=1/CM
##YUNITS=ABSORBANCE
##RESOLUTION=4
##FIRSTX=4497.3318
##LASTX=599.83466
##DELTAX=-1.4281778
##MAXY=1.7951875
##MINY=0.22715607
##XFACTOR=1
##YFACTOR=1.6718986e-09
##NPOINTS=2730
##FIRSTY=0.24792717
##XYDATA=(X++(Y..Y))
4497+148290794+147984678+147696530+147106151+146465951+146102811+145965600
4487+145921205+146155726+146963797+148131640+148839309+148452961+147229824
4477+146046821+145672514+146309809+147464059+148284029+148285812+147635950
4467+146743831+145922239+145415016+145419954+146030787+147127836+148185160
4457+148515127+148049803+147506341+147481724+147843215+148160098+148195098
4447+147848358+147141285+146357296+145747265+145146271+144406141+143994873
4437+144457086+145464268+146135610+146136233+145812889+145477815+145187394
4427+144969416+144726990+144218912+143498987+143047950+143184618+143601020
4417+143766627+143647330+143678240+144081995+144616223+144951831+144851269
4407+144056433+142581262+141101840+140492549+140928407+141752878+142148434
4397+141771479+140932962+140304348+140325159+140888193+141612976+142195591
4387+142416457+142194147+141775383+141430853+140939780+139933454+138702688
4377+138056444+138381563+139239635+139879942+140039453+140173990+140705474
4367+141212982+140959843+140070273+139326765+138897288+138221169+137138470
4357+136230594+136023525+136530596+137479061+138464905+139076478+139240481
4347+139188244+138959160+138442321+137897691+137703679+137714205+137589008
4337+137473989+137677030+137987487+137879955+137196046+136343153+135923016
4327+136189471+136828067+137360388+137609338+137575648+137197071+136595525
4317+136299347+136758173+137664044+138156748+137796327+136947551+136188481
4307+135867133+136236637+137322874+138552544+139141871+138949089+138451554
4297+137963627+137439898+136986794+137018986+137736808+138751467+139465839
4287+139692000+139678238+139571535+139188458+138502633+137978975+138064323
4277+138609719+139089464+139166969+138851307+138411875+138203798+138286099
4267+138414379+138584060+139028697+139515956+139415679+138674354+137953565
4257+137730230+137981248+138615521+139523692+140391603+141045075+141682450
4247+142312374+142451128+141876061+141102589+140651748+140473672+140416060
4237+140543530+140798291+141011287+141247358+141554045+141566888+140945876
4227+140057350+139735342+140341478+141387858+142229165+142763180+143070000
4217+142863341+142035100+141254346+141235540+141759830+142017658+141623074
4207+140959201+140787863+141602806+143118753+144386007+144608603+143886432
4197+143034064+142690283+142808091+142976693+142943858+142748884+142598954
4187+142676815+142896612+142914865+142512001+141859680+141363607+141387038
4177+142068139+143185241+144251639+144935004+145381148+145957943+146639169
4167+146913886+146486851+145752773+145292796+145234320+145401986+145713753
4157+146045190+146056295+145606827+145088178+144956564+145164819+145403341
4147+145580517+145655669+145379544+144688425+144028402+143846458+144031878
4137+144207610+144303360+144474930+144690074+144850565+145170852+145904182
4127+146792513+147289111+147153317+146460425+145464402+144736723+144822713
4117+145553217+146246760+146544570+146538286+146317589+145899993+145395720
4107+144926671+144582854+144584369+145191646+146269185+147160109+147278104
4097+146713787+146006313+145483591+145101333+144730395+144353913+144146202
4087+144429439+145352725+146604918+147587598+147863928+147408667+146491396
4077+145437271+144568139+144212815+144473370+144945280+144946368+144237744
4067+143398692+143231454+143835415+144556035+144841340+144724094+144405009
4057+143912787+143354218+143074002+143341339+144013491+144649458+145022090
4047+145376808+145948924+146441031+146409221+145960305+145560998+145366781
4037+145176833+144890619+144672721+144761937+145295889+146200298+147141615
4027+147750229+148003127+148204385+148472916+148541865+148232407+147787778
4017+147551671+147542812+147507901+147318648+147200189+147484567+148172754
4007+148876351+149210578+149151602+149020220+149117511+149311995+149166674
3997+148604495+148069456+147848964+147755692+147685371+147885809+148445724
3987+149055202+149446444+149652256+149716125+149514323+149087965+148880611
3977+149310453+150217715+151022177+151356011+151297544+151069200+150771587
3967+150486398+150511050+151231269+152553988+153665118+153770360+153007930
3957+152237248+152083040+152545467+153451053+154814645+156402589+157377248
3947+157187585+156499060+156269272+156379326+156094084+155357644+154683290
3937+154394517+154783148+156224851+158379055+159871561+159731721+158723924
3927+158266844+158649520+159047883+159078739+159487833+160916417+162731813
3917+163420926+162076764+159419526+157098672+156204958+156745283+158427719
3907+161478043+166076185+171195811+174901488+176078947+174761398+171294047
3897+166903464+163896224+163922178+166402926+168635009+168652014+168117305
3887+169431271+171812750+172809405+172663896+173084951+173027624+170793295
3878+168238268+168267787+171113939+175228923+179232641+181482835+180616572
3868+178408197+177819939+178740481+178505042+175930461+172868800+171779131
3858+174209005+180824114+190066495+195216799+190638656+181572372+174314746
3848+170714471+170716503+173457128+177611221+182302056+187220522+191193010
3838+192011500+189354227+185594610+182578689+180498692+179225136+178892264
3828+179228808+179879704+181808024+186411265+192230289+194845192+193351028
3818+191073116+188704828+184685495+179922913+177128526+177901954+182152198
3808+187776283+191862087+194486188+197753947+200906571+201177999+199442301
3798+198447142+198118512+197345263+196668787+197154620+198927965+201923922
3788+206442278+212232693+218092359+223426389+229426431+237360551+246510722
3778+255324651+263996726+274059381+286564620+301244134+315730688+326448445
3768+332247559+334696774+335308400+335535211+336926522+339414561+341397712
3758+342645385+345612001+353019326+365624369+381058594+393951126+401762197
3748+408547128+418219388+429704994+438268334+443040203+448571044+458414927
3738+473403196+491665641+508233029+518549251+523952925+529824303+539247470
3728+550956750+561108336+567047807+570132177+572250231+572283244+569303829
3718+565414426+563424644+564481871+567312051+567717187+562275509+553750245
3708+547064637+544219590+544936244+547632876+549805868+550162163+550000379
3698+550833504+552789525+555993255+561666307+570642734+580276491+584088104
3688+579234772+571175072+565604481+563707676+564323973+566391617+570329576
3678+577040069+584342330+587302565+586221559+585629719+584903831+579506432
3668+570290360+562369770+557722715+555137100+553225571+552189093+553040971
3658+555482877+557605281+558752704+561004199+566265484+573357654+577631232
3648+575505655+569020904+562179038+557188344+554385793+553037334+552493801
3638+552849276+554229927+556333222+559320694+564000120+569644260+571868268
3628+567163779+559978738+556859286+560156671+568733558+578745927+584929179
3618+585397774+583534053+582609698+582942534+583897692+585377382+587012830
3608+588195334+589426572+591772542+595343548+599166819+601720990+602315218
3598+602631513+604951030+608567597+610809752+612084627+615636381+621971256
3588+626980061+626971362+623163207+618592409+614975414+613198075+613702820
3578+616036598+618633906+619391986+617574505+615196449+615355880+619087671
3568+624088418+626788330+625573277+621288969+616051000+612247765+611125547
3558+611593001+611572538+610665722+609991636+609672346+608482392+606181912
3548+604081719+603360074+603999936+605034025+605192458+603556724+600465437
3538+597752620+597202562+598707279+600565331+601361058+600931251+599701154
3528+597930268+595758132+593318578+590675993+588136510+586449653+586286016
3518+587278429+587722104+586153002+583415764+581977822+582842355+584126393
3508+583642896+581909229+580963661+581199813+581056817+579712815+578270166
3498+577742034+577590376+576857893+575382624+573324713+570823412+568559867
3488+567597899+567998829+568431096+567885923+566983136+566761815+566796789
3478+565751149+563528745+561375325+559959201+558894345+557910131+556926809
3468+555465515+553419583+551782566+551636612+553031096+555086903+556533829
3458+556080172+553225072+549171746+546161244+545442380+546249480+546888094
3448+546474080+545408939+544359056+543347712+542092766+540873150+540440669
3438+540803559+540977072+540313788+539053030+537485033+535610903+533759767
3428+532600721+532277796+532192804+531811197+531288555+530991940+530716751
3418+529993502+528958664+528234024+527876339+527047527+525189261+523086609
3408+522096263+522480615+523146252+523025432+522016619+520577072+519210681
3398+518409357+518335987+518447218+518002331+516943321+515779784+514899279
3388+514437992+514416031+514561879+514402698+513991786+513965903+514578991
3378+515473186+516391589+517191594+517394733+516605173+515032684+513159267
3368+511384245+510031188+509154533+508451391+507758195+507376339+507695236
3358+508756740+510140850+511125563+511220287+510614329+509887586+509343696
3348+508914816+508682765+508967045+509689724+510161706+509762131+508532354
3338+507018154+505841176+505429979+505814474+506586600+507178227+507235054
3328+506807244+506236544+505787593+505229942+503928721+501742752+499626374
3318+498696991+498992679+499794681+500588448+501079717+500913477+500042704
3308+498957920+498223904+498119554+498745833+499886482+500657967+500149087
3298+498679023+497619871+497626823+497887217+497567857+497055233+497118798
3288+497753776+498425046+498853249+499167725+499425374+499333537+498734959
3278+498103047+498055560+498484726+498679023+498200196+497294949+496578723
3268+496460255+496784001+497107176+497169315+496842183+496028345+494959033
3258+494167155+493838775+493630752+493170286+492364647+491414730+490730946
3248+490657363+491097901+491502787+491386922+490846918+490382601+490189801
3238+489901208+489094821+487775631+486314516+485197360+484809479+485089231
3228+485359251+484817001+483292427+481391273+479860567+478894856+478145511
3218+477409926+477077624+477535275+478188684+477705151+475549022+472772924
3208+470922608+470634585+471489600+472490712+472476879+470838936+468217883
3198+466034553+465130589+465179360+465319717+464987237+464217321+463385051
3188+462528575+461098262+458909690+456986040+456430921+456760085+456446678
3178+454942105+453067261+451625789+450700221+450113016+449817613+449766953
3168+449628485+448865306+447384369+445870704+444979468+444428841+443432933
3158+441824116+440220612+439167913+438533220+437825622+436861871+435887212
3148+435112234+434422567+433594719+432604123+431681586+431122972+430962971
3138+430909958+430678620+430148919+429204813+427793003+426159658+424739541
3128+423799071+423281670+422897104+422313963+421466791+420707499+420423076
3118+420462007+420187388+419243959+418031936+417203267+416933497+416883657
3108+416647791+416068643+415252559+414371697+413468518+412532361+411702302
3098+411186149+410953527+410681475+410106391+409351697+408776649+408527913
3088+408453973+408454971+408533296+408445417+407816678+406713390+405588534
3078+404631557+403665668+402623558+401680806+401027076+400802868+400991782
3068+401171213+400768999+399756871+398698753+398008909+397569048+397146799
3058+396747331+396387329+395907147+395229852+394503608+393782712+392871761
3048+391708687+390602511+389807925+389127136+388263850+387346588+386710363
3038+386328649+385894457+385379552+385045859+384905466+384581186+383777080
3028+382613329+381449364+380540766+379860689+379175836+378299003+377297071
3018+376480737+376155815+376276386+376349257+375836954+374691741+373415796
3008+372598714+372366199+372218568+371538956+370314883+369119474+368382214
2998+368011445+367735257+367449765+367142205+366744341+366185514+365487113
2988+364765468+364163040+363727457+363343712+362869484+362363812+362070298
2978+362059959+361947695+361182128+359712670+358151019+357120959+356658674
2968+356368048+355950754+355448362+355094599+354980409+354824187+354197623
2958+353035083+351734575+350755388+350298986+350270430+350320733+350018663
2948+349158408+347918969+346744344+346050507+345903126+345938171+345729899
2938+345218451+344627146+344061830+343442824+342774441+342165239+341555859
2928+340750648+339809216+339101118+338834022+338780831+338611311+338298795
2918+338066458+338033802+338018187+337698720+336969267+336054858+335209077
2908+334434989+333645857+332910487+332290696+331659034+330975607+330463411
2898+330220521+329965047+329415204+328649138+327953910+327520895+327304280
2888+327068450+326634685+326081384+325625053+325405621+325416709+325480025
2878+325308544+324744048+323887643+322954446+322115224+321488090+321142348
2868+321033185+320952578+320620098+319965084+319299839+319010889+319051780
2858+318956236+318434307+317750452+317332981+317192267+316977292+316480247
2848+315843273+315342877+315121486+315057528+314873498+314463370+314007218
2838+313645397+313241579+312636798+311963531+311500498+311284988+311059889
2828+310603308+309939738+309213245+308549497+308064716+307791131+307555693
2818+307110592+306406630+305625662+304976566+304548827+304316562+304187470
2808+304023048+303688429+303185217+302698476+302359151+301981323+301234651
2798+300118636+299068147+298484293+298306128+298149692+297779814+297324962
2788+297043623+296961038+296777703+296150016+295052593+293826489+292873487
2778+292333270+292008918+291568166+290884596+290203576+289871363+289875142
2768+289804464+289353552+288675686+288086948+287611918+287020238+286189858
2758+285269709+284534944+284133337+283927952+283617915+283066146+282425642
2748+281893197+281472712+281048521+280540585+279898887+279089345+278205898
2738+277498817+277141167+276988439+276697902+276118147+275441280+274893397
2728+274427369+273879914+273297629+272886432+272706199+272595841+272365127
2718+271960561+271465816+270973709+270473491+269908247+269293715+268698417
2708+268170873+267730228+267350849+266991791+266696691+266510933+266270378
2698+265715419+264847338+263959524+263318949+262943867+262663972+262348943
2688+262059707+261918066+261908280+261920366+261845784+261545711+260943871
2678+260210282+259647070+259396890+259375624+259387870+259250133+258917653
2668+258487900+258040089+257593918+257215894+256946712+256640454+256110771
2658+255448021+254984275+254879425+254896894+254714504+254338138+254016514
2648+253824284+253571056+253116169+252555220+252068408+251745125+251573859
2638+251456745+251209400+250719717+250152797+249812278+249751172+249727571
2628+249563399+249298638+248982664+248607082+248272499+248156829+248265582
2618+248368114+248237293+247910928+247658412+247634990+247660534+247499071
2608+247244434+247158961+247209942+247082152+246662594+246225372+246053624
2598+246098633+246123999+246022768+245868489+245773765+245800645+245914318
2588+245969969+245851876+245624334+245429056+245296881+245166470+245008733
2578+244846878+244697821+244525699+244268264+243962896+243792378+243890828
2568+244174502+244482757+244776806+245074366+245330820+245527560+245738363
2558+245977135+246114444+246062252+245919238+245815583+245697169+245364528
2548+244714167+243901220+243234763+242887417+242751070+242623867+242458679
2538+242329480+242230335+242061992+241814040+241614021+241549956+241561365
2528+241553379+241511204+241462362+241417816+241357352+241222646+240976298
2518+240680235+240426134+240218325+240039072+239969820+240115757+240430198
2508+240684228+240651198+240358682+240086934+240006915+239956006+239741227
2498+239477803+239382401+239409692+239365485+239237908+239140100+239023236
2488+238717138+238210111+237672924+237249178+236983489+236880334+236891047
2478+236912544+236876537+236755538+236479226+236001967+235470805+235141302
2468+235064724+235015579+234794526+234448035+234126357+233891364+233730989
2458+233625765+233545729+233459080+233364641+233289203+233259203+233248829
2448+233151645+232875136+232480214+232149267+231994560+231945397+231834327
2438+231582846+231285589+231097192+231060436+231070828+230991273+230803250
2428+230642982+230634122+230708490+230708009+230615245+230528542+230483266
2418+230477223+230576778+230806209+231023359+231077691+231002396+230911504
2408+230831896+230772109+230798117+230909632+231004339+231066710+231214768
2398+231496998+231821974+232134739+232528289+233172999+234247552+235954320
2388+238532716+242208606+247143382+253456938+261259042+270579481+281282925
2378+293125058+305872794+319285151+332979863+346391829+358863288+369805503
2368+378901431+386149183+391543552+394708280+395093131+392662847+387982243
2358+381389221+372730729+362136359+350606724+340101909+332930023+330549971
2348+333236300+340452678+350680165+361143803+369009633+373074902+373856156
2338+372634757+370637809+368693802+367063987+365374457+363042640+359941977
2328+356417852+352695937+348633306+344053488+339034914+333770493+328329991
2318+322711057+317019253+311466879+306184133+301078072+295968054+290856521
2308+285934277+281325029+276988991+272878553+269024373+265442815+262095946
2298+258992449+256211324+253759845+251502717+249304538+247163721+245159286
2288+243360575+241828087+240619504+239743259+239113932+238560969+237913549
2278+237112866+236246907+235484139+234954705+234648981+234440798+234224861
2268+233980349+233717281+233457547+233245816+233082018+232876545+232561765
2258+232215096+231966681+231786983+231498442+231050703+230623071+230368238
2248+230230822+230103352+229985972+229926863+229939055+230004653+230076382
2238+230078468+229959964+229771443+229667378+229770730+230038289+230337489
2228+230629880+230971451+231372256+231776715+232166914+232601801+233139630
2218+233751150+234331118+234813332+235282854+235947101+236940815+238167794
2208+239391403+240455385+241368119+242246663+243220538+244312079+245414546
2198+246431220+247361512+248250074+249156106+250121478+251099488+252002560
2188+252815846+253570397+254277389+254939693+255535205+255997936+256280006
2178+256396780+256430880+256497761+256607815+256618546+256426531+256063444
2168+255555152+254888748+254121381+253362124+252668269+252002418+251285211
2158+250523299+249828927+249274146+248850150+248540575+248320431+248214833
2148+248348061+248784998+249636341+251470542+255007234+260241121+266475603
2138+273169713+280191723+287512790+295160063+303198693+311545311+320034069
2128+328638015+337485848+346700815+356168866+365530928+374536196+383131942
2118+391119877+398129623+403871053+408137963+410912956+412648583+414111624
2108+415955059+418527162+421878772+425867000+430161611+434106095+437001053
2098+438680815+439396435+439302744+438403308+436599410+433659389+429395295
2088+423654328+416182832+406881769+395930142+383573478+370245827+356650153
2078+343395337+330889617+319455883+309213993+300200668+292603147+286431945
2068+281310519+276929009+273198698+269974860+267199725+265010387+263355206
2058+261966355+260699912+259500794+258387899+257658233+257638482+258359949
2048+259800048+262046302+265152652+269271807+274741418+281797242+290562615
2038+301225417+313725790+327451197+341482632+354885185+366899530+377211224
2028+385885437+393118465+399236618+404459578+408589410+411356631+412694822
2018+412392752+410176516+406249965+401140018+395139441+388246916+380424258
2008+371770473+362513011+352880501+343109417+333532060+324446649+315960315
1998+308137373+301207627+295426535+290687804+286415510+282056781+277630315
1988+273546775+270078854+267226267+264840778+262736272+260849146+259266782
1978+258011283+256978388+256109470+255405472+254857589+254541259+254548407
1968+254660939+254398691+253609167+252697913+252078853+251738708+251516568
1958+251457886+251624180+251856659+252002685+252149727+252451993+252904902
1948+253445850+254198048+255343029+256547298+256888085+255935422+254471276
1938+253506136+253251054+253386189+253667242+253991023+254279724+254524699
1928+254903187+255787917+257324594+258974231+260090870+260895956+261892665
1918+262628535+262308960+261348811+260969468+261691933+263018430+264130684
1908+264625697+264732756+264887374+265212866+265562887+265890037+266342553
1898+267061810+267936058+268608879+268995567+269564786+270522886+271094316
1888+270485203+269159775+268147325+267751048+267616074+267458069+267282453
1878+267181722+267177853+267305590+267940229+269772827+272896164+275808270
1868+276233924+273845101+270714153+268693033+268032512+268081763+268249590
1858+268311819+268306667+268332460+268419716+268653586+269273643+270576362
1848+272913722+276392837+279811952+280685809+278337290+275211849+273522942
1838+273365651+273761910+274255140+275523384+278355650+281984748+284230094
1828+284288846+283553690+282839264+281611822+279941775+278867828+278874726
1818+279464142+280069833+280795185+282129705+284033123+285555629+285791709
1808+285059119+284575675+285354486+287633754+290708534+293167393+294015135
1798+293824153+294290984+296706812+300656465+303533847+302849528+299827582
1788+297666801+297733093+299260733+301120461+302890135+304302123+305042449
1778+305666696+307644713+312020680+318027959+322665103+323292808+320861740
1768+317801683+315559171+315206869+317247525+320330363+322224601+322829311
1758+323576126+324646793+325806373+328264465+333188207+339183614+342942250
1748+343295372+342263244+341953402+343048918+345288719+347791945+349552385
1738+351150757+354750390+360742196+364987110+363427277+358708920+354577198
1728+351936324+350889685+351334216+352632799+354877806+359593668+367717753
1718+376711470+380791106+377894936+372219674+367773725+366063445+367456788
1708+371600275+376834679+381059557+384643611+390058122+397451828+402799138
1698+403595900+401431250+397148867+392139741+389519759+390504935+393889807
1688+398922427+406705583+416675100+422396744+419354976+413258855+410103717
1678+411411427+416037270+421128821+424591875+427657529+431755918+434707846
1668+433846628+431688431+432435994+436464186+440466531+441887789+442506046
1658+445835874+454115931+467884370+483173995+489510367+487098372+486848210
1648+491411236+495593618+494393360+490599751+489202985+491916195+498861876
1638+509582379+521270446+527745750+526830734+524587082+526096148+531767133
1628+539548114+547662145+555987836+564348822+571496073+577717471+585645762
1618+596530151+606963807+612159922+613559076+615384971+618604744+621830506
1608+623967205+625274024+626757243+629134799+632354145+636107825+640581154
1598+646276238+653261884+660814664+667827048+673741456+678916537+683933970
1588+688973577+693897390+698382199+701984078+704697038+707634028+712625935
1578+720470695+728861627+733773319+736231447+741326670+751195544+763472849
1568+774476990+784121906+794521907+806495609+820699202+839204643+861233816
1558+876093599+878288338+877157350+877807622+879074939+878942033+876775885
1548+873888878+872699208+874596904+879284138+885142504+887224800+879063531
1538+865170742+855422867+851280806+848629949+843947421+838350805+834940585
1528+834463647+835657025+837847129+841480381+845391210+846443125+844214446
1518+841380844+838781752+835622443+832702352+832433901+836680704+845274347
1508+854426710+855820160+846559133+836017384+830515527+829830246+831946838
1498+834156337+833710130+830750752+828823679+830567577+834931030+837837289
1488+836248330+831642166+827295255+824920693+824439478+825008038+826194998
1478+828304674+831650651+835783229+838761146+837500888+831878032+826401488
1468+824751137+826775608+829621261+830860057+831684804+835090461+841945054
1458+848771483+848788524+841471967+833810238+829464896+827757433+826766838
1448+824889392+821855716+818680863+816215463+814691887+814819232+817603351
1438+822011439+823861648+820674318+816119990+814123755+814320334+814134236
1428+812583352+811177852+811182914+812179356+813506924+815106935+815813179
1418+813273838+807890057+802847740+799920946+798671811+798095194+797921432
1408+798490277+799535560+799791676+798750172+797875299+798604146+800531361
1398+802350553+803263073+802697864+800402590+797685423+796517928+797191801
1388+797876226+796703598+794724832+795177669+799434241+805546440+810955319
1378+815482053+820387399+825438130+828832022+830093777+830865904+832300709
1368+834081327+836165691+839289991+842946059+844665929+842960748+839550956
1358+836982025+836031715+836026724+836205977+836301022+836261735+836064158
1348+835857169+835883265+836289043+837230440+838855122+840926865+842866273
1338+844335517+845284186+845533742+845180228+845183294+846639632+849628816
1328+853428486+857559994+861949258+866422516+870849213+875487320+880381829
1318+884778223+888057105+890859050+894266917+898328121+902236883+905481826
1308+908019740+909908523+911482295+913274536+915488241+918028865+920692983
1298+922897206+923909191+923832257+923609082+923674894+923279240+921295127
1288+917494458+913063269+909636863+907709078+906444185+905158044+904252940
1278+904343707+905189560+905915697+905971669+905679474+905867853+906923832
1268+908333468+909462103+910546175+912147968+913886733+914916259+915462858
1258+916582652+918673076+921264253+923812221+925977797+927566186+928511077
1248+928663520+927905797+926567463+925016222+923098633+920703108+918262093
1238+916121543+914114970+911945400+909471871+906743510+903977287+901255486
1228+898399922+895500508+893213647+892179558+892448793+893558748+894846742
1218+895738228+896114559+896405113+897118559+898333826+899737329+901183471
1208+902969009+905453020+908673363+912276525+915483179+917474137+918246977
1198+918756071+920050555+922543977+925697510+928381736+929989447+930709952
1188+930698258+929973547+929226162+929680283+932050139+936181933+941245997
1178+945672765+947906435+948072925+947742513+947861301+948242480+948914214
1168+950670233+953999027+958338879+962525004+965342065+966075261+965281958
1158+964561382+965094006+966832343+969031930+970884706+972133414+973824620
1148+977088885+980685559+981897974+980628589+979544731+980091401+981650485
1138+984000947+987816803+992835447+997527174+1000506232+1001316148+1000357995
1128+998956916+998971248+1001402637+1005206514+1007874483+1008280475+1008412740
1118+1010645839+1014617204+1018479334+1021612903+1024041654+1025122304
1110+1024932998+1025028827+1026427340+1028199687+1028520117+1026652011
1101+1024111031+1023632097+1026431903+1030968904+1035061125+1038027920
1093+1039801408+1039797558+1037921324+1035463481+1034212135+1034699412
1084+1035911898+1037252870+1039493527+1042869023+1045480164+1045564158
1075+1044292420+1043842720+1044725221+1046292505+1048421932+1052009122
1067+1057187340+1061547585+1061660598+1056912900+1050582446+1046428477
1058+1045644729+1047433262+1050666011+1054702474+1058866354+1061695179
1050+1062506023+1062303597+1061912863+1060577667+1057948772+1056314607
1041+1058698010+1065053848+1071379953+1073741823+1072720711+1071218312
1033+1069626286+1066337778+1061965841+1059838410+1061189507+1062672084
1024+1060492105+1055788329+1053418615+1056056067+1061735108+1066863344
1015+1069808391+1070189927+1067273329+1061942240+1057223633+1055212852
1007+1055417346+1056658067+1058623144+1060773176+1061794217+1060988436
998+1058691522+1055311962+1051509582+1048818013+1048072410+1047703709
990+1045492571+1041793294+1039361547+1039976739+1042466453+1043947747
981+1042539894+1038785857+1034679233+1031588944+1029114132+1026199245
973+1023222897+1021570051+1021545880+1021692048+1020524767+1018127103
964+1015389758+1012731629+1010399777+1009003617+1008581725+1007598403
955+1004278736+999024439+993932354+990149867+987379723+985011008+982249634
945+978374170+973745261+969798281+967762830+967755914+968794353+969330827
935+968327897+966236331+964470472+963949114+964659921+966125528+967560405
925+967816806+965981428+962457054+959082342+957480192+957498730+958034135
915+958848116+960111226+960799787+959591223+957016588+954850370+953899917
905+953862769+954448156+955311549+955844958+956227349+957452456+959126335
895+958903375+955732515+951869458+949758427+948865230+947471566+945944283
885+945848310+947307073+949361561+951453554+952816773+952109602+949338816
875+946204035+943759383+941884432+940761073+940462818+939904240+938673073
865+938518919+940700752+943352963+943310824+940129696+936923186+937215166
855+941406283+945937651+946536586+942697058+937828575+935507490+936660510
845+939400707+940986957+940609343+939781102+939689979+939746949+939092042
835+938193569+938264443+939986095+942856846+945136862+945418432+944413719
825+943711112+943390682+942721800+942184755+942862336+944861494+947675845
815+950888346+953776280+955518752+956451807+958201837+961546103+964429973
805+963687151+959100168+953408862+948291108+943775640+941239722+943010857
795+948744302+954913115+958383585+958973678+958037700+956373517+954087084
785+951371344+949243129+949275857+952359443+957724472+962485860+963118948
776+959581383+956132660+955855867+956961686+956172161+953234815+949708872
766+946377655+944068975+944003948+945741429+946969602+946357975+945418503
756+946300007+949349796+953540414+957588713+960319000+961028951+960568912
746+960613832+961348026+961786675+961948815+962648570+963725440+963882946
736+962218621+959954862+959658888+962048209+964422772+963683586+960463457
726+957548356+955762747+954525804+953939561+954939497+958716849+965128944
716+971115510+972460831+968070569+961035368+955020781+951393304+949511723
706+948578383+948581021+948946942+948491181+947206965+946534376+947337091
696+948268862+946956268+942839591+938209897+935632339+934885738+933687726
686+931465251+930287275+931343539+932209213+929483562+924418713+921694559
676+922358450+922824406+919575614+911116945+897947727+887373107+890715805
666+902510753+906489747+897873644+885536303+880513452+884283888+889029518
656+888870872+887394070+890733701+898841209+906094878+908001201+905147064
646+900028312+894564245+891022473+890986109+892657565+892036812+888478926
636+886087822+887675355+890062395+887930616+881192601+874714267+871790824
626+871432319+870935060+868999860+865930391+861917315+856805621+851590540
616+847957217+845499161+842414291+840139908+842617358+849629315+856188006
606+859721292+861669826+863109123+862675395+858506881
##END=
