##TITLE=<SNM>
##JCAMP-DX=4.24
##DATA TYPE=INFRARED SPECTRUM
##DATE=2/5/2025
##SAMPLING PROCEDURE=Instrument type and / or accessory
##ORIGIN=Admin
##XUNITS=1/CM
##YUNITS=ABSORBANCE
##RESOLUTION=4
##FIRSTX=4497.3318
##LASTX=599.83466
##DELTAX=-1.4281778
##MAXY=1.7597268
##MINY=0.21344976
##XFACTOR=1
##YFACTOR=1.6388733e-09
##NPOINTS=2730
##FIRSTY=0.23160529
##XYDATA=(X++(Y..Y))
4497+141319830+142311030+143421984+143620160+142613622+141173490+140281915
4487+140288079+140912449+141792186+142737378+143551431+143978043+143876518
4477+143259395+142317540+141546811+141517979+142320349+143407355+144029087
4467+143839904+143197949+142808462+143030078+143630780+144114210+144129230
4457+143703110+143126429+142544375+141913641+141458579+141598119+142234154
4447+142787886+143063956+143285572+143267533+142470300+141000608+139808332
4437+139681876+140529099+141683087+142490312+142583508+141995199+141170316
4427+140597182+140297899+139899901+139254155+138651962+138274521+137854174
4417+137234914+136922748+137563993+139057079+140602255+141439831+141309329
4407+140492593+139546301+138804113+138273830+138106895+138583042+139380866
4397+139575105+138739557+137500428+136758222+136842972+137518158+138338995
4387+138880825+138887971+138364581+137550427+136700068+135827287+134839324
4377+133995984+133849025+134491943+135234977+135357459+134907617+134441417
4367+134291612+134401511+134575947+134585658+134260625+133759257+133519710
4357+133766030+134295467+134767404+134924410+134658424+134186050+133964034
4347+134198425+134636084+134832914+134404502+133289793+132058584+131562507
4337+132012240+132722659+132898578+132390117+131573354+130803298+130273115
4327+130241774+130922216+132005112+132717504+132672988+132358776+132449372
4317+132928128+133284438+133353394+133450391+133705730+133798872+133466811
4307+132876511+132386244+132229737+132484995+133087571+133746727+133989983
4297+133540859+132751391+132431041+133096945+134528885+136027009+136901936
4287+136835452+136032000+134990939+134135551+133701884+133676826+133772468
4277+133774850+133800263+133966389+134170539+134396219+134745737+135108966
4267+135329164+135606334+136202436+136845145+136929022+136323918+135575693
4257+135226894+135329764+135728281+136340348+136984185+137379682+137472833
4247+137469833+137528478+137604054+137549045+137320164+137096884+137050359
4237+137023100+136751267+136381655+136352341+136733800+137113814+137220921
4227+137269411+137529197+137890180+138099240+138205729+138463451+138837054
4217+138915375+138498538+137979094+137839454+138021873+138103731+137832598
4207+137348223+137197854+138002334+139649444+141127319+141651109+141497394
4197+141338570+141355345+141328395+141056417+140513714+139909030+139519215
4187+139357744+139215849+139021765+138848810+138699224+138634204+138928150
4177+139796876+141124555+142601639+143914442+144777104+145103127+145127922
4167+145138196+145237821+145435233+145608460+145415357+144703028+143888393
4157+143455908+143289363+142942301+142345026+141857414+141788467+142079721
4147+142367266+142335270+142043843+141801305+141711100+141559177+141231944
4137+141048879+141460116+142413191+143219071+143228045+142564360+142017139
4127+142207459+142939591+143396171+143052763+142286817+141789840+141660574
4117+141598174+141647718+142077294+142769446+143272825+143292946+142927971
4107+142612058+142759136+143287981+143716421+143795060+143722103+143729759
4097+143799434+143847268+143957294+144246994+144561543+144548159+144135249
4087+143737533+143855997+144544349+145288792+145457027+144958341+144354765
4077+144219553+144567098+145001384+145186731+145005921+144416129+143453516
4067+142433340+141865424+141974278+142437040+142754971+142798987+142836757
4057+143039188+143171973+142974833+142657265+142617141+142829665+142990463
4047+143074012+143245593+143425403+143392461+143162189+142989844+143090023
4037+143393325+143539102+143260295+142852296+143013012+144005184+145182612
4027+145660341+145371032+145079478+145334790+145848370+146033053+145752673
4017+145312978+144919635+144439033+143750517+143084141+142779493+142861070
4007+143102280+143423857+143959931+144718003+145391235+145604959+145314232
3997+144923917+144954731+145528302+146281828+146839615+147121477+147155491
3987+147000531+146914335+147116930+147313270+146948632+146066795+145449181
3977+145700574+146532367+147194661+147405512+147511710+147815366+148162356
3967+148340666+148557754+149165303+150019545+150552673+150542835+150352305
3957+150315291+150404905+150607127+151184516+152378947+153887727+154820381
3947+154695307+154284352+154550866+155167508+155093860+154199521+153242863
3937+152839001+153332132+154837129+156769047+157991019+158034625+157728687
3927+158066576+158890922+159109920+158312123+157649038+158441561+160393992
3917+161592560+160449000+157538076+154860296+153751033+154275751+156370949
3907+160631465+167232653+174378599+179004463+179766908+177646579+173661051
3897+168717538+164838045+164116806+166451387+168806770+168477810+167256803
3887+168324459+171180484+172995566+173729226+175067397+175560746+173067141
3878+170005357+169981407+172911044+176665991+180214578+182550140+181918697
3868+179455442+178477654+179401142+179454023+177178416+174547243+174159274
3858+177392431+184717295+194488776+199619481+194093132+183722977+175473024
3848+171510263+171884157+175584677+180928398+186703131+192497594+197039244
3838+197717950+194057109+189072535+185208535+182586146+180904903+180458107
3828+181010029+181896039+184006858+189014726+195331670+198161310+197016404
3818+195594311+193650064+188543616+181984325+178119944+178951709+183980799
3808+190238880+194188074+196512945+200284948+204460324+205071455+202794720
3798+200993076+199488770+196899677+194497541+194354009+196546604+200048366
3788+204426209+209451099+214294469+218757925+224246377+231685459+239525604
3778+245970768+252195935+260823201+273134149+288486496+304242433+316947642
3768+325617133+331518777+335306492+338034370+342017934+347851458+353029389
3758+355795236+358692122+366050174+380361523+399763735+416555215+425462452
3748+432147308+443335918+457667634+467412783+471496399+476983032+488264420
3738+505036660+523522767+537749630+544084613+545323606+546898359+551387383
3728+558255104+565422981+570474928+572473966+572149297+570258786+567279523
3718+564209483+562997695+565852502+572452472+576852719+572190649+560964797
3708+550957971+546474802+548174521+554205966+560257742+562519075+561393700
3698+559681871+559372005+561414504+566237325+573332463+580105187+582302583
3688+579048369+574815930+573228010+574505663+577964964+583641518+592053624
3678+602725099+611344001+611327416+603812031+595753253+589348659+582927625
3668+576490953+571403363+567828445+565342423+564047603+564503201+566700561
3658+569055945+569560641+569371121+572370314+580053070+588741946+591428218
3648+585945076+577577922+570926599+567159250+565785364+565493537+565073290
3638+564639113+565394067+568372057+574274282+583636135+594590491+600162519
3628+595522672+587538559+584194877+586756911+593203730+600910417+606728339
3618+608963667+609710620+611262024+612705957+612714904+612736508+614457502
3608+616711088+617788783+618277586+619239699+620621223+622355674+624819329
3598+627705304+630002024+631240326+631948799+633305446+636567044+641472169
3588+644722201+642747421+637162772+632961102+632808860+635783067+639641048
3578+642970147+645113971+645397360+643800094+641938277+642269965+645969449
3568+650860317+652060358+647420001+640216337+634826555+632792639+632890109
3558+633713219+635393407+638218282+640766023+641125206+639556599+637893795
3548+636984927+636374868+635256804+633089340+630055487+627230903+625571737
3538+625026125+625465538+627329537+630416125+633249147+634290181+633083739
3528+630341714+627498145+625598504+624409593+623203369+621750198+619749960
3518+616942833+614245396+613013132+613255061+614008778+614894152+616120888
3508+617634650+618902701+618674157+615540725+610189640+605614566+603863239
3498+604278140+605390931+606923496+608946537+610773657+611919872+612611034
3488+612785606+612122594+610870472+609154133+606326531+602310744+598460546
3478+595969105+594526190+593376047+592583124+592551047+593474099+595346026
3468+597634599+598986482+598091507+595217315+592171642+590381910+589587205
3458+588793009+587846389+587243023+586881003+586126049+584970415+584059328
3448+583597911+583200104+582885473+583069211+583487276+583449306+582901949
3438+582073420+580598318+578311200+576272665+575610671+576010770+576318017
3428+575997495+575371580+575004068+575555208+577485144+580060380+581359418
3418+580057871+576728045+572981318+569856214+567481082+565824534+565101694
3408+565260883+565423490+564606381+563033446+561997867+562255980+563077016
3398+563232095+562495508+561548925+560832777+560276836+559960132+560135432
3388+560493452+560206716+558939174+557178537+555435612+553877006+552882670
3378+553130490+554643162+556129574+556019739+554369919+552930823+552900382
3368+553466433+553195228+552039085+551115668+551182079+551969728+552505448
3358+551916193+550340203+548751447+547717795+547237321+547771549+549893551
3348+552707115+554193528+553608855+552318873+551770497+551789373+551401895
3338+550329474+548886631+547259979+545807826+545071385+544860006+544571416
3328+544654411+545994328+547805518+548238822+547027216+545536802+544619896
3318+544044643+543374430+542374384+541170815+540367309+540329921+540528498
3308+540385384+540298244+540841710+541657436+542219415+542942145+544140149
3298+544640445+543267941+541203439+540846656+542634825+544619060+545218607
3288+545075422+545594011+546774413+547386326+546666141+545052873+543478155
3278+542575361+542566705+543337043+544523627+545655330+546247167+545988436
3268+545026032+544028095+543703754+544049481+544255512+543730995+542937853
3258+542648754+542868643+543065255+542979460+542689524+542193592+541338732
3248+540065444+538599507+537412414+537006533+537604007+538810013+539634395
3238+539174433+537460603+535229238+532932664+530703081+529124654+528966303
3228+529901466+530464535+529817489+528733066+528269794+528359736+528184436
3218+527219086+525503474+523526585+522075160+521701138+522176303+522696093
3208+522652013+522093817+521472812+521065185+520660213+519707738+517927716
3198+515856995+514368109+513617701+513141919+512886242+513147083+513615192
3188+513550127+512775353+511752103+510886550+510091845+508882021+507003947
3178+505017494+503819417+503505259+503187973+502100568+500488900+499211865
3168+498717425+498695130+498604825+498148427+497197007+495736489+494005129
3158+492402190+491282198+490779138+490482837+489515814+487503902+485171067
3148+483440580+482427077+481772067+481388152+481305121+481225727+480756600
3138+479859842+478836338+478030031+477588363+477371747+477142184+476781219
3128+476151194+475052187+473678265+472718552+472646759+473232341+473782244
3118+473579995+472364279+470715550+469588321+469231247+468884357+467615578
3108+465317148+462880916+461367953+461049722+461460732+462162150+462901428
3098+463190418+462485254+460875222+459076616+457768158+457211199+457229202
3088+457287756+456910498+456260433+455994828+456415948+457117803+457461602
3078+456989710+455564398+453644173+452158415+451659101+451848585+452036650
3068+451756098+451039877+450314347+449838527+449356016+448603281+447801302
3058+447240160+446759758+445991639+444859100+443636001+442630026+441872418
3048+441157070+440405463+439781693+439370284+439042888+438719601+438502549
3038+438476800+438525280+438402279+437922023+437054361+435914438+434671700
3028+433372589+431885704+430176566+428498305+427092050+425947291+425104215
3018+424839664+425242672+425903284+426234099+425913176+424992197+423787574
3008+422647542+421707942+420961317+420494335+420334638+420136098+419477159
2998+418456382+417539804+416911997+416419848+415976179+415555205+414959185
2988+414013729+412878462+411916531+411345315+411033085+410562866+409649088
2978+408496182+407497627+406733035+406119631+405807910+405930692+406112284
2968+405692546+404464283+402907169+401623987+400783857+400242137+399957292
2958+399973622+400093132+399920632+399277369+398369664+397500220+396717080
2948+395854583+394898798+394093327+393555098+393023525+392219291+391247904
2938+390436614+389963559+389791169+389760182+389642382+389284035+388774829
2928+388299301+387811661+387109589+386236253+385466024+384867786+384288278
2918+383777217+383563838+383579659+383419125+382835143+381989921+381244351
2908+380862510+380809702+380723652+380182841+379119075+377959950+377249112
2898+377042062+376832793+376227499+375416682+374737595+374147867+373512678
2888+372999071+372704225+372247245+371250763+369998387+369141745+368888833
2878+368830060+368471386+367695193+366755411+365988055+365535148+365296129
2868+365075695+364730296+364279572+363954321+363932500+363948393+363494686
2858+362521444+361522816+360870424+360498403+360230689+359966429+359551310
2848+358872332+358097194+357510666+357102348+356551790+355672054+354700375
2838+354023834+353724915+353542887+353205889+352657986+351990828+351285263
2828+350571116+349909741+349437049+349249529+349232872+349055063+348409981
2818+347319084+346165341+345380128+345116597+345200319+345272403+345014799
2808+344401758+343689357+343064169+342477787+341884677+341330482+340757775
2798+340063449+339325516+338667741+338037461+337381614+336798323+336296682
2788+335674694+334801941+333829644+333065126+332703470+332609382+332388730
2778+331770343+330799028+329664125+328597450+327867010+327538377+327321616
2768+326902569+326276581+325623498+325060538+324558023+323928580+322977050
2758+321772173+320649780+319912066+319613765+319574013+319507312+319220976
2748+318744393+318233005+317753694+317213610+316505100+315664242+314829640
2738+314106655+313559807+313231865+313026960+312698582+312106636+311363829
2728+310647100+310002454+309376212+308752406+308231452+307913366+307682931
2718+307295161+306739802+306229687+305785436+305222731+304589814+304171004
2708+303984211+303686147+303060104+302272472+301602696+301176721+300974435
2698+300861854+300598522+300022614+299250131+298530473+297955220+297481092
2688+297114690+296847139+296524526+296002208+295352253+294800913+294509776
2678+294413543+294224750+293689213+292885579+292179124+291866293+291901808
2668+291936850+291653478+291098265+290601515+290361060+290236968+289941867
2658+289335464+288578983+288023860+287869964+287974835+288051247+287919572
2648+287522183+286873736+286073503+285267087+284561723+284020075+283708791
2638+283651018+283681695+283501195+283049852+282667538+282630441+282738385
2628+282629241+282237380+281677512+280990659+280261892+279701787+279427417
2618+279357260+279367062+279373990+279290850+279041848+278620692+278095919
2608+277580930+277161192+276819303+276484869+276159218+275919854+275812692
2598+275790543+275743809+275587693+275354712+275171665+275120130+275155299
2588+275143024+274935283+274489014+273976789+273655757+273558560+273474802
2578+273284827+273091306+272954412+272745343+272368630+271930326+271579798
2568+271337706+271158224+271033550+270976014+271008764+271211650+271635734
2558+272112117+272309348+272088205+271646227+271234363+270909749+270645035
2548+270473190+270404852+270355863+270250501+270100387+269945163+269788266
2538+269588180+269281987+268872178+268496556+268321838+268342969+268347678
2528+268105786+267594343+267054041+266808185+266963645+267288150+267434591
2518+267273639+266961627+266733828+266701514+266792055+266820441+266666527
2508+266390975+266125643+265912246+265743001+265653751+265643895+265586395
2498+265357014+265015470+264759085+264703040+264762940+264756757+264585476
2488+264306306+264067941+263983801+264014024+263959943+263653532+263178512
2478+262814910+262724096+262757174+262619571+262201361+261703883+261411456
2468+261364540+261332171+261103354+260707529+260324342+260066229+259894257
2458+259717902+259527618+259375067+259263923+259175200+259151233+259200513
2448+259202022+259063492+258854368+258660284+258466254+258249947+258014983
2438+257726011+257374029+257076692+256982296+257092222+257248974+257302055
2428+257244137+257143557+257005063+256819143+256682395+256709363+256864187
2418+257005081+257063654+257119408+257297217+257582644+257782857+257744651
2408+257540910+257359118+257301636+257362482+257503831+257702462+257955956
2398+258244892+258510660+258741424+259077476+259801406+261282418+263976764
2388+268426218+275178994+284675577+297190847+312869518+331786164+353882467
2378+378754983+405534449+433104693+460515567+487091256+512066261+534380379
2368+553069826+567481300+576926585+580786202+579171624+573093990+563652742
2358+550911491+534092807+512804921+487933205+462890153+443289729+433765268
2348+436218595+449909775+470477440+490117544+503027076+509179085+511005187
2338+510345012+508359612+506014521+504032504+502397050+500257955+496669143
2328+491325513+484517693+476639379+467924462+458554062+448766906+438729130
2318+428478702+418138224+408013161+398306600+388819636+379136605+369122614
2308+359096076+349494985+340529375+332216994+324580790+317647132+311311603
2298+305363007+299670178+294271085+289272927+284744079+280707452+277148536
2288+274010485+271249856+268896982+266995760+265494836+264263317+263190041
2278+262229492+261395799+260724040+260189812+259714465+259281653+258919888
2268+258552740+258064900+257523744+257123827+256922850+256791521+256575469
2258+256218814+255787128+255381156+254999424+254564466+254090483+253695331
2248+253449511+253329056+253286504+253271447+253213911+253070398+252878368
2238+252718343+252641131+252677228+252867330+253184397+253465259+253538488
2228+253423743+253326674+253440146+253790582+254258855+254710143+255084583
2218+255389139+255664546+255980995+256414444+256978986+257586953+258120091
2208+258564141+259038779+259680297+260531938+261517054+262466311+263234394
2198+263840361+264439654+265155383+265976529+266781144+267455376+268031138
2188+268654017+269392004+270177763+270918659+271556686+272064983+272449152
2178+272709701+272836594+272873290+272880691+272832447+272663076+272386669
2168+272073766+271765191+271463726+271150186+270762290+270190255+269390950
2158+268516414+267797339+267290205+266901127+266620810+266568948+266866376
2148+267528570+268411652+269370583+270576734+272459790+275257515+278862165
2138+283060799+287687826+292661399+298037615+303906108+310234636+316944041
2128+324006265+331358970+338885557+346533762+354336792+362329196+370465768
2118+378538658+386218214+393326408+400082839+407034864+414819563+424042195
2108+435212075+448598517+464167952+481654412+500433546+519293492+536791881
2098+552101858+565283613+576727863+586563608+594520043+600145607+602980048
2088+602462767+597943011+588897461+575070115+556726103+534806627+510467903
2078+484804574+459176304+435021536+413179381+393897588+377288391+363353137
2068+351834367+342291540+334226833+327288338+321446376+316713351+312813073
2058+309446113+306603745+304347740+302630619+301440452+300834777+300921499
2048+301972299+304344721+308279241+313980272+321783374+332129380+345538662
2038+362535628+383297579+407343275+433565637+460415842+486254144+509898397
2028+530774401+548682563+563901181+577162476+588886187+598641410+605612529
2018+609397007+610275471+608738396+604867941+598393590+589170885+577294314
2008+562936158+546409374+528291470+509256333+489836155+470403356+451262494
1998+432776024+415557787+400307274+387122827+375269532+364027642+353457564
1988+343980166+335725975+328598360+322490320+317240160+312661085+308643407
1978+305074326+301785742+298692880+295869442+293500729+291827105+290891142
1968+290183487+288904652+286867954+284725876+283080020+281891963+280916284
1958+280174787+279749630+279486062+279135626+278636330+278166476+277963590
1948+278162057+278875586+280161367+281504048+281755524+280392367+278354577
1938+276879876+276261998+276106519+276074914+276080406+276124486+276188987
1928+276377307+277097237+278603525+280324592+281478935+282304682+283392560
1918+284124582+283420782+281767144+280784482+281290306+282764662+284090650
1908+284538356+284310793+284116145+284274715+284564069+284829164+285326151
1898+286358529+287727251+288821657+289532749+290555308+292105294+293066534
1888+292444910+290909963+289726325+289258834+289199152+289284529+289410076
1878+289539950+289661496+289821976+290501609+292657853+296563677+300390871
1868+301109237+298103825+294000934+291247506+290192979+289991293+289914245
1858+289733035+289518802+289411694+289491197+289867819+290762086+292419488
1848+295177025+299177010+303082871+303970300+300991292+297103870+295038950
1838+294876288+295294626+295725511+297165425+300671533+305187889+307882198
1828+307788620+306737366+305732737+304019307+301632373+299918471+299596493
1818+300130431+300819538+301746755+303457584+305837771+307690714+307929951
1808+306947253+306163640+306779227+309178217+312646974+315488433+316368352
1798+315914754+316277210+319137691+323973969+327384280+326091716+321727002
1788+318523705+318269811+319924977+321994862+324003464+325666050+326460464
1778+326920172+328938812+334049860+341461302+347296535+347895937+344336476
1768+339871673+336546430+335776528+338082123+341628492+343616036+344040320
1758+344716025+345725709+346642943+349025276+354536495+361657492+366212454
1748+366388226+364477639+363191585+363613577+365589520+368005241+369506056
1738+370868376+374992944+382554882+388315958+386753861+380974527+375753789
1728+372267066+370728609+371231233+373149676+376464009+382763168+393086298
1718+404409474+409701751+406421787+399749587+394621628+392887213+395024599
1708+400700171+407942059+413914368+418662960+425225433+434212647+441099971
1698+442802889+440980607+436264420+430088225+426511779+427498877+431881885
1688+438692870+449029565+461968374+469275436+465309002+457525757+453498586
1678+455043844+460674028+466836948+471017088+474876378+480317732+484770241
1668+484854327+483410285+485514175+491720011+497996404+501023492+502748305
1658+507257369+517082494+532741398+549426061+555061008+550838644+549731017
1648+554240263+557504769+553473634+546332308+542439994+543501977+549301132
1638+559244167+569987398+574052866+569241391+563336402+562279729+566226160
1628+572531975+579016836+585489405+591545327+595544530+598144970+602962772
1618+611745299+620654973+623996365+623197768+623358739+626074724+629770861
1608+632520306+633936235+634910568+636179129+637617970+638928719+640561991
1598+643380465+647486193+651824976+655201209+657542300+659708236+662205206
1588+664679481+666649968+668197481+669737139+671628269+674510243+679513275
1578+686930135+693949989+696410371+696172588+698929816+706236114+714552314
1568+720026837+723905548+729620981+738930572+753521200+776612785+807214118
1558+828829837+831467411+829625234+831868636+836502447+840422255+842920389
1548+845512573+850259128+857717886+866785839+875905291+880472837+872617072
1538+856353747+844033143+838738576+836150101+831757637+826474490+824076154
1528+825452368+828621005+832294157+837015326+841622369+842580845+839568741
1518+835754622+832339182+829109590+827070219+827785530+832423413+841502205
1508+852227433+854904358+844183857+831234065+825018046+825625122+829957940
1498+833739181+833253724+829127993+826121781+827638089+832742590+836690039
1488+835347286+830081959+825054997+822553881+822334720+823152665+824638932
1478+827676495+833053257+840228407+846338956+846462684+839508732+831580955
1468+828376312+830342654+833770095+834764213+834313161+836792819+844559916
1458+854408572+857274253+850185953+841307847+836196581+835093937+836353842
1448+837598253+837056496+835212792+833662151+833107883+833971508+837301116
1438+842822992+846492652+844439824+839518624+836434291+835567974+834592259
1428+832705057+831240975+830809563+830935619+832011786+834764577+837324756
1418+835710251+829592647+822808248+818092752+815750134+814852686+814541074
1408+814781547+815465290+815458743+814342279+814052052+816299383+819901906
1398+822573884+823946316+824368636+822964490+819962133+817903559+818316423
1388+819508172+818653276+816031050+815018748+817733933+823113750+828857042
1378+834025990+839111579+844000629+847278083+848261145+848348795+849255117
1368+851452550+854679887+858375952+861153692+861496072+859813629+858019314
1358+857004102+856317668+855588683+855054781+855017830+855443569+855857088
1348+855516890+854166353+852664519+852562104+854857951+859044346+863188335
1338+865209158+864600482+862802966+861757568+862242661+863660190+865325467
1328+867330796+869888503+872688283+875370663+878065627+881154761+884738735
1318+888401777+891501676+893791704+895701819+898006541+901201873+905016065
1308+908628553+911646185+914463932+917235271+919266932+920159871+920722213
1298+921796998+922828940+922531148+920669986+918219133+915878770+913453593
1288+910775796+908209797+905944500+903852903+902280659+901715771+901493627
1278+900233504+897884194+895936037+895408028+895900468+896583411+897105237
1268+897464129+897774432+898271745+899112821+900252562+901743848+903840901
1258+906432067+908601785+909212062+908100180+906391770+905387395+905528727
1248+906566560+907955794+908741080+907893457+905339170+902159185+899530050
1238+897912999+897116511+896799080+897013586+898219301+900506638+903032048
1228+904651645+904967258+904420627+903644143+903127990+903259792+904021438
1218+904675503+904565231+904284461+905152595+907467573+910149153+912244387
1208+913870749+915538426+917461197+919605894+921855116+924042364+926112358
1198+928146420+930120981+931840957+933165090+934316105+935997966+938830988
1188+942421945+945551158+947630681+949383389+951624465+954193082+956718565
1178+959403490+962121876+963835015+963930448+963206772+962821694+963275073
1168+964872412+968037631+972354374+976081498+977770851+977973064+978495982
1158+980395404+983221661+985910660+987778805+988919636+990167757+992171050
1148+994391759+995931634+997062428+998715848+1000733834+1001740027+1000843160
1138+999334853+999879156+1003303833+1007172361+1008548211+1007610102+1007179198
1128+1009342516+1013584920+1017625475+1019684485+1019961619+1019725146
1120+1019620257+1019749732+1020286906+1021138093+1021989061+1023035915
1111+1024680534+1026382252+1027045774+1026784278+1027377098+1030680883
1103+1036490876+1042151100+1044733610+1043780226+1041809156+1041579594
1094+1043209083+1044852974+1045537517+1045812833+1046536581+1048563514
1085+1052169965+1056059660+1058704652+1060854513+1064299048+1068269919
1077+1069627148+1066720951+1061940573+1059066745+1058649080+1058146456
1068+1056492527+1055585186+1056807048+1059242190+1061780984+1064556542
1060+1067991621+1071583524+1073741823+1073189519+1070516668+1067352758
1051+1064520537+1062188248+1060609093+1059760089+1059680149+1061084294
1043+1064226382+1067891315+1070433891+1071308791+1070818460+1069446974
1034+1068575203+1069274729+1070494773+1070915930+1070890762+1071099231
1025+1070759324+1068652815+1065620199+1064239257+1065643402+1067718051
1017+1067710996+1065511163+1062776557+1060808106+1060718565+1063361157
1008+1067847599+1071816579+1073456761+1072208421+1068650924+1064446344
1000+1061173181+1059366137+1059079256+1059822280+1059907821+1058090520
991+1055741356+1054958689+1055074707+1053353785+1048936445+1044093147
983+1041353740+1040842970+1041315916+1042422997+1044071035+1044855011
974+1043592561+1041445100+1040122931+1039124812+1036350927+1030784463
965+1023563051+1016645395+1011186366+1006930360+1003100383+999969643+998611323
955+998832012+999085433+998315204+996321658+993044059+989080607+986292829
945+986109818+987356048+987134850+984117509+979762506+976149945+973880865
935+972169036+970476991+969511169+970059181+971511261+972559860+972679806
925+972007702+970932771+970440695+971104434+971442232+969691124+967050569
915+966397013+968317311+970911968+972944065+974421386+974669497+972759673
905+969444758+966671019+965551136+965531787+964861065+962101146+958185119
895+956182409+957979924+962049501+965319245+966488590+966227532+965180024
885+963562318+962012186+961452172+962037718+962621008+961672352+959074203
875+956077811+953438564+950608234+947159262+944353445+943763244+945018348
865+946299129+946618669+946801534+947882647+949235585+949427614+948582974
855+948644293+951002550+954668719+957127501+956683359+953888452+950939122
845+949719005+950185405+950700248+950135797+948992783+948204152+948093298
835+948759365+950179004+951927857+953450784+954489127+955083765+954932615
825+953147537+949576874+946094370+945273733+947704074+951565983+955069509
815+958374676+962753101+968201220+972235664+971922452+967292933+961862418
805+959474992+960995810+963931393+965441955+965263382+964458603+962837769
795+959721722+955938371+953641941+954936251+960205288+966813368+971011620
785+971993009+971694635+971080358+969828382+968544400+968230679+968579970
776+968566295+967682448+965892352+963437426+961316515+960731551+961190022
766+960691327+958948802+958486694+961217518+965870458+969523752+970152723
756+967381238+962582820+958665049+958083213+960512754+963129742+963483760
746+961812228+960228637+960383352+962451964+965444792+968279196+971060573
736+974543004+977930003+979286068+978459249+977014079+975630737+974049401
726+972573899+971412700+969931743+968338841+968189436+969619986+970417855
716+969473417+968565713+969138020+969999026+969502804+968165505+967581124
706+968603319+970997145+972619579+970596719+964873867+958647955+954375874
696+951733863+950311824+951185851+953978503+954837109+949586985+937963216
686+923863646+913042402+910169083+915778463+925341839+932372967+933570244
676+930838547+928002397+926559992+924448827+918662475+910286192+905389214
666+905600447+907294164+909176711+912264827+916561203+919689179+919142404
656+915322756+911380471+909905188+910214981+909944976+907805298+902789974
646+894180419+883992947+875376627+869926472+868978834+873237532+878989697
636+879743996+874988931+870577264+869250658+868359174+865071973+860398957
626+858025279+859658478+862864939+864326184+862857666+859434880+856755773
616+857807500+863318828+869576963+871339564+867657247+862658798+860748975
606+862490845+865166824+865561358+861244833+850908174
##END=
