##TITLE=<SNM>
##JCAMP-DX=4.24
##DATA TYPE=INFRARED SPECTRUM
##DATE=3/5/2025
##SAMPLING PROCEDURE=Instrument type and / or accessory
##ORIGIN=Admin
##XUNITS=1/CM
##YUNITS=ABSORBANCE
##RESOLUTION=4
##FIRSTX=4497.3318
##LASTX=599.83466
##DELTAX=-1.4281778
##MAXY=1.7044935
##MINY=0.18289523
##XFACTOR=1
##YFACTOR=1.5874333e-09
##NPOINTS=2730
##FIRSTY=0.2028407
##XYDATA=(X++(Y..Y))
4497+127779039+127697231+127718774+127483941+127162128+126977599+126796403
4487+126287818+125356510+124515261+124644594+125995846+127720098+128782917
4477+128965456+128620851+128052171+127571550+127517565+127844475+128196758
4467+128398540+128446648+128353745+128387820+128904619+129612273+129726766
4457+129110268+128460653+128177552+127849854+127121699+126373727+126194277
4447+126601492+127072342+127001621+126013860+124277076+122656823+122117589
4437+122768903+123741560+124076637+123591369+122864781+122513935+122631853
4427+122939501+123259315+123618450+123975380+124076534+123698859+122995297
4417+122422027+122231894+122261623+122303610+122346584+122294946+121869286
4407+121000551+120001132+119192023+118648153+118441940+118756685+119466629
4397+119944406+119715308+119070744+118609807+118450989+118304825+118075999
4387+117969964+118080420+118158820+117848046+117074486+116165294+115531900
4377+115293031+115289801+115397188+115665740+116160329+116773428+117244597
4367+117425352+117480416+117617972+117658655+117225016+116428505+115945565
4357+116224113+116922099+117350472+117300599+117192462+117475159+118080618
4347+118486847+118266010+117606567+117214136+117472174+117837955+117549701
4337+116768584+116334363+116536614+116839334+116774508+116551821+116730558
4327+117518574+118378494+118417431+117356161+115947939+115214434+115424316
4317+116068862+116673842+117196066+117641130+117859733+117895235+118035025
4307+118403979+118932887+119579705+120180798+120426839+120339353+120307766
4297+120430050+120414834+120268172+120443295+121123286+121838637+121993015
4287+121479107+120681545+120061781+119798374+119738269+119684604+119735800
4277+120207541+121190618+122376960+123340183+123801937+123722082+123384828
4267+123247928+123482968+123793526+123760710+123242634+122479484+121892912
4257+121707239+121873003+122419943+123446172+124609253+125267794+125344777
4247+125449920+126003187+126746718+127140670+126912135+126251782+125620077
4237+125319901+125231561+125003739+124478990+123920898+123823039+124413300
4227+125390472+126262436+126782877+126928684+126773311+126595306+126815064
4217+127571390+128495235+128998873+128783443+128113111+127543370+127299760
4207+127125697+126869274+126789663+127024365+127263667+127272387+127260701
4197+127461225+127765981+128006419+128218770+128419970+128417962+128084903
4187+127660022+127565701+127948210+128535721+129000131+129345271+129834181
4177+130635188+131647561+132565277+133058420+133082873+133027181+133310000
4167+133870420+134246001+134033603+133148657+131892392+130906443+130760785
4157+131386426+132076301+132182139+131762495+131467445+131770962+132476842
4147+133100615+133459394+133624294+133594613+133328830+132895069+132427016
4137+132101862+132103758+132394528+132695662+132902437+133265018+133936345
4127+134596867+134771887+134353473+133612307+132914021+132707639+133501701
4117+135304577+137220032+138172789+137996455+137309527+136573130+135891666
4107+135459396+135546310+136094001+136685501+136902415+136633854+136143489
4097+135811445+135723724+135642968+135425312+135187916+135024790+134966938
4087+135305488+136427219+138095525+139387564+139676579+139300425+138976453
4077+138939741+138939712+138772596+138504139+138280194+138159122+138132988
4067+138144722+138052439+137762213+137435397+137372373+137694036+138312908
4057+139066718+139671200+139842399+139710606+139787758+140344320+141129979
4047+141786953+142196337+142352405+142209470+141764509+141143797+140547829
4037+140120338+139883261+139882829+140356194+141488833+142919555+143831657
4027+143801037+143289514+143020033+143125533+143256124+143298497+143512369
4017+144003241+144482389+144630252+144418792+144029909+143659219+143394629
4007+143176523+142982138+143039924+143583194+144395353+144879560+144643619
3997+143928061+143430299+143607863+144109342+144183471+143726795+143445168
3987+143843823+144608596+145180581+145466076+145684735+145883720+146020356
3977+146253153+146676326+147014407+147050743+147040249+147254328+147531346
3967+147679557+147846551+148166758+148523772+148863101+149284538+149703065
3957+149811118+149453465+148818203+148346021+148521022+149382998+150236816
3947+150465820+150469922+150927039+151530000+151423871+150564449+149688130
3937+149394450+149940827+151286174+152827746+153590211+153234380+152552474
3927+152556116+153452345+154583557+155272832+155591669+155950814+156230920
3917+155756992+154242398+152398096+151202677+150959968+151401042+152550165
3907+155065004+159354260+164379978+167876336+168379421+166193368+162405395
3897+158436197+155959872+156010364+158027095+159851843+159903866+159553695
3887+160818061+162980796+163846029+163708623+164216157+164390848+162480509
3878+160024038+159623741+161477908+164443077+167845528+170455533+170487336
3868+168754617+167753574+167694774+166779246+164519768+162460984+162160715
3858+164568862+170265654+177907741+181690626+177451873+170323064+165382598
3848+163501096+164107362+166441672+169646359+173055080+176325739+178784538
3838+179366304+178130962+176417618+174994706+173702330+172507784+171780051
3828+171512316+171559570+172889307+176715861+181551962+183512333+182291335
3818+181035680+179895409+176911541+173030149+171060822+172276264+176031777
3808+180099369+182329634+183657418+186199461+188772406+188360770+185740045
3798+183715373+182427145+180920915+179808111+180095351+181471854+183132875
3788+185041975+187390572+189731096+191811094+194332918+197659147+200767205
3778+202750217+204382045+207133999+211869379+218390570+225232964+230762142
3768+235122306+239495180+244196260+249328576+255784772+264138803+273404721
3758+282145607+290772479+301236979+314751394+329679840+341553959+348820888
3748+356002695+366820031+379216141+387323013+390756610+395201595+404595307
3738+419342322+436769275+452541683+464054893+471366278+475372779+477362513
3728+478767815+480203042+481790151+484064910+486961498+489148358+490450741
3718+493225261+499997497+511461294+526091273+539395288+546459684+548476114
3708+550822401+556606191+565717392+575854963+583748677+587784466+589116174
3698+589666287+591127723+594930340+601448715+609815644+618151708+623434986
3688+623651562+620387756+616344758+613089175+611268932+611112846+613374425
3678+619006522+626104635+629801179+630232792+631542835+633555698+634204148
3668+634701957+636215510+636451986+633699205+630452071+630744869+635730091
3658+642868080+648614998+652830566+658856614+667995976+676176443+677405007
3648+672587623+668022260+666536793+667481722+669371953+670726603+671007611
3638+670990414+671498211+672843774+675857286+681788789+690329414+698014550
3628+700873215+700070067+699314305+699868060+701191846+702774260+704701515
3618+707428537+711254809+715248169+716905679+714968813+711699826+709918257
3608+709945892+711063916+713118832+715296606+715690782+713949991+712910292
3598+715404443+720647844+725157862+727341718+729322966+732945053+736923393
3588+739087875+739247903+737875381+734926225+731471677+729115627+727514438
3578+725331408+723364804+723444330+725777852+729090094+731761320+732369820
3568+730668904+728662800+728952819+731802698+734947553+735616429+733399682
3558+731161457+731180906+732389120+732758215+732426968+732995142+735187859
3548+738330610+740934326+741370481+739016233+735352994+732996944+733064004
3538+734291517+734537831+732708201+729400840+726349705+725530036+727195206
3528+728959803+728405748+725907842+723819208+723494644+724268805+725005643
3518+725600250+726477968+727064465+726116533+723663609+721514223+721304556
3508+722941790+725342072+727526753+729039179+730188067+731509074+732716311
3498+733145858+733338103+734461684+735852830+735761889+734694180+734789551
3488+736237095+737190509+736508791+734646119+732814762+732290594+733486943
3478+735561159+737315618+737995534+737653773+737783313+739912124+742386975
3468+741520297+736664314+731221533+728520869+729246819+732131617+735246283
3458+737254340+738014458+737756504+736129407+733021500+729957824+729518289
3448+732860570+737994933+741332107+741142491+738678679+736149458+734558632
3438+733751204+733922873+735671625+738344203+740267552+741255435+742388703
3428+743020182+741190702+737112860+733138048+730192273+727279163+724702557
3418+724900284+729161585+735156544+738875354+738748593+736585538+735007854
3408+735247785+736813904+738309659+738695350+737826493+736165604+734695607
3398+734505615+735595252+736888174+737745090+738331812+738562806+737962642
3388+736476199+734948003+734789326+736361453+738003794+738139342+737438099
3378+737191410+737075612+736282452+735592549+736638856+739642681+742812392
3368+743772114+741352458+736587265+732770831+733617309+739339295+744887885
3358+745058352+741161565+738499200+739312410+741756473+743486976+743603224
3348+742538068+741801230+742668659+744130395+743662249+740768890+737729019
3338+736483333+736973107+738553269+740862760+742718973+742428278+740044743
3328+737865243+738007774+740244873+742475513+742930217+742063989+741859278
3318+742741802+742704405+740390558+737575674+737283552+740117661+743510556
3308+744418162+742145918+738415393+735414497+734241053+734994938+737245178
3298+739488660+739719579+737637628+735103451+733905901+733951710+734154843
3288+734735107+737330111+742410630+747918594+751202075+751493896+749845322
3278+747832910+746660442+746188166+744944732+742298062+739762984+738977559
3268+739530713+739705236+738850873+738011904+738260546+739388858+740192531
3258+739991500+739562103+740130727+741969819+744259485+745948610+746546597
3248+746066060+744639093+742512010+740307503+738764363+738163523+738340973
3238+739065571+740152205+741678673+743871240+746130042+746900372+745556611
3228+743603675+742957852+743741475+744493783+744138956+743042861+742034777
3218+741195058+740147474+738891499+737595574+735963747+733651102+730965157
3208+728578993+727153453+727513236+730020604+733585168+736408463+738021742
3198+739010526+738529088+734973761+729635514+726353910+726926664+729467074
3188+731682019+733416578+734859465+734826348+732599913+729655038+727817824
3178+726905638+725321270+722424682+719633603+718908329+720445762+722329911
3168+722584861+721111635+719289515+718248539+717933213+717575532+716765551
3158+715990564+716071067+717092442+718045481+717553379+715220684+712383797
3148+711010448+711714319+713301690+714246093+713651035+711494589+708871424
3138+706870201+705271866+703422936+701822499+701374178+701836466+702430097
3128+703130514+704320104+705803618+706818760+706668719+705178897+702864225
3118+700736991+699768934+700246617+701542842+702464791+701908108+699611608
3108+696456015+693844190+692783464+693348183+694543780+694916630+693833376
3098+692031006+690663064+690214518+690515952+691111986+691394120+690969905
3088+689982022+688868729+688222231+688716736+690317249+691836058+691987901
3078+690506715+687961274+685148417+682773067+681249377+680763659+681589560
3068+683904909+686860823+688211943+686022755+681166096+676825044+675240226
3058+675922995+676813554+676302754+674151640+671418084+669625251+669288597
3048+669411829+669008340+668469304+668609658+669232651+669627203+669757569
3038+669819974+669178657+667182691+664602631+662775028+661880865+661376673
3028+661405209+662341952+663461553+663505408+662420277+661157919+659893459
3018+657919346+655333278+653406474+652887413+652861205+651891796+650021915
3008+648784489+649027799+649627287+649189029+648180495+647703187+647176767
2998+645412020+643022852+641471602+640738369+639950015+639176154+638929090
2988+638808336+637829915+635704859+633425106+632493245+633389286+634881886
2978+634992652+632733926+628993601+625756229+624508703+625286543+627029776
2968+628373049+628218840+626606049+625098354+625236980+626597600+627316003
2958+626440951+624639820+622735921+620922061+619387933+618470414+617956460
2948+617177568+616071109+615351318+615164780+614429481+612382224+610136978
2938+609454096+610347396+611153660+610834879+610019866+609558516+609336196
2928+608847511+607924849+606634218+604903639+602452218+599284046+596146514
2918+593917525+592586831+591477068+590381648+589879934+590523053+591957342
2908+592975639+592693091+591507669+590333887+589443291+588759207+588363866
2898+587927223+586629608+584371858+582075134+580385257+579066353+577892796
2888+577159975+576914901+576496468+575436756+574250320+573658379+573550804
2878+573399862+573163273+572971629+572403118+570962371+568984653+567333150
2868+566441502+566032081+565543471+564718696+563875710+563466439+563265145
2858+562507130+561032702+559576561+558614398+557686892+556411355+555418704
2848+555420807+555880805+555556955+554163481+552561015+551396207+550403480
2838+549043874+547250778+545390622+543781624+542484647+541508704+540913159
2828+540477642+539635219+538119113+536421427+535324580+535088104+535208595
2818+534980755+534231751+533319978+532523401+531838716+531269905+530839832
2808+530400410+529783124+529010503+528131321+527043223+525613289+523835513
2798+521872026+519966437+518255608+516768001+515675886+515221708+515155248
2788+514637726+513149556+511255307+509996179+509674319+509658774+509272144
2778+508394952+507219819+505885520+504458703+503042024+501762883+500635510
2768+499542005+498509665+497841539+497634876+497378012+496491095+495082188
2758+493707751+492596711+491556862+490473570+489449942+488522961+487562751
2748+486414389+485024932+483533120+482243691+481368939+480749814+479946253
2738+478666999+477043056+475472581+474270038+473479281+472952973+472529396
2728+472097972+471529611+470662932+469471014+468159469+466875372+465437967
2718+463724134+462166276+461341651+461153048+460879700+460002546+458625254
2708+457156797+455956469+455218091+454856280+454480689+453672848+452369113
2698+450852069+449349556+447860898+446424206+445255305+444470105+443920405
2688+443412196+442907102+442460321+442048910+441496619+440603206+439347532
2678+437893343+436443622+435168461+434132555+433227878+432355905+431656577
2668+431313090+431226392+431168343+431106839+431082809+430922780+430324568
2658+429155217+427577796+425965005+424686051+423871752+423359487+422877336
2648+422269925+421531397+420647859+419544855+418305777+417260371+416604373
2638+416070556+415252314+414152313+413144492+412481023+412109787+411943188
2628+411985579+412087447+411892686+411274161+410539989+409971778+409477423
2618+408873016+408159119+407396223+406594840+405746447+404804861+403760656
2608+402776678+402027900+401452217+400892679+400391379+400083487+399869877
2598+399466876+398825034+398250740+397961622+397756987+397349706+396810632
2588+396418670+396222670+396015970+395651681+395167577+394646564+394117853
2578+393605588+393168419+392825570+392491394+392072248+391643452+391414448
2568+391409755+391333758+390949231+390410307+390008170+389823472+389794823
2558+389835074+389794335+389556169+389120990+388506483+387822099+387370474
2548+387291586+387307469+387172559+387011817+386928123+386773576+386542882
2538+386492493+386683499+386794866+386543896+386047402+385639144+385489441
2528+385531945+385640721+385703839+385582372+385176217+384561409+383987829
2518+383688498+383673817+383748086+383752141+383691652+383595867+383414887
2508+383135681+382869280+382734446+382716010+382679250+382485128+382095720
2498+381642105+381362674+381348143+381381147+381194122+380830021+380539213
2488+380410086+380316479+380116988+379739407+379207242+378686116+378378374
2478+378345107+378509190+378739321+378856958+378730310+378453807+378258897
2468+378218045+378243277+378306395+378349575+378098230+377372693+376489268
2458+375973699+375977191+376224031+376374335+376283131+376062838+375936302
2448+375937090+375860530+375572764+375182680+374872047+374736574+374757714
2438+374748252+374409383+373641830+372736703+372084159+371762825+371579367
2428+371422567+371365494+371457449+371615300+371737180+371790310+371767256
2418+371663248+371537200+371493345+371525260+371453206+371120345+370617842
2408+370242514+370233916+370545488+370878799+370975072+370810613+370472420
2398+370053273+369761302+369838199+370229110+370598956+370755718+370777195
2388+370699584+370367586+369595002+368252255+366232558+363524310+360309842
2378+356877747+353446853+350103145+346832393+343582405+340350815+337225110
2368+334370688+332031910+330401847+329399658+328860359+329072016+330755247
2358+334286806+339256221+345115182+351986393+360028008+368057795+373975668
2348+376496252+375994764+374057747+372048376+369948815+367039048+363120333
2338+358661718+354315334+350464768+347126280+344282709+342146689+340868900
2328+340131536+339389966+338576230+338227636+338740314+339858713+341148255
2318+342498662+343858156+344990185+345810905+346579696+347540432+348676366
2308+349908873+351229392+352554492+353692716+354523837+355078718+355441017
2298+355656804+355717219+355623762+355499029+355528316+355726981+355932668
2288+356075275+356240748+356453682+356609317+356604549+356399425+356030105
2278+355626766+355310426+355062836+354800865+354541484+354395761+354418590
2268+354521396+354565965+354538818+354548881+354614890+354580234+354335197
2258+354018030+353875724+353982810+354192778+354326035+354327649+354271628
2248+354267836+354354721+354484149+354607531+354704817+354744543+354734405
2238+354766809+354911293+355162450+355524937+355957487+356255166+356250360
2228+356096677+356120032+356447336+356927610+357341612+357633734+357954130
2218+358411575+358815476+358853325+358533342+358228304+358232396+358491589
2208+358855202+359373887+360143205+360994413+361590710+361804470+361844120
2198+362038167+362554375+363257232+363833516+364149406+364439838+365026673
2188+365904954+366738590+367247025+367487556+367742656+368208775+368833608
2178+369431144+369918402+370386735+370945109+371601144+372321048+373090516
2168+373907030+374796087+375808639+376996014+378467512+380361424+382645457
2158+385147681+387883565+391044339+394556824+397971084+400896209+403349771
2148+405631551+407977125+410392613+412787338+415142712+417481640+419811031
2138+422205155+424830347+427773645+430901265+433980899+436976914+440131493
2128+443618333+447204562+450461534+453220773+455538561+457250479+457921158
2118+457401684+456131742+454567951+452590608+449889794+446673523+443520221
2108+440723247+438115026+435353760+432216640+428784169+425385642+422263053
2098+419354638+416449000+413397940+410129666+406626305+403018374+399632612
2088+396817015+394683661+393030130+391487816+389780105+387936244+386237957
2078+384894083+383858852+383010685+382333397+381832735+381404127+380887694
2068+380234475+379575135+379081757+378760911+378450541+378020919+377523485
2058+377131186+376939579+376842856+376676144+376456339+376353683+376425212
2048+376494300+376350492+376049546+375914411+376160462+376677383+377309575
2038+378108368+379128654+380256140+381401611+382618010+383938003+385270124
2028+386429451+387182472+387392101+387164749+386731898+386202399+385505624
2018+384497090+383087770+381370146+379619367+378102397+376903759+375930932
2008+375039285+374165284+373362662+372673247+372012593+371286569+370542258
1998+369893545+369430355+369269575+369439592+369632513+369380792+368562212
1988+367458231+366415829+365699267+365430500+365448748+365424116+365197403
1978+364839159+364438937+364037776+363690159+363472682+363472531+363704577
1968+363934782+363772651+363137380+362418189+361997916+361852606+361744393
1958+361576592+361383822+361150087+360856726+360634255+360664856+360918755
1948+361181289+361421482+361856136+362418902+362509355+361720551+360492249
1938+359562866+359182243+359127837+359136473+359133244+359182469+359329431
1928+359596584+360133367+361029633+361935437+362432870+362761902+363309687
1918+363563097+362699948+361106006+360055418+360153455+360869492+361282706
1908+361003650+360392334+359965491+359794911+359610176+359322860+359218402
1898+359583930+360224946+360583565+360533364+360621564+361125192+361473186
1888+361118922+360352459+359712156+359340320+359169815+359144320+359198164
1878+359301833+359428670+359539924+359942849+361369591+364053471+366711330
1868+367279429+365355404+362643588+360742280+359963238+359836026+359824837
1858+359677499+359496519+359506544+359755035+360188675+360864836+361959730
1848+363773965+366449885+369053901+369585728+367501374+364826430+363458451
1838+363494722+363956072+364282588+365117539+367301432+370179134+371813890
1828+371575724+370715354+369885810+368652214+367227200+366569250+366932938
1818+367648636+368171753+368716008+369737984+371095300+371999864+371967048
1808+371512531+371558452+372618427+374708714+377404984+379757242+380819695
1798+380775238+381039763+382933487+386262062+388878018+388716675+386741848
1788+385513622+386139657+388044532+390374111+392798122+395009388+396574005
1778+397794009+399872843+403782847+409007512+413180238+414227972+412934075
1768+411209917+410154147+410606561+412990884+416221160+418481801+419685809
1758+420998894+422578605+424217079+426824361+431280986+436505389+439962678
1748+440702220+440211921+440206026+441399821+443657383+446174776+448071053
1738+449936541+453705552+459783229+464766199+465163267+462932739+461055874
1728+460224228+460622422+462451752+465351945+469259282+475212338+483870525
1718+493052917+497981030+497065501+493842172+491701196+491982316+495030297
1708+500580277+507299044+513310637+518573375+524927929+532555804+538435041
1698+540973085+541776270+541387425+540279352+540605191+543604511+548657507
1688+555363133+564826270+576815587+585741377+586911066+584798927+584871995
1678+588657340+595249834+602449327+608689322+614815736+621650902+627117863
1668+629024353+629810529+633322000+639971342+646848148+651534566+655177304
1658+660329840+668658320+680820656+694102669+700372853+699526976+700526348
1648+706204478+712572512+714499616+713099233+712596843+714829736+719967478
1638+727424924+734581461+736757733+733344637+729239760+727488755+727910417
1628+729387698+731109265+732402111+732005907+729255980+726049773+724748215
1618+724775700+722806618+717349570+711274709+707002670+704220978+701517911
1608+698073875+694335540+691287784+689328765+687988609+686548800+684802602
1598+683144040+681966991+681264997+680818479+680356340+679503855+678053007
1588+676346159+675009457+674315874+674028483+673913662+674391645+676361178
1578+679931374+683090797+683237309+681789540+682490483+686327193+690880316
1568+693440851+694724836+697134054+702076622+710560925+723725413+739526658
1558+749128384+750053112+750516452+754557122+761535157+770116409+779269889
1548+788214003+797109981+806837717+817511583+827856456+834827057+834589529
1538+829433614+825906223+825889101+827190958+827656326+828093908+830430283
1528+834783952+839921318+845355238+851833436+859032103+864359461+866282510
1518+866458684+866514405+866736988+867609449+870232990+875430733+882968381
1508+890517068+892809888+887771197+881650528+879291324+880936294+885066928
1498+889168050+890639099+889563654+889053304+891366250+895411576+897661065
1488+896378056+893995723+893171849+893939927+894923003+895293901+895592856
1478+897097397+900853605+906912320+913155544+915489141+912853810+909574910
1468+909190946+911207639+912828578+912307414+911312848+912673055+917196139
1458+922655516+924941427+923113299+919972875+917161370+915056740+913649448
1448+912198751+910233048+908719120+908626152+909649405+911414678+914324933
1438+918040740+920252081+919396216+917522730+916974607+917597901+918137388
1428+918424253+919284624+920782256+922206444+923701523+926006358+927999621
1418+927018196+923294354+919678951+917212135+914922094+912345338+910550402
1408+910579539+911744047+912050287+910559939+908785955+908727681+910494306
1398+912404288+912855162+911507195+908951992+906240740+904213308+902650793
1388+900388012+896910634+893712762+892835120+894802550+898578508+902643509
1378+906164142+909382665+912613054+915116591+915940015+915644664+915881065
1368+917760934+921246722+925419260+928859240+930319400+929854783+928947102
1358+929141825+930888624+933369108+935282544+936083214+936280340+936481145
1348+936746458+937093851+937990342+939880799+942547745+945198170+947042143
1338+947850998+948003217+947852725+947459975+947109128+947377220+948247503
1328+948818305+948505231+947982415+948425630+950098535+951827536+952255206
1318+951797348+952330827+954468499+956394702+956268541+954670431+953441341
1308+953286194+953727981+954346244+954946708+955273975+955402914+955711857
1298+956028385+955646224+954383791+952772465+951250877+949975904+949063642
1288+948219642+946564084+943568069+939759745+936087344+933063168+930636378
1278+928495702+926515281+924964106+923913292+922622699+920423899+918078588
1268+916896958+916661834+915801088+913468993+910132795+906266272+901940764
1258+897664294+894379386+892346398+890774796+889049775+887781034+887984994
1248+889573041+891216884+891594465+890512713+888949222+888211858+888939910
1238+890654493+892292854+893319487+894163411+895454230+897104531+898386639
1228+898904874+899265783+900375696+902132634+903427733+903672394+903762884
1218+905025317+907776971+911227990+914240000+916179345+917355342+918444229
1208+919697950+921278788+923733664+926979822+929498154+930085552+929832555
1198+930796257+933358519+936175581+938286369+939950263+941524943+942970383
1188+944550095+946896007+950190602+953908211+957361408+959996063+961280723
1178+961073459+960289011+960530218+962594521+965730214+968729007+971112993
1168+972901320+974269262+975726718+977598701+979338367+980317764+981091699
1158+982811164+985485244+987726698+988322356+987713931+987605493+989182126
1148+992137289+995301743+997859425+999563495+999849459+997947888+994552514
1138+992303475+993347905+997034124+1001074869+1004281452+1006704187+1008156837
1128+1008844187+1010618697+1014980025+1020048679+1022184173+1021074185
1120+1020241450+1021856756+1024499296+1026316235+1027420065+1028331576
1111+1028305443+1026649885+1024676071+1024933649+1028110720+1031497457
1103+1031962224+1030207840+1029780095+1032153117+1035138543+1036355543
1094+1036308533+1036837357+1038727814+1041466176+1043970164+1045535007
1085+1046485267+1047269265+1047302532+1046070513+1044929511+1046259379
1077+1050498301+1055378315+1058441391+1059606875+1060612780+1062247612
1068+1063192390+1061737337+1057978877+1054023140+1052211007+1052992678
1060+1054620300+1055634091+1057028391+1060091617+1063817411+1066437723
1051+1067588863+1067453165+1066047601+1064632198+1064919289+1066286555
1043+1066858784+1067176889+1069225873+1072373656+1073741823+1072275806
1034+1069743432+1068023066+1067417120+1067507385+1068081115+1068767038
1025+1068549261+1066678855+1063914134+1061875063+1061522264+1062914161
1017+1065569692+1068173032+1068834249+1066686815+1062921670+1060114221
1008+1059947583+1061330619+1061854712+1060717314+1059317006+1059142483
1000+1059860022+1059920699+1058679969+1057263966+1056885785+1057044612
991+1056424247+1054817426+1052799306+1050389713+1047610124+1045269844
983+1043757794+1042169146+1039371083+1035100170+1030067937+1025560698
974+1022566110+1020988351+1020001669+1019142125+1018208161+1016130265
965+1011676494+1005433870+999468574+995126695+992217866+990048129+988278651
955+986723420+984904154+982017553+977812123+973203430+969536135+967543022
945+966906437+966651412+965887089+964050400+960973808+957544641+955718992
935+956671354+959280702+961299798+961508714+960132061+958125956+956655058
925+956527246+957820092+960090458+962510114+964037108+964386228+964315187
915+963858831+961657929+957470897+953526575+951932220+952437088+953551431
905+954157904+953542946+951389504+948145898+944755707+942117297+941106886
895+942340481+945144176+947490689+947780258+946336545+944810376+944475225
885+945181799+945599406+944635929+942779190+941536057+941684146+942638386
875+943058996+941754135+938621446+934832872+931683286+929645642+928852782
865+929552899+931347534+932870323+933225900+933292585+934735548+937693039
855+940127714+939996371+937402944+933921136+930820212+928806673+928506892
845+929920717+931705665+932293889+931817482+932027449+934095207+937024688
835+938652010+937743803+934903236+932062895+931099268+932348108+934292634
825+935010998+934169026+933310308+934124795+937005238+941392474+946496348
815+950745784+951579270+948104371+943540059+942334549+945158670+948306378
805+947999838+944258423+939998474+937639195+937467376+938505874+940344890
795+943343609+946883841+949361546+950171753+950034253+949560925+948888069
785+948355265+948169328+947588464+945891303+944003324+943608997+944909202
776+946327083+946474045+945445009+943804546+941655084+939410175+938463369
766+939838370+942708750+945167756+946270986+946681384+947209156+947634047
756+947394191+946501304+945363080+944554375+944672576+945828222+947896506
746+951016954+954401214+955948033+955057699+953945909+954236829+954726002
736+953740748+951941081+951415261+952461944+952844406+950736697+947464781
726+946078892+947823213+951094603+953480466+953992844+953143662+951508230
716+949283973+947021792+945431793+944922043+945979915+948395667+950084342
706+948805764+945111960+941606271+939332601+937756945+937534512+939143886
696+939994494+937081760+931378849+926529699+924434006+924376783+924993168
686+924940676+922741951+918089327+913022926+910047337+909418561+910192421
676+911948908+912494928+907033149+893149921+875086570+863305945+865422590
666+874522227+880724599+881906154+879981077+877996601+878826933+882485516
656+885811802+886690195+886524459+886918862+886656102+883631250+877557742
646+870150685+864008014+861154906+861532712+862429203+860724683+856852828
636+854608069+855784893+857637051+857588539+857074735+856853428+853326938
626+844366003+834415307+828722534+826690221+824336123+820888634+819469326
616+821966631+826884343+831782680+834862727+834650807+830840455+825866046
606+823632703+825871904+830488332+834191823+836147763
##END=
