##TITLE=<SNM>
##JCAMP-DX=4.24
##DATA TYPE=INFRARED SPECTRUM
##DATE=2/5/2025
##SAMPLING PROCEDURE=Instrument type and / or accessory
##ORIGIN=Admin
##XUNITS=1/CM
##YUNITS=ABSORBANCE
##RESOLUTION=4
##FIRSTX=4497.3318
##LASTX=599.83466
##DELTAX=-1.4281778
##MAXY=1.8281912
##MINY=0.34238783
##XFACTOR=1
##YFACTOR=1.7026357e-09
##NPOINTS=2730
##FIRSTY=0.38906232
##XYDATA=(X++(Y..Y))
4497+228505907+229275507+229330679+228766274+228562759+228969141+229271656
4487+229195971+229347762+230134708+231090652+231310410+230227373+228272654
4477+226875933+227179289+228654338+229721692+229765942+229566995+229758590
4467+230036355+230049221+230156448+230893859+232181409+233390158+233929550
4457+233590662+232522450+230996185+229121668+227020058+225365124+225139187
4447+226469026+228186921+228949134+228554410+227965360+228204547+229387478
4437+230801562+231724651+231875008+231289826+230316256+229560624+229339168
4427+229345119+229163781+228759150+228141761+227011814+225215468+223376990
4417+222553882+223088828+224276660+225405120+226407186+227147257+227118254
4407+226481454+226363724+227396456+228781729+229335475+228756454+227517757
4397+226098649+224749101+223761826+223511121+224098403+225201815+226431253
4387+227600566+228456022+228446780+227226881+225252961+223431549+222299869
4377+221957008+222501598+223875634+225306837+225655632+224647107+223237101
4367+222546425+222882583+223851689+224825452+225131538+224467520+223422815
4357+223006018+223406362+223746422+223291030+222388297+221930087+222243927
4347+222783792+222736655+221740680+220188037+219076434+219297540+220780361
4337+222548526+223688135+223877752+223095637+221562738+219973163+219142632
4327+219282749+219913178+220517578+220969102+221235910+221118636+220608982
4317+220022488+219492233+218928405+218542520+218592335+218747365+218624490
4307+218553810+219028684+219951318+220881216+221420609+221281647+220590148
4297+219872762+219421535+219221136+219456525+220278794+221163183+221291607
4287+220511925+219462476+218945541+219388173+220537970+221476515+221317600
4277+220080985+218637110+217863781+218038380+218860246+219880621+220939749
4267+222019303+222713690+222477969+221567797+221001659+221326807+221983806
4257+222124850+221753790+221691057+222406659+223363828+223936039+224364791
4247+224993014+225291451+224711661+223740856+223118234+222798968+222509265
4237+222514761+223147273+224057164+224449228+223887239+222642975+221451240
4227+221067035+221818624+223249354+224288125+224185449+223278427+222540439
4217+222464001+222776511+223087655+223288457+223342683+223101396+222377078
4207+221249546+220422569+220823700+222474293+224213244+224977908+224861824
4197+224513747+224175384+223729286+223179427+222818589+223008101+223584006
4187+223656489+222609368+221030523+219963343+219697200+219941481+220543729
4177+221394336+222228927+222984349+223811746+224582291+224927603+224784896
4167+224471791+224290961+224313365+224420260+224444187+224365579+224344977
4157+224443330+224382907+223788816+222700527+221677072+221267434+221508985
4147+222073827+222641505+222987815+223025745+222900226+222843812+222927602
4137+223085607+223217007+223185868+222965865+222836601+223221418+224228473
4127+225448721+226216308+226016434+224822634+223231990+222092276+221785542
4117+222008398+222299729+222474205+222522778+222472910+222409039+222360239
4107+222183732+221803081+221529096+221874443+222956080+224222294+224886172
4097+224574712+223525544+222351295+221661634+221618172+221858375+222108467
4087+222565784+223308376+223860459+223857290+223625525+223656279+223935024
4077+224111986+224067001+224026165+224116134+224032519+223415796+222495542
4067+222001414+222348127+223123240+223505870+223195355+222690393+222529709
4057+222653338+222730336+222703205+222722949+222910869+223356056+223971974
4047+224340478+224117692+223527644+223080636+223001817+223232533+223636377
4037+223886224+223526944+222567762+221792386+222050967+223290137+224618821
4027+225317864+225428155+225321487+225201080+225208641+225472456+225759884
4017+225611768+225002519+224353274+223868440+223398485+222948536+222795817
4007+223086483+223723335+224634417+225786121+226860250+227302077+226971818
3997+226408113+226134199+226073566+226003884+226136474+226760497+227659659
3987+228327247+228560693+228568115+228634384+228804222+228829952+228461588
3977+227812045+227311109+227237523+227410232+227404298+227001399+226410371
3967+226136492+226587298+227692058+228949572+229881903+230341461+230437136
3957+230398173+230430187+230528505+230658190+231132871+232198475+233227269
3947+233347011+232906287+233045126+233936289+234564705+234234866+233282580
3937+232396476+232216241+233228967+235161404+236659435+236506576+235153790
3927+234124400+234217905+234936237+235549827+236231489+237543982+239171978
3917+239892655+238936099+236900110+235044707+234144057+234137143+234690398
3907+235968514+238496040+242108686+245388746+246715416+245610972+242816113
3897+239832740+238257412+238839776+240832548+242218136+241757528+240811841
3887+241229601+242645435+243372606+243452545+244094106+244640482+243574878
3878+241762131+241367512+242964316+245752261+249046464+251887094+252798246
3868+252035035+251448418+251476459+250795742+248742811+246450184+245437721
3858+246735125+251035735+257780622+262586702+260605815+254477738+248872705
3848+245696600+245268986+247130428+250293108+253872025+257489800+260546688
3838+261764819+260739858+258697201+256648995+254665290+252955534+252165910
3828+252376986+253155513+254924063+258544236+262643641+263678719+261559011
3818+259970958+260084032+259851303+258286233+256760685+256716611+258635395
3808+261712763+264232552+265967180+268298437+270940419+271651505+270284243
3798+268715567+267471898+266402058+266173968+267203199+268947052+271153333
3788+274448796+279001090+283748848+287957773+292529129+298456806+304909208
3778+310405351+315330946+321466426+330110669+341474802+354443214+366891663
3768+377754072+387642613+396678517+404318926+410954941+417080270+421690204
3758+423665770+424252702+426160563+431031896+438085583+444364104+448295317
3748+452300849+459186887+468323121+475455015+479513479+484686994+494176873
3738+508008494+523423215+535738916+541480145+542154735+542814903+547296185
3728+555649202+564238588+568555721+567738826+564781551+562556978+561824906
3718+562076783+562821913+564148969+565949079+566597273+564475237+560884120
3708+558087494+556571258+555777468+554961764+553725412+553048476+554456714
3698+557966719+562238307+566174910+569778805+573676656+577773312+580348903
3688+579986053+577973239+576354888+576135532+577579547+580480005+584517675
3678+589123793+592185810+591434623+588810478+587575911+586746834+583037357
3668+576871770+571573033+568603190+567326965+566860843+567100048+567907666
3658+567800999+564964814+560472610+557750023+558744405+562132375+563571629
3648+560270408+554873440+550848583+548693500+547178385+545450076+543647516
3638+542440885+542439520+543537768+544869025+546015793+547522227+549288449
3628+549634566+548003017+546188904+546017964+548206514+551939025+554990645
3618+556250242+557364033+559723489+562389083+564201095+566047589+569169223
3608+572557263+574027989+573065568+571180601+570358736+571758117+575124592
3598+579316748+583478659+587064595+589348610+590316561+591422861+594013610
3588+596983347+597605147+595569683+593370036+593073174+594720757+596648678
3578+597230849+596750689+596877485+598442451+600951212+603857657+606690376
3568+608238608+607591953+605785858+604323324+603396751+602560637+601659270
3558+600771415+600220681+600664713+602299903+604292167+605762473+606586124
3548+606520311+605063098+603042827+602222327+602627851+602296822+600066158
3538+597327959+595970937+595479225+593967260+591668472+590999903+593144589
3528+596535464+598699544+598224215+595204627+591213307+588582230+588657986
3518+590594379+592101512+591583334+589468125+587397094+586420461+586190253
3508+585629681+584195748+582550581+581797294+582071716+582518269+582589124
3498+582253334+581360543+580051341+578925332+577968303+576430433+574363393
3488+572866377+572649717+573412421+574300170+574212792+572620031+570368082
3478+568571019+567110935+565140865+562714406+561099485+561468602+563607617
3468+565900803+566535696+564930752+562351170+560778013+560704708+560570595
3458+559001219+556658566+555053763+554633150+554583370+553807609+552038306
3448+550438823+550494170+552018702+553295417+553112364+551782087+550376965
3438+549681336+549769309+550085985+550018631+549214233+547312323+544323331
3428+541250427+539304863+538797047+539315540+540136426+540313387+539506540
3418+538547865+538131104+537694913+536571004+535217273+534531795+534812483
3408+535668096+536286395+535979311+534893175+533817296+533152613+532606045
3398+531933975+531336646+530843218+529881288+528258175+526940186+526648086
3388+526558957+525822124+525269149+526013089+527508179+528416653+528377620
3378+527866374+527229662+526511487+525593351+524348282+523144697+522812443
3368+523610819+524732907+525229591+525094673+525006769+525291588+525604589
3358+525479788+524869576+524113313+523614250+523693716+524528325+525858426
3348+526986291+527476603+527482589+527092993+526027336+524400268+523083644
3338+522892505+523604413+524170690+524098155+523934286+523998980+523726378
3328+522718378+521280944+519601155+517602695+515704600+514662398+514823782
3318+516085234+518031709+519777382+520320135+519482375+518064791+516916272
3308+516339177+516321113+516752963+517338250+517692873+517753051+517909778
3298+518439684+518930626+518793397+518171178+517548258+516827073+515876591
3288+515552668+516840481+519280839+521401755+522321396+522095739+521215096
3278+520318069+519686643+519092429+518619656+518830470+519568913+519769820
3268+519027806+518192147+518017531+518250959+518213782+517675055+516920053
3258+516156089+515274570+514344392+513882331+514142435+514448924+513904700
3248+512639082+511606228+511192546+510921555+510553349+510357763+510113832
3238+509059308+507098200+505128130+504070035+504072591+504511757+504522049
3228+503709425+502441602+501422470+501061580+501249464+501656808+502158288
3218+502809493+503435423+503592256+503004519+501753674+500166619+498827765
3208+498287008+498233131+497559836+495954858+494610193+494453220+494647091
3198+493941729+492629096+491821303+491601037+491188967+490285884+489255620
3188+488473067+488088407+487984225+487694505+486800314+485522163+484515214
3178+483996161+483409194+482122326+480233683+478491546+477623751+477859630
3168+478709116+479054743+478016882+475930133+473921556+472533447+471384543
3158+470123301+468958644+468170945+467694181+467298318+466769813+465849542
3148+464447115+462928815+461713852+460716004+459726804+459044372+459056799
3138+459557789+460025381+460112444+459533494+458072360+455995658+454044982
3128+452826449+452322274+452013930+451511295+451023434+451020073+451548543
3118+452130504+452132079+451264599+449998841+449180826+449013841+448889635
3108+448286915+447263722+446185498+445550046+445718991+446301652+446268220
3098+445045381+443134368+441454824+440462018+440047671+439929872+439870394
3088+439688287+439341014+439008410+438898837+438990136+439116443+439150855
3078+438970182+438503710+437922169+437420445+436766334+435532117+433848932
3068+432465970+431950032+432108825+432251725+431920486+431321442+430901179
3058+430568645+429807622+428627316+427767153+427736696+428156819+428282565
3048+427925455+427580389+427645887+427873750+427739462+427006899+425738586
3038+424144074+422594617+421451034+420795278+420410093+419974672+419415536
3028+419072219+419177206+419277467+418712660+417534034+416389716+415687365
3018+415288422+414895956+414527819+414430149+414423288+413824838+412443171
3008+411017569+410211037+409858688+409527344+409096615+408548856+407812268
2998+406988056+406331180+405927686+405579293+405018792+404206168+403424945
2988+402977972+402731136+402185968+401169811+400180121+399806873+400054199
2978+400438684+400556694+400365099+400028539+399663518+399237059+398629263
2968+397734302+396578607+395427007+394617499+394157678+393676678+392895806
2958+391947319+391132559+390566841+390177455+389945882+389991042+390316399
2948+390581509+390301521+389323418+388028183+386980871+386412843+386134150
2938+385936148+385820974+385730516+385386149+384623620+383681575+382993647
2928+382751046+382665453+382183263+381068386+379701562+378613676+377879853
2918+377258404+376728849+376499096+376537954+376489714+376138136+375655631
2908+375284938+375034181+374791511+374486142+374012809+373270164+372443363
2898+371972550+371995479+372039869+371566780+370648259+369793802+369311401
2888+369157299+369173297+369119666+368661631+367720145+366790422+366528182
2878+366938503+367338601+367249472+366856516+366417804+365855342+365173541
2868+364629598+364271298+363838363+363198780+362495554+361884642+361340874
2858+360719354+360009897+359508173+359514439+359888947+360205658+360246861
2848+360042384+359618901+359016880+358385524+357827088+357234695+356390809
2838+355196431+353810598+352613594+352006848+352135814+352726737+353242955
2828+353289409+352893022+352395218+352084109+351910928+351578779+350934540
2818+350137844+349358897+348559086+347729168+347029477+346513995+346034186
2808+345524690+345062418+344621432+344122823+343664613+343339465+342956976
2798+342315747+341620958+341290384+341427473+341702070+341699899+341272390
2788+340568954+339828550+339224429+338851917+338692494+338587997+338395422
2778+338117744+337763856+337247813+336570527+335898703+335317827+334692912
2768+333893591+333033707+332392269+332117251+332028578+331758952+331145589
2758+330423424+329936053+329720513+329498532+329027719+328329359+327606073
2748+327069377+326816029+326736037+326545458+326025740+325262371+324571152
2738+324168358+323958875+323662398+323109983+322401961+321787058+321382339
2728+321048895+320624081+320190446+319937554+319845834+319724604+319478783
2718+319146529+318773386+318379835+317958032+317465199+316915655+316416731
2708+316006446+315565249+314999042+314406858+313957505+313638694+313241536
2698+312643227+312008685+311587092+311378869+311169770+310845288+310471760
2688+310099703+309720714+309402008+309240799+309188008+309096674+308894052
2678+308566839+308085034+307472476+306846651+306332149+306017539+305921304
2668+305889972+305669041+305191227+304666433+304345661+304317165+304479879
2658+304575204+304327947+303696031+302933922+302342930+302024853+301894626
2648+301805953+301607952+301199067+300633419+300124308+299861509+299831892
2638+299824856+299599374+299080986+298432896+297900541+297556839+297286408
2628+297057040+297021403+297207117+297322886+297109096+296691844+296342682
2618+296090174+295801084+295442540+295076363+294753421+294498533+294282958
2608+294028000+293709959+293393353+293145747+293013472+293020981+293079443
2598+292990805+292665570+292242629+291886745+291560407+291121153+290586522
2588+290154200+289959717+289942458+289969046+289965406+289883821+289662260
2578+289317421+289013960+288922434+289013295+289092884+289025600+288790649
2568+288380188+287839746+287340105+287009321+286789195+286601609+286480378
2558+286444058+286458201+286543024+286672586+286629859+286232177+285618044
2548+285100671+284837714+284770640+284775909+284790647+284838589+284941231
2538+285004769+284871899+284515210+284101774+283817952+283689615+283632729
2528+283632361+283778446+284113116+284496008+284654696+284416402+283910424
2518+283465709+283289255+283328270+283418169+283444635+283386312+283286979
2508+283166502+282993513+282797000+282678325+282640657+282575999+282450638
2498+282319448+282176583+281987562+281834440+281842771+281968132+282008583
2488+281858560+281627827+281461910+281369666+281276056+281119679+280870654
2478+280556639+280267916+280085336+280048316+280175042+280415105+280613368
2468+280619792+280436581+280222757+280127135+280105500+279983535+279728104
2458+279514700+279485836+279580251+279621052+279481145+279173361+278809496
2448+278465549+278162141+277988522+278084162+278439259+278840267+279055544
2438+279010175+278793690+278569223+278465567+278487604+278515977+278447345
2428+278328128+278275232+278318168+278422438+278560174+278645189+278542233
2418+278250272+277951450+277841789+278013448+278437806+278936870+279261230
2408+279315281+279242798+279221899+279268424+279308419+279344284+279443565
2398+279627318+279848144+280037586+280155718+280231561+280308542+280302906
2388+280012346+279294994+278086963+276213233+273357392+269277626+263965866
2378+257627203+250636494+243475353+236534669+229944881+223699303+217885871
2368+212666058+208164052+204551686+202103994+201092826+201763741+204337091
2358+208849722+215149510+223361850+234062298+246942719+259343277+267468800
2348+269091002+265021248+258826605+254292690+252330794+251480170+250556678
2338+249430091+248265766+247013906+245624239+244455084+244073067+244562994
2328+245383687+245971109+246245531+246619759+247679534+249730611+252534729
2318+255464016+257913493+259694173+261126146+262683165+264542244+266552624
2308+268520944+270329770+271831389+272834138+273298965+273483050+273764894
2298+274319304+275039247+275727140+276252511+276587549+276807762+277023704
2288+277265184+277480392+277623536+277667576+277569065+277294118+276878091
2278+276439520+276105323+275879229+275631097+275288078+274968007+274828923
2268+274855931+274895332+274864840+274848772+274959815+275140243+275179923
2258+274978982+274705680+274600185+274695983+274836099+274898972+274899953
2248+274898937+274898115+274850032+274735541+274609462+274554606+274594444
2238+274680649+274764772+274839495+274921377+275050676+275280622+275573755
2228+275737624+275580547+275141555+274695948+274528350+274707395+275039947
2218+275247645+275216366+275049994+274899620+274834699+274866801+274960393
2208+274996923+274849262+274541583+274271887+274228758+274405930+274631832
2198+274764895+274801372+274800899+274799937+274815287+274859414+274929814
2188+275006130+275046511+274994525+274836152+274639026+274498209+274460751
2178+274510654+274598592+274685463+274756948+274786512+274730920+274606854
2168+274513280+274533741+274673175+274882431+275083408+275218904+275338226
2158+275548567+275831689+276011294+275957085+275742683+275555674+275504686
2148+275563201+275674314+275833632+276041768+276242447+276362697+276388497
2138+276371396+276386799+276499365+276736960+277064295+277371379+277513089
2128+277408662+277132839+276893792+276876219+277079506+277337615+277522103
2118+277667033+277858803+278084302+278258919+278355451+278448238+278640796
2108+278952185+279267286+279430070+279414649+279373900+279492348+279819386
2098+280260740+280676136+280956335+281078107+281124107+281187208+281258745
2088+281291284+281317382+281390407+281489740+281592592+281739605+281939602
2078+282128063+282283741+282456852+282640360+282744559+282750318+282790121
2068+283009862+283385945+283736420+283912122+283933144+283931393+284025353
2058+284260602+284582389+284836034+284896299+284832026+284840060+284998993
2048+285213097+285402942+285599018+285822014+286001671+286061604+286013889
2038+285951331+285971845+286097434+286260638+286399266+286553211+286814295
2028+287181119+287535498+287782002+287940374+288082872+288252919+288443692
2018+288573884+288529442+288330373+288180034+288249016+288502224+288816484
2008+289164912+289581761+290011055+290318121+290477457+290638508+290919144
1998+291256509+291603344+292104840+292839993+293530582+293803044+293659041
1988+293417683+293323339+293419346+293637669+293848378+293945593+293966563
1978+294031571+294174226+294324862+294422217+294497973+294695449+295122958
1968+295604833+295773848+295562965+295335697+295404417+295727674+296121716
1958+296463492+296666359+296712394+296708893+296766060+296883264+297033936
1948+297301881+297883597+298858620+299862489+300217603+299698445+298880254
1938+298434367+298467764+298657468+298705813+298599426+298549996+298706408
1928+299033131+299542802+300324865+301212194+301898827+302477533+303189056
1918+303679718+303351839+302433808+301824017+302029824+302774254+303397139
1908+303481156+303152788+302787207+302570372+302491430+302573978+302920235
1898+303600951+304510160+305326600+305868373+306409340+307185837+307794368
1888+307703489+307131610+306720835+306722900+306960005+307210097+307381527
1878+307526598+307788067+308297038+309221790+310826279+313108333+315252774
1868+315971684+314973416+313364972+312273725+311962195+312131350+312454397
1858+312755460+312997815+313267721+313695650+314378047+315347224+316603810
1848+318266726+320455801+322595796+323308124+322167972+320592820+319926841
1838+320180854+320624571+320920313+321612267+323398548+325925374+327761471
1828+328190905+327952435+327572886+326759177+325615279+324932077+325140370
1818+325881265+326591562+327171318+327955796+329099344+330211385+330798667
1808+330899383+331015572+331677350+333153992+335176117+336887168+337537499
1798+337398660+337649242+339322520+342235756+344503877+344174529+341997846
1788+340350158+340356530+341482049+342842852+344176839+345427859+346309868
1778+346909928+348076510+350666909+354402361+357388237+357838780+356329722
1768+354417834+352950539+352598191+353833737+355908409+357302469+357785114
1758+358218854+358741513+359274919+360713193+363868609+367811269+370322762
1748+370493562+369497570+368774635+368996861+370161553+371666481+372688553
1738+373533769+375805007+380048624+383542386+383102414+380149550+377385270
1728+375611836+374942602+375368326+376480717+378191418+381363603+386690975
1718+392789139+396081468+394926613+391670691+388998305+388088606+389168196
1708+391886336+395186577+397893270+400375251+404230778+409489607+413435102
1698+414460395+413758954+411795921+409064653+407495032+408172808+410520396
1688+414023014+419308939+426073780+430415383+429348361+426018574+424133607
1678+424870440+427746848+431119555+433623520+435813926+438480115+440384651
1668+439972336+438640799+438867786+440989577+443182118+443949163+444198380
1658+445933165+450552061+458390926+466852431+469678253+467471604+466966484
1648+469691976+472249153+471262123+468368491+466821379+467745571+471200335
1638+477000761+483495207+486716331+485106067+482453005+481974490+483767248
1628+486488819+489333756+492448038+495401498+496982706+497503370+498978401
1618+502298597+505578604+506394309+505729765+506008703+507832478+510200090
1608+512040213+513290708+514559197+516134664+517723540+519052626+520351151
1598+522021944+524079811+526155778+527961734+529536606+531032887+532510265
1588+533995168+535485953+536815355+537745253+538382701+539447062+541880558
1578+545844923+549679235+551015568+550680128+551547119+554189328+556560371
1568+557113311+557092902+558126457+560688570+565480646+573716879+583846235
1558+588646784+586007935+582147227+580113269+579830725+580902088+582978475
1548+585964736+590424033+596954851+605344066+614738270+623150589+626665810
1538+625114427+623799484+625741128+629929399+633807995+636830944+640885907
1528+647247290+655214177+663299038+670977675+678075121+683661233+687714796
1518+691657176+695870232+699498806+702473935+705950998+711238288+719097772
1508+728485814+734363047+732521664+727824457+725833943+727347868+731002208
1498+734784534+736789611+736892463+737300437+740066643+744906749+749191850
1488+750576108+749601996+748215007+747680026+748331161+749808749+751687659
1478+754235769+758171778+763394794+767823215+768575241+766143636+764352733
1468+765329646+768313947+771317992+773008913+774171855+776659892+781097275
1458+785404151+785570646+781276583+776389356+773059394+771548620+771610722
1448+772339294+772458599+771523344+770122493+769093489+769216575+770958817
1438+773631203+775074903+774029305+772315279+771928729+772524833+772499977
1428+771413561+770578148+771061318+772471762+774041558+775695022+776959975
1418+776290846+773500345+770543491+768888626+768443334+768370309+768187921
1408+768198353+768764911+769440061+769601865+769756107+770888172+772910053
1398+774811648+775927260+776182183+775827419+775767557+776965296+779007131
1388+780031304+778898048+777286313+777929116+781591858+786965686+792331111
1378+796847821+800802873+804848455+808909299+812268668+814734510+816722994
1368+818584401+820712774+823490391+826433103+828240109+828322936+827437112
1358+826407968+825255878+823741533+822241822+821631715+822206044+823281328
1348+824073543+824385877+824397570+824533818+825395487+827075137+828794204
1338+829810256+830327943+830947502+831724944+832240671+832352414+832597605
1328+833719869+835931979+838843114+841947280+844931230+847672930+850187293
1318+852467457+854411342+856102543+857918161+860057876+862271036+864254478
1308+866044401+867971481+870501248+873852775+877384099+879990181+881454465
1298+882510285+883376575+883432447+882518197+881246312+879815635+877771980
1288+875190123+872955188+871497135+870149074+868213592+866026127+864366152
1278+863327766+862363175+861142471+859911615+859043645+858596882+858502992
1268+858988753+860338004+862149631+863351571+863270984+862479329+862383269
1258+863915818+866611729+868939783+869804113+869817485+870615371+872802486
1248+875172269+876348303+876625631+877373667+879112618+881152633+882761637
1238+883840842+884835678+886559717+889461120+892649723+894527444+894713473
1228+894434745+894971756+896607857+899030921+902030204+905540034+909132131
1218+911842115+912986503+913102797+913581906+915344453+918121791+920866851
1208+922883551+924671303+927156960+930190620+932720106+934418520+936104050
1198+938521653+941746314+945453304+948725505+950309934+950167175+949815282
1188+950462076+951904656+953512610+955259054+957469693+960139489+962745640
1178+964876604+966854795+969041280+970886233+971667736+971818687+972453649
1168+973961623+975810918+977249437+977921436+978394175+979765830+982310299
1158+985183767+987371372+988388123+988343454+987997022+988401356+989752497
1148+991124012+991834940+992346536+993318058+994645884+996006267+997509900
1138+999614608+1002876656+1007483404+1012516821+1016159468+1017169008
1130+1015792802+1013557307+1012612881+1014238199+1017515440+1020246008
1121+1021457610+1021899402+1022347075+1023030907+1024124815+1025583288
1113+1027009975+1027954261+1028248322+1028552325+1029586511+1030517634
1104+1029539461+1026791109+1025241407+1027042672+1030602212+1032813132
1095+1033222367+1033925943+1036390385+1040033663+1043078176+1044026664
1087+1042975465+1042660399+1046317260+1052941547+1057126388+1055843161
1078+1052361547+1050945712+1052012034+1053769960+1054930521+1055037643
1070+1054142577+1053041038+1053045869+1055093655+1059066141+1063593913
1061+1066876825+1067977734+1067105073+1065749381+1065813234+1066721533
1053+1065354569+1061381733+1059435468+1062796587+1068308413+1070960565
1044+1071080290+1072052162+1073741823+1072934275+1068671929+1063865569
1035+1062465698+1065884439+1071143303+1073116593+1070234444+1066567011
1027+1066330572+1068865379+1070107367+1068023874+1064916278+1063806547
1018+1065039643+1067240761+1069323064+1069610754+1066487054+1062120316
1010+1060485616+1062220157+1064672767+1065813864+1065669984+1064566975
1001+1062499445+1059712586+1056827005+1054822559+1054772918+1057117986
993+1060676546+1062927164+1062203844+1059302300+1055917306+1052289642
984+1048101791+1044095908+1041239314+1039472496+1038266986+1037603878
975+1037436963+1036472513+1033417707+1029826590+1029255062+1032936847
967+1037728714+1038988976+1035273653+1029362254+1024362934+1020412573
958+1016281714+1011880178+1007862463+1004586902+1002183722+1000499452+998738375
948+996103307+992954193+990098929+987495367+984927373+982843670+981529147
938+980752265+980308583+979767790+978180420+974986916+970959469+967622225
928+965901617+965754726+966887002+969041420+971421495+972835299+973060746
918+973233962+974044520+974455296+973368950+971605983+970782752+970988525
908+971019541+970298181+969377980+968869674+968610620+967867626+966049488
898+963336703+960801616+959549126+959618650+960111413+960149851+959527701
888+958812923+958842749+959708969+960405124+959792216+957716705+955234899
878+953902031+954167387+954898479+955001470+954635154+954390593+954144632
868+953388195+951777510+949295773+947066790+947312121+950698725+954439043
858+955159353+953162258+951050688+949530602+947527696+945093430+943771415
848+944238202+945205313+945092169+944055254+943424703+943597989+944163846
838+945199922+947213821+950002220+951825259+950844986+947679767+944930366
828+943971236+943806842+943214449+942710134+943770154+946810817+950616948
818+953502598+954481962+953469271+951210532+949278410+949272319+951598692
808+955362955+959332921+962513052+964355625+965275407+966243078+967286085
798+967351478+965964840+963638326+960700095+957340446+954458577+953088812
788+953338484+954681223+956975671+960027465+962243146+961772088+959413648
778+957838530+958000614+958881257+960094679+961628768+961851905+959351755
768+956103849+955910259+960056031+965676030+968601098+967544508+964645346
758+962284735+961065081+960828152+961742542+963758401+966134205+967923707
748+968511129+967886320+966800534+965725110+963917194+960943396+958313229
738+958310218+961883201+967945902+973747308+976125213+974212065+970932373
728+970475038+974143311+979446143+983447126+985381068+985203581+982466782
718+977868785+973811092+971638750+969331630+964411777+958733036+956839842
708+959403145+962057957+961644381+959706869+958024279+955084857+949354796
698+943108517+940063093+940253393+940103982+937954885+936018002+936386489
688+938776996+941738332+943027440+940155583+933418012+926323366+921604525
678+919226830+917866237+916725420+915671841+913164340+905440403+891897697
668+882454273+888522575+901838294+907340949+903680587+898732448+898796092
658+903566464+907737441+906505605+901116724+896882804+895667561+894282673
648+890215387+885451667+883313142+884225502+886302624+888176283+890038530
638+892488690+894955723+896382970+896670590+894940390+889378713+880867883
628+872834273+868316233+868294879+870629094+871147272+867678821+862771220
618+860557640+861575511+863291008+865111947+869224602+875062906+876758099
608+870509929+860586206+852836434+848133906+845098075+844180044+847497194
##END=
