##TITLE=<SNM>
##JCAMP-DX=4.24
##DATA TYPE=INFRARED SPECTRUM
##DATE=3/5/2025
##SAMPLING PROCEDURE=Instrument type and / or accessory
##ORIGIN=Admin
##XUNITS=1/CM
##YUNITS=ABSORBANCE
##RESOLUTION=4
##FIRSTX=4497.3318
##LASTX=599.83466
##DELTAX=-1.4281778
##MAXY=1.7236782
##MINY=0.17715456
##XFACTOR=1
##YFACTOR=1.6053004e-09
##NPOINTS=2730
##FIRSTY=0.20329635
##XYDATA=(X++(Y..Y))
4497+126640685+126819150+127016402+127030196+126869173+126524283+126002459
4487+125461978+125180450+125366257+125911714+126415269+126544184+126284823
4477+125854060+125487059+125268726+125128050+124997705+124870935+124727604
4467+124517523+124158217+123607042+123154893+123412361+124633749+126304650
4457+127662166+128291081+128093309+127142171+125820504+124747292+124274118
4447+124214645+124250912+124300972+124222609+123656369+122625439+121758131
4437+121520704+121815552+122392950+122957102+123049388+122539715+121938062
4427+121727230+121803894+121752877+121259300+120276323+119106963+118254665
4417+118059807+118461933+119062556+119478671+119652829+119651325+119314835
4407+118449671+117193808+115902300+114865949+114282648+114255645+114738343
4397+115586083+116550820+117176181+117028339+116241185+115540033+115484580
4387+115855136+115995422+115608361+114961967+114451227+114192375+113952498
4377+113435928+112694045+112098639+111897525+112038340+112328455+112526849
4367+112532353+112614030+113063756+113656572+113894371+113644988+113157250
4357+112695317+112448987+112512238+112754780+112927638+112966077+113060842
4347+113422199+114001500+114451793+114442492+114054642+113719044+113682963
4337+113698576+113309900+112340958+111131340+110356012+110446665+111131776
4327+111778236+112135713+112345376+112370393+112066447+111689375+111678681
4317+112093125+112717641+113385710+113822914+113670440+113078868+112775201
4307+113174032+113874794+114311637+114461642+114662004+115086974+115612808
4297+115947970+115835067+115332644+114876698+114893017+115370368+115919751
4287+116185211+116063620+115568410+114761781+113934536+113535297+113672278
4277+113932967+113942398+113887177+114254902+115158263+116093584+116463454
4267+116211824+115715899+115257456+114965448+115039550+115565616+116231076
4257+116608632+116714016+116985472+117633630+118269220+118428981+118205886
4247+117926762+117543284+116941148+116479206+116604362+117249642+118010341
4237+118526224+118523003+117942226+117166880+116807991+117141594+117893753
4227+118619132+119125389+119399157+119382541+119202619+119294785+119778634
4217+120094052+119841959+119450610+119419922+119507242+119222363+118612811
4207+118148780+118238309+119016793+120252254+121403633+122010150+122011719
4197+121670616+121330218+121226533+121357722+121498825+121403308+121022662
4187+120589254+120445134+120647204+120839964+120769900+120786627+121429299
4177+122609677+123657715+124108361+124038315+123770525+123635177+123849268
4167+124318739+124696461+124749826+124498875+124071760+123658384+123447374
4157+123427547+123465596+123627538+124080792+124660798+124908779+124598253
4147+123939912+123256926+122755960+122599838+122833469+123194631+123332160
4137+123214635+123057974+123007561+123155348+123606225+124269189+124811258
4127+124973673+124772327+124379975+123966153+123616492+123317058+123053807
4117+122888597+122882025+123039447+123371546+123879594+124444126+124855331
4107+125052129+125234139+125660604+126407426+127270037+127820924+127722455
4097+127084053+126363148+125928051+125892629+126154617+126342977+126103703
4087+125678538+125704278+126246922+126604715+126260475+125519798+125009819
4077+124955479+125138623+125281174+125267213+125128198+124990539+125004927
4067+125255071+125719678+126226705+126468894+126268699+125827772+125523678
4057+125506366+125642847+125741984+125734613+125746012+125982502+126482382
4047+127110703+127725481+128079775+127779236+126738272+125477981+124679790
4037+124624522+125158014+125958637+126781249+127560114+128233595+128558027
4027+128366306+127935302+127778410+128073658+128525139+128783934+128801998
4017+128761146+128798805+128851845+128707344+128210157+127469016+126821313
4007+126569052+126792453+127370287+128048706+128558416+128809350+128901905
3997+128947064+129027516+129195473+129301172+129072805+128615949+128545681
3987+129300179+130493153+131225244+131015868+130256079+129720248+129809341
3977+130343706+130897099+131115942+130815571+130096587+129450174+129476611
3967+130359105+131748302+133128838+134091236+134393696+134094280+133567203
3957+133203042+133168985+133478555+134192981+135424719+136931924+137891351
3947+137747630+137120952+136963354+137170984+136855984+135699703+134346318
3937+133753261+134622332+136933232+139620184+141096784+140726525+139579202
3927+139155132+139765362+140506855+140714105+140882888+141683827+142756352
3917+142936525+141497704+139021771+136868905+135947201+136336211+138090720
3907+141863786+147953062+154736332+159118236+159423277+156345319+151133785
3897+145395647+141602958+141622228+144748009+147482737+147135341+145862686
3887+147141820+150460862+152541055+152922138+153571716+153655555+151264000
3878+148486201+148734730+152102978+156498016+160563647+163003138+162119929
3868+159180113+157485876+157582284+157041208+154555036+151878277+151462413
3858+154841466+162704093+173254536+178636570+172598023+161751581+153504214
3848+149842305+150441211+154094301+159131770+164350786+169341267+173156271
3838+173854128+171138967+167289933+163976646+161092823+158585886+157297906
3828+157535630+158786425+161604974+167284512+173979998+176400701+173878597
3818+170989203+168759572+164771635+159509808+156204504+156781206+160893361
3808+165946183+169147115+171622027+175994815+180382437+180404715+177135891
3798+174513017+172609497+170065356+167845823+167561148+169090733+171534939
3788+174689384+178501845+182335878+186143661+191057989+197188655+202320731
3778+204938704+206894503+210988985+218414203+228540492+238987324+247103679
3768+252879977+258020055+263235246+269357930+278373682+290995063+304940422
3758+317694041+330355783+346281539+367530610+392200235+413185386+425968357
3748+435833697+448537803+462657970+471296390+473605090+476838844+486014868
3738+501114855+518224573+531840033+538887622+540288125+538865678+537239537
3728+537133197+538879156+541178871+542270453+541034139+537114744+531556620
3718+526825974+525379096+528562651+535850730+543513228+546314790+543697986
3708+540178629+540054800+544878866+552992083+560114006+563116404+563106639
3698+562736379+563870215+568138074+576745416+589039535+600760033+604769728
3688+599212979+591341217+587527085+588411260+591859142+596071641+601285792
3678+608316710+614085211+612931845+606891739+602499383+600279980+596263862
3668+589509191+582866763+578483578+576884913+577607498+580070993+584194343
3658+589192361+592966541+595367398+599625120+607980350+618196976+623964549
3648+621355766+613762144+606885501+603866283+604287782+605936572+607978865
3638+611312722+615617451+618656273+619800023+621919509+627425056+633401930
3628+634629519+632727280+632701438+636077214+642160502+650065829+658139132
3618+663861666+665944951+664972073+662907576+663015179+667324624+673554278
3608+676532393+673996792+669244165+667028773+669156093+674192838+680571087
3598+687692750+693118468+693413725+689846804+687725944+689579320+693004999
3588+693559868+689636277+684176623+680162509+678065858+677556287+678734122
3578+680713740+681095955+678654887+675374460+674933505+679801161+689091508
3568+697894413+700833913+697715966+692130367+686846337+682845813+679812449
3558+677079836+675116482+674890435+675819351+676479000+677323112+680174762
3548+684565596+687202190+685949278+682477336+679902748+679563901+680637772
3538+681419579+680765796+678692834+675931334+673539055+672408375+672338348
3528+672303001+672181289+672956338+674761446+676446103+677270239+677249594
3518+676145574+673571729+669654005+665164109+661626669+660747507+662757497
3508+666016240+668671251+669623781+668793780+668134204+670179542+674046472
3498+675569986+672839305+668732292+666698836+667145806+668388618+668808854
3488+668365003+668803062+671366139+674536958+675701872+674942417+674423935
3478+674184373+672196364+668313541+664991158+664189969+665721652+668191161
3468+669866834+669310850+666615071+663695919+662495286+663061369+663899093
3458+663840874+663074141+662463503+662282755+662143517+661338615+659010199
3448+655518726+652785223+651905542+652133148+652708513+653852040+655368573
3438+655956859+655021928+653673222+652878716+652382215+652091488+652629797
3428+653851223+654636000+654822838+655440754+656559255+656959664+656173252
3418+654865240+653451631+652093716+651175642+650222295+647945786+644804448
3408+643432647+645235229+648199681+649198029+647651346+645657768+645091908
3398+645929261+647203337+648293916+648587243+647253685+644747640+643085111
3388+643539655+645393626+647335965+648853835+649849659+649883819+648485507
3378+646039017+643630624+642049781+641585137+642372960+643856522+644442358
3368+643201254+641399562+640743700+641015268+641191041+641711379+643702730
3358+646590174+648151040+647467925+646350240+646638814+647519981+646847410
3348+644159056+640956231+638925003+638978396+640977321+643484035+644453645
3338+642997782+640359851+638821930+639569058+641607193+642875550+642379198
3328+641043189+640537554+641479689+642839534+643124766+642168300+641170099
3318+640858580+640847886+641027595+641826556+642708688+642413134+641122944
3308+640410570+640908334+641582538+641259731+639855701+638213371+637369780
3298+637666893+638459543+639249964+640513197+642399099+643722037+643588890
3288+642938597+643097587+643959000+644503176+643903825+641874231+639174219
3278+637395622+637117297+637300124+637135862+636834738+636409081+635789531
3268+635907159+637533374+639506977+639828448+638079110+635731163+634697838
3258+635959512+638811385+641268345+641850096+640842614+639284049+637684270
3248+636668025+637276287+639157436+640062663+638704154+636676193+636012682
3238+636490395+636654361+636064218+635339071+634768756+633919224+632519204
3228+630991309+629738620+628503234+626972443+625699333+625760523+627476592
3218+629750130+630819769+629826172+627464934+625172385+623857096+623271334
3208+622617180+621620056+620681524+620132335+619845396+619597145+619324352
3198+619073279+618858223+618455549+617611624+616629315+616036685+615652167
3188+614914471+614041547+613919835+614733722+615437891+614890819+613070674
3178+610739696+608376564+606269033+605156250+605560261+606796909+607553616
3168+607170807+605969841+604693500+603704063+602546947+600724277+598897077
3158+598397346+599398814+600352161+599492047+596517459+592823183+590391249
3148+590123431+591021083+591299112+590273175+588726344+587458581+586356788
3138+585307980+584857186+585220761+585653473+585394901+584533041+583537589
3128+582520267+581206388+579480999+577746030+576523528+575967619+575954104
3118+576166190+575995429+575133793+574207662+573949126+574059959+573624723
3108+572271746+570459436+568988795+568471018+568915240+569647145+569721442
3098+568492442+566077328+563506119+562083487+562178837+562859651+563097876
3088+562963206+563116775+563536826+563400782+562148279+560162869+558414979
3078+557669113+557919629+558543077+559008835+559257790+559400109+559300193
3068+558514598+556716769+554330616+552405096+551564401+551423307+551146801
3058+550321812+549368873+549184560+550049761+550934864+550407470+548218886
3048+545556486+543811567+543374399+543501198+543194690+542135114+540678546
3038+539283241+538258642+537680269+537222606+536414882+535188259+533816940
3028+532419445+531000526+529890899+529578933+530002326+530456164+530387177
3018+529939576+529551531+529331797+528996365+528223246+526998405+525633547
3008+524437668+523534891+523017115+522865105+522606012+521623110+519988540
2998+518425446+517349978+516472561+515379569+514097659+512979789+512285348
2988+511947912+511639659+511083454+510337291+509681354+509254026+508956282
2978+508687313+508388640+507747889+506310813+504219954+502419006+501732363
2968+502024575+502437274+502133254+500818336+498979143+497564568+497087932
2958+497233036+497480098+497591525+497358906+496570527+495413336+494336792
2948+493452321+492531536+491582942+490931832+490636241+490295982+489577816
2938+488520133+487231206+485728447+484177049+482855447+481881307+481306239
2928+481227413+481443360+481332045+480473638+479199415+478240015+477889843
2918+477686408+476996238+475763971+474443631+473347631+472361795+471264049
2908+470125387+469326351+469126036+469194615+468832041+467799310+466670487
2898+466163552+466244830+466126162+465261036+464050638+463208272+462780127
2888+462297513+461601030+460934623+460402031+459846011+459123575+458071648
2878+456416916+454268915+452448658+451680923+451715454+451825247+451794578
2868+451843070+451998198+452045019+451804455+451214015+450330880+449322469
2858+448392922+447701712+447235918+446786497+446245255+445790413+445571607
2848+445435340+445104513+444394552+443287673+442056259+441151404+440738705
2838+440475677+439880150+438848830+437725873+436871032+436281446+435719374
2828+435130679+434791720+434937344+435268914+435066333+433957151+432333758
2818+430861409+429866031+429238461+428634617+427787982+426754656+425714574
2808+424681843+423744053+423213689+423095505+422831400+421959627+420634312
2798+419296411+418235164+417509534+416992315+416521879+416097595+415778947
2788+415413811+414718405+413661169+412577013+411788782+411177884+410303920
2778+409048892+407896492+407293205+406962378+406247924+405006189+403732968
2768+402860786+402338703+401913788+401482079+401035555+400455660+399548576
2758+398302534+397001168+395969811+395228364+394496459+393550278+392455837
2748+391393365+390393383+389403648+388484609+387693371+386877887+385892942
2738+384929681+384280167+383842295+383215616+382280091+381339182+380651017
2728+380113376+379491116+378736451+377963221+377258012+376640431+376129635
2718+375762346+375506112+375131880+374303957+372957664+371459362+370240981
2708+369429730+368874267+368315833+367584597+366836281+366399967+366229764
2698+365837412+364902741+363622911+362419122+361580803+361130826+360827178
2688+360385220+359768901+359158003+358677542+358261539+357694082+356769808
2678+355541254+354356550+353503862+352882567+352200380+351434650+350861735
2668+350631753+350565476+350439680+350274563+350216566+350227891+349987920
2658+349166755+347817084+346358064+345131329+344193688+343546217+343205327
2648+343001039+342657253+342122397+341562181+341090074+340723008+340454299
2638+340175453+339689646+338963830+338222643+337688641+337351019+337055019
2628+336708783+336323337+335899203+335376154+334746282+334122982+333583374
2618+333019593+332300907+331518766+330934118+330728381+330885032+331221132
2608+331455979+331348488+330876678+330242128+329644411+329121548+328664256
2598+328331164+328099882+327762556+327194283+326573174+326091043+325640471
2588+325053522+324452909+324074555+323892136+323666163+323273440+322816185
2578+322459256+322253927+322087214+321800980+321398529+321049953+320855318
2568+320766429+320772630+320927239+321136614+321206716+321167989+321277040
2558+321632670+322035009+322268445+322306466+322179296+321834025+321230330
2548+320459254+319665565+318939601+318377269+318135256+318274456+318591434
2538+318735312+318522669+318096864+317757756+317658397+317706777+317732508
2528+317658545+317521499+317421805+317439962+317513702+317438699+317075457
2518+316528645+316077071+315939876+316095933+316306423+316310136+316010312
2508+315533527+315163602+315114219+315258728+315209012+314777302+314181739
2498+313685498+313273318+312823415+312371173+312023972+311764062+311495576
2488+311193636+310883750+310548169+310174513+309834162+309595193+309399426
2478+309120395+308718018+308290022+307986058+307856864+307771614+307522807
2468+307049363+306532274+306236423+306242326+306364929+306372782+306226453
2458+306019788+305793240+305544191+305332848+305237424+305242307+305219602
2448+305015982+304616519+304222293+304045165+304051365+304043308+303905983
2438+303631296+303245331+302860591+302639854+302590062+302541348+302384957
2428+302185644+302028695+301891463+301719236+301553099+301519552+301682069
2418+301942684+302118977+302092206+301886618+301651975+301541867+301560803
2408+301581243+301539045+301520591+301635545+301888474+302180000+302375674
2398+302417965+302402315+302459792+302537802+302435305+302116192+301796986
2388+301584919+301223775+300389782+299061348+297378510+295314069+292745088
2378+289751954+286614960+283522875+280441297+277325913+274342544+271707138
2368+269411192+267406679+265952060+265407085+265866661+267361121+270126574
2358+274301571+279597353+285644255+292505823+300217740+307810526+313624010
2348+316588870+316914202+315820355+314364343+312468899+309672832+306114915
2338+302220991+298211723+294189664+290313469+286861354+284216369+282584417
2328+281691647+281011167+280327940+279905105+280070908+280832684+281974280
2318+283286617+284546899+285529505+286245276+286981804+287935002+288975865
2308+289912522+290768775+291641866+292483694+293186655+293720639+294068231
2298+294197554+294190277+294246120+294485125+294842408+295186472+295469847
2288+295720845+295922999+296005539+295984412+295987159+296068103+296111043
2278+295982667+295719286+295503097+295446381+295445898+295333748+295107088
2268+294854605+294576910+294292402+294164137+294280781+294445452+294388680
2258+294101647+293813241+293689468+293676956+293650890+293600264+293593785
2248+293642184+293682302+293682247+293715311+293873484+294093145+294188179
2238+294121345+294091084+294279463+294665335+295133952+295637284+296195662
2228+296808064+297417719+297980645+298539060+299203184+300077445+301177678
2218+302381541+303525030+304596822+305757818+307140647+308724609+310440567
2208+312296728+314313995+316401141+318439239+320474514+322673941+325098115
2198+327612960+329979880+332021245+333805522+335636806+337757331+340084114
2188+342273701+344049958+345480016+346836817+348199707+349412518+350414209
2178+351328050+352239626+353060531+353577750+353665377+353474752+353235970
2168+352927197+352400547+351686502+350912975+350068938+349015860+347711078
2158+346353683+345205515+344330178+343660688+343102997+342469264+341698113
2148+341048860+340752935+341087772+343022760+347644133+354705831+362839507
2138+371081379+379152306+386755358+393674478+400137308+406595200+413466014
2128+420942936+428776528+436465350+443621582+449994929+455400560+459662292
2118+462552150+464056579+464564256+464497794+464208849+464488028+466611376
2108+471628962+479896268+491249329+505118795+520091576+533747990+543606387
2098+548060304+546476788+539606123+529615915+518464878+506863678+494915981
2088+482361211+468547143+453358564+437506881+421713864+406650635+393154251
2078+381642645+371999342+364126912+357831203+352605801+348150584+344517238
2068+341664622+339436828+337629493+335844436+333839830+331826647+330027183
2058+328491491+327343545+326573100+325953588+325537956+325647117+326395545
2048+327799464+330054734+333460548+338449878+345564932+355156959+367463479
2038+382850147+401400579+422494892+445034746+467531715+488001540+504479121
2028+515595033+520746473+520417762+516030864+509085271+500776082+491972026
2018+482952690+473541412+463669908+453550265+443465970+433584145+423850021
2008+414107173+404345462+394717791+385425625+376707933+368791430+361757764
1998+355554472+350182035+345745458+342135912+338799011+335228859+331599078
1988+328418196+325840416+323750374+322107450+320844142+319784752+318841504
1978+318027505+317306368+316614378+315932562+315315946+314929572+314864966
1968+314823937+314310060+313295708+312322904+311807467+311653452+311646063
1958+311779954+311994713+311990963+311575702+310947223+310476880+310350898
1948+310551957+311147595+312259784+313436356+313565754+312198148+310342507
1938+309161516+308759511+308652911+308598516+308628424+308755946+308890784
1928+309036129+309539907+310715143+312121029+313025625+313604740+314418590
1918+314905920+314023380+312236949+311137774+311446435+312495039+313213502
1908+313148896+312626701+312181328+312001954+311939761+311890712+312017065
1898+312536364+313292218+313813261+314118692+314906848+316287375+317073452
1888+316309950+314701966+313440143+312798947+312512081+312434703+312467377
1878+312487464+312505101+312695726+313540988+315810664+319632705+323315954
1868+324166786+321638759+318036788+315579605+314721607+314789221+315012037
1858+315022545+314900648+314870535+314985118+315279336+316002069+317485334
1848+320066865+323805549+327347927+327941337+324938902+321261334+319469333
1838+319536204+320103995+320558613+321829792+324965524+329015950+331327138
1828+331013947+329829949+328721993+326984017+324698003+323162607+322994446
1818+323563647+324135002+324858664+326405124+328728788+330604553+330911580
1808+330059635+329445729+330152645+332492126+335840983+338639501+339538898
1798+339041135+339253481+341907117+346540112+349871481+348785246+344863623
1788+342080663+342035921+343725220+345834978+347989998+349863721+350852490
1778+351396740+353288397+358036754+364998870+370615213+371434113+368385080
1768+364486181+361671549+361305931+363900419+367680058+369879150+370390355
1758+370974631+371940751+373140306+376013344+381828406+388915613+393381783
1748+393621716+391746879+390333715+390521778+392119477+393906280+394690463
1738+395519685+399190607+406141361+411390972+409915913+404617253+399888129
1728+396886363+395874647+396856065+399077027+402467209+408645736+418695834
1718+429640838+434564225+431040004+424242707+419048271+417255120+419260060
1708+424591431+431247040+436713972+441496192+448757835+458844284+466550149
1698+468265327+466099800+461512661+456138442+453547592+455288168+460070127
1688+466947921+477167741+490272256+498790820+496899906+490906138+487881053
1678+489808726+495689137+502531992+507897522+512941768+519203354+524127150
1668+524382975+522682240+523988247+528973308+534009644+536096976+537030756
1658+540715935+549868122+565367144+582652449+589357144+586016678+585578879
1648+590745653+594896702+592181578+586418721+583479518+585031659+591076481
1638+601042629+611369233+614775530+609760209+604133210+603277737+606835487
1628+612011209+617094144+622581646+628488902+633431040+637979379+645050248
1618+655253322+663535889+664051177+659103618+653909442+649823817+646006640
1608+642193177+639311748+638483083+640061252+643575300+648305946+653752160
1598+659517988+664906799+668898412+670783051+670764486+669650812+668176161
1588+666917086+666373727+666593759+667014366+667343486+668641770+672789699
1578+680228378+687580098+689779376+688443071+689894553+696400974+704836367
1568+711120083+715952539+722537973+732425814+746809640+768344833+796120820
1558+816030541+819949304+820305009+824579106+831608019+838723221+844845645
1548+850703481+857992080+867509958+878272060+888181213+892540783+885448081
1538+872086293+863028676+859889269+858256445+854487611+850154775+848837332
1528+851284118+855720250+860757886+866624856+872518930+875675046+875609772
1518+874525801+872925874+870492826+868704130+869515121+873857612+882070820
1508+892420928+897021323+889395064+877579810+870089150+868113765+870028257
1498+873066225+873822264+871355948+868775420+869219196+872474820+875021411
1488+873619980+869434847+866058031+865357464+866611341+868252037+869977834
1478+872747056+877095042+882316843+886393483+886316104+881447260+875754727
1468+873231305+874212945+875710022+874944924+873717261+876176077+883692505
1458+892129904+892878591+884614441+875616529+870502851+868879458+869084043
1448+869554256+869309051+868111983+865918422+862963402+860842617+861813415
1438+865813567+868846189+867420550+864026357+862159020+861255724+859200361
1428+856619462+856065632+857925543+860420672+862910158+866037758+868365877
1418+866922266+862444029+858244489+855392913+853157915+851002079+849122341
1408+848280458+848766191+849217839+848139141+846549833+846597062+848584626
1398+851268895+853636446+854622022+852862733+848812083+844814678+842167020
1388+840051209+837367757+834924164+834785595+837746631+842497921+847180224
1378+851456623+856380494+862112756+866943802+869622353+871229186+873201304
1368+875647644+878526919+882209834+885767770+886745920+884432950+881458696
1358+880518419+881602612+882750891+882572371+881639816+881306612+881999456
1348+883156721+884219527+885200054+886587969+888899231+892039901+895195051
1338+897737781+899966837+902431223+905061060+907408115+909283546+910909539
1328+912726082+915096158+917902584+920531827+922591348+924457571+926836186
1318+929980124+933615809+937329839+940498727+942220515+942070362+940837872
1308+939968141+940316494+941597549+942892343+943564172+943608802+943340798
1298+943107177+943338867+944242164+945116944+944749358+942810732+940082575
1288+937214142+934229269+931343162+929289285+928547504+928715479+928758847
1278+927786415+925767885+923597420+922092025+921127539+920365336+920238723
1268+921184125+922469859+922931532+922383346+921419380+920582100+920406327
1258+921089592+921462376+919595262+915106851+909697916+905029277+901360174
1248+898468943+896390857+894604315+891666003+886866666+881797321+878963567
1238+878951537+879812654+879413433+877792490+876604185+876915259+878455110
1228+880534533+882765372+884990195+887037761+888556968+889140576+888962278
1218+889116144+890741246+893815081+897197912+899747177+901118161+901785831
1208+902627566+904132738+905878215+907213257+908248216+909572565+911480300
1198+914127810+917671933+921522824+924330884+925587434+926345775+927765771
1188+929970915+932491961+934924193+936995150+938708917+940650811+943484491
1178+946963785+949886057+951200530+951127309+951081417+952353116+954872380
1168+957387188+958954144+959885213+960932054+962395491+964538035+967802422
1158+971690516+974599941+975913894+977042866+979394822+982576706+985251321
1148+986785900+987599342+988237976+988647519+988880769+989902955+992808815
1138+997401709+1001953761+1004502506+1004630975+1004155415+1005306665
1130+1007957220+1009889089+1010072659+1010100952+1011752564+1014697411
1121+1017065259+1017120731+1014724219+1011773283+1011225839+1015124553
1113+1022505383+1029478898+1032650534+1032485232+1031887218+1032616003
1104+1034678644+1037201398+1038325320+1036426868+1032485677+1029298224
1095+1028100191+1028002242+1028728057+1031396360+1036748413+1043482811
1087+1048210413+1048380319+1046018486+1045880215+1048706394+1050092527
1078+1047845352+1045874794+1048246800+1053587342+1056922795+1055601119
1070+1051910927+1049431392+1049300324+1050651332+1052531962+1054460118
1061+1056144850+1057397315+1058027038+1058067213+1058083773+1058363881
1053+1058446384+1058884219+1061337912+1065761494+1070175199+1073117075
1044+1073741823+1070746480+1064153992+1057017254+1053449516+1055413094
1035+1061610891+1068783645+1073407505+1072981254+1067953494+1062381113
1027+1060404614+1062184325+1064777700+1066068112+1066122916+1065891077
1018+1066319927+1067696258+1069057292+1068870974+1066241063+1062107614
1010+1058710006+1057003887+1056058783+1055193285+1055344626+1057049037
1001+1058356975+1056922350+1053352384+1050623188+1050453579+1051261599
993+1050260429+1047112704+1044021492+1042646200+1042618576+1042755808
984+1042157125+1040190726+1036691307+1032435552+1028916380+1027029364
975+1025858881+1023559278+1019387660+1014232990+1009615961+1006550591
967+1004399359+1000926154+995110943+989143129+985556529+983695950+981209137
957+978055398+976156798+975722823+974755070+971824704+967494318+963406761
947+960984332+960320153+960078437+959169646+957819825+956849101+956981432
937+958442717+960193688+960356837+958529229+956294678+954866142+953896160
927+952686468+951031217+948991820+947008341+945820259+945705899+946198984
917+946563525+946409881+946145665+946469586+947090992+946865985+945613519
907+944562743+944572323+945184818+945735677+946186879+946544069+946414337
897+945491585+943891657+941905356+939716846+937248673+934502694+932288341
887+932272004+935666048+941468263+946341562+947310579+944708515+941301104
877+938973951+937621903+936865863+937369865+939648007+942138978+941810378
867+937506057+931584804+927175777+925331757+925779172+928460917+932801105
857+936997006+939647116+940953865+941424895+940843441+939032393+936554344
847+934649357+934356996+935205414+935302843+933519420+930824755+928745109
837+927677921+927210530+926950769+926668359+926398425+926556078+927638044
827+929808435+932777564+936034525+939203116+942009320+943796159+943795268
817+942302275+941071567+942039321+945401211+949206283+951305459+951384174
807+950599471+949639366+948300165+946797443+945831546+945422523+944931889
797+944217584+943838562+944151567+945096671+946697415+949036154+951811019
787+954210948+955107486+953914131+951557496+949354282+947353129+945232270
777+943471570+942639414+943030095+945185783+948718841+951460587+951904141
767+950892500+949656594+948301279+946849871+945900088+946001527+947216640
757+948858004+949653030+949055238+948131075+948322071+949663055+950730094
747+950144184+947513382+943169407+938749612+937377068+940768662+946639344
737+951145652+953312330+954663413+956042788+956943857+957014849+957013438
727+957992999+959730753+960431245+958745994+955730452+953607884+953018855
717+953402853+954794927+957110570+958805996+958208427+955411060+951572943
707+947259562+942541466+937561158+932287895+927795475+926618085+929310969
697+932566741+933039776+931764141+931969915+933513850+932391488+926329660
687+918386609+912948861+910743197+909315998+906294738+901833655+898502360
677+898830068+902603506+906216691+905197029+898086208+887716867+880813676
667+882622793+888495555+891493052+889975627+885416595+879621509+872966865
657+865789359+860956308+861629399+866563666+870860115+872306919+873457129
647+875893667+876811147+873416137+866760528+859696417+854544569+852830355
637+854893070+859530891+864055690+865554029+863420620+859500445+856332373
627+855658094+857803311+861280824+862176471+857901780+852163205+850583625
617+852963132+854629299+853734320+852282095+851630243+850872050+848168102
607+843288565+838656016+836412925+836378839+836123089+832442179
##END=
