##TITLE=<SNM>
##JCAMP-DX=4.24
##DATA TYPE=INFRARED SPECTRUM
##DATE=3/5/2025
##SAMPLING PROCEDURE=Instrument type and / or accessory
##ORIGIN=Admin
##XUNITS=1/CM
##YUNITS=ABSORBANCE
##RESOLUTION=4
##FIRSTX=4497.3318
##LASTX=599.83466
##DELTAX=-1.4281778
##MAXY=1.7762926
##MINY=0.21533892
##XFACTOR=1
##YFACTOR=1.6543014e-09
##NPOINTS=2730
##FIRSTY=0.23465188
##XYDATA=(X++(Y..Y))
4497+141843490+142290677+143440389+144662179+145049871+144242671+142647853
4487+140874514+139420222+138889193+139704788+141339942+142482177+142268077
4477+140978497+139490463+138493330+138264755+138699999+139359890+139802204
4467+139973176+140186510+140727475+141527857+142221508+142464514+142332409
4457+142377600+143000029+143790854+143787197+142503777+140580788+139247530
4447+139162364+139942695+140747319+140995954+140574050+139746799+138931663
4437+138361613+137995907+137760442+137716170+137967957+138442843+138816988
4427+138852883+138728769+138716266+138713663+138407686+137694993+136825235
4417+136397423+137024545+138560697+139947099+140266272+139640826+138832256
4407+138361568+138214286+138154584+138090522+138046494+137906246+137475119
4397+136844205+136472176+136805518+137804975+138819402+138986735+137907012
4387+136056110+134517165+134024940+134166412+133927785+133059594+132221309
4377+131879149+131867674+131922989+132023125+132277975+132714651+133082320
4367+133031509+132599076+132179136+132013604+132053859+132190008+132360106
4357+132562622+132816310+133055775+133204841+133282269+133241330+132955810
4347+132542842+132350288+132564153+133105416+133736249+134075787+133877000
4337+133363031+132925382+132645915+132418042+132199484+131891589+131365828
4327+130792878+130511266+130493035+130389359+130169098+130285601+131014985
4317+132024468+132824849+133235268+133226801+132813166+132288199+132058705
4307+132088277+132007290+131817691+131932501+132456712+132924031+132867725
4297+132296621+131560211+131081028+131238516+132137125+133334198+134080480
4287+133996161+133311292+132418844+131543943+130875224+130614448+130794265
4277+131279951+131947687+132710030+133409798+133799076+133667845+133066999
4267+132416070+132278597+132904980+133965454+134808180+135060067+134908560
4257+134738939+134681327+134629273+134523723+134527479+134993330+136090933
4247+137341592+137841455+137203461+136020017+135228264+135260457+135899721
4237+136639392+137014682+136842593+136316013+135731749+135203124+134838617
4227+134892734+135366512+135777075+135761014+135652041+136035807+136861599
4217+137374784+137115467+136646472+136821200+137584957+138108952+137903067
4207+137235654+136677043+136612081+137020590+137611619+138201783+138742946
4197+139055291+138952434+138550456+138106304+137711621+137329026+136943684
4187+136630276+136538715+136753490+137187257+137664457+138036486+138254639
4177+138437465+138745784+139153050+139564451+140100020+140960347+142022244
4167+142830687+143086105+142942678+142668759+142279274+141785932+141414272
4157+141191255+140814200+140262642+139939740+139990056+140108136+140071737
4147+139904701+139625378+139260456+138965901+138876438+138952678+139104887
4137+139350927+139723704+140064215+140097912+139827714+139672901+139986327
4127+140539038+140730502+140284801+139518729+138920476+138708943+138886211
4117+139441804+140264462+141011933+141363722+141351201+141235230+141154603
4107+141056736+140861318+140603676+140513835+140884999+141682696+142391138
4097+142444030+141775834+140852410+140230954+140120539+140306328+140512475
4087+140756840+141229249+141923215+142535529+142716697+142423971+142048078
4077+142031441+142269987+142144377+141346463+140396863+140027879+140310256
4067+140744328+140958798+140924020+140714072+140470599+140464429+140871731
4057+141511625+141927512+141795894+141275457+140808957+140626690+140707073
4047+141079634+141702432+142163014+142025226+141407534+140842456+140694742
4037+140920272+141236590+141407111+141430305+141446420+141461922+141376648
4027+141338762+141732526+142582008+143271083+143213327+142599707+142176030
4017+142428925+143182305+143867814+144033363+143639896+142979636+142417080
4007+142218905+142443652+142900901+143335938+143650877+143840944+143886036
3997+143883352+144049694+144393133+144589974+144379946+143941802+143740682
3987+144024185+144538541+144824449+144774223+144689931+144770989+144920613
3977+145164852+145783742+146770759+147547541+147525112+146724956+145652106
3967+144847679+144747552+145566795+146972302+148196155+148767403+148801001
3957+148508140+148035253+147825315+148466957+150016774+151755163+152732570
3947+152758998+152754854+153547895+154540993+154376839+152810539+150932488
3937+149904873+150418419+152621219+155653422+157672621+157439398+155885474
3927+155065339+155735967+156667615+156579468+156115580+156739874+158401762
3917+159313522+158004368+155025003+152061311+150191178+149798071+151585299
3907+156553166+164436948+172593154+177598492+178332965+175764091+170816023
3897+164988191+161059018+161112649+164412015+167439913+167612281+166977809
3887+168513069+171208661+172102658+171729260+172258272+172155785+169216215
3878+166106403+166695531+170915412+176251614+181045059+183758810+182673457
3868+179636354+178390884+179064286+178508432+175389666+172087958+171356889
3858+174623486+182624528+193962463+200573662+194631650+182643300+173286896
3848+169256641+170128173+174144268+179333791+184685144+189836548+193361769
3838+193082499+189464717+185567827+182856076+180575443+178460602+177678154
3828+178743204+180890580+184357108+190396870+197125545+199158940+196212362
3818+193190824+190571814+185508468+179215613+175763334+176994807+181910250
3808+187406948+190758162+193445989+198269681+203418292+204403175+201960749
3798+199768569+197803019+194912036+192548984+192611676+194919926+198424484
3788+202879931+208299794+214045911+219952758+227251519+236586828+246164584
3778+254109293+261645421+271319900+284186212+299352723+313947922+324472135
3768+330248048+332974338+333749453+334013049+335978095+339897413+343626709
3758+346370473+350698769+359526973+373516200+390326187+404655178+413508386
3748+420840620+431071115+443098323+451451722+455774073+461905927+473625330
3738+490933830+510415918+525633483+532133890+532936461+534397986+539698590
3728+548735047+559704700+569275844+574279272+574413988+572162503+570076108
3718+568408923+566472954+565445231+566977628+569129994+567267958+560427932
3708+551874782+545444634+543998890+547419156+551526047+552269384+550684528
3698+550021826+551410823+554462392+559376321+566975033+576060131+581414853
3688+579337718+573694107+569812728+569344445+571589300+575726060+582073591
3678+590797740+598224985+598627693+594505057+592319219+591012479+585356330
3668+576072850+568077158+563088827+560396622+559384608+559631595+560479815
3658+561006972+560691564+561195841+565736463+575603594+587267655+591759779
3648+584155086+571286431+560987984+555575830+553669369+552867628+552321087
3638+553335911+556990984+562357632+568220774+575052334+582510312+585774027
3628+581131296+574266229+571641220+574147906+580466865+588715344+595372950
3618+597844111+598475178+600623689+604096054+607082336+609061758+609650706
3608+607873125+604670337+602855934+604091766+607938988+612761401+616604011
3598+618197767+617927253+617205426+616743520+616564666+617657459+621040181
3588+624465419+623998829+620498361+618181409+618526145+620315039+622526927
3578+624509736+625069932+623646527+621633237+621587911+625329132+632073679
3568+637470844+636982060+631737878+626376599+622874330+620187565+617303067
3558+615074822+615207268+617643407+619603229+618529460+615617219+614369929
3548+616485256+620397116+622775463+621387583+617143598+613039769+611172185
3538+611166204+611186381+610056477+608109266+606305527+605159842+604368910
3528+603337728+602039491+600976712+600208874+599002298+596763784+593892870
3518+591526629+590713105+591557362+593055062+594046430+593943204+592480958
3508+589878972+587414693+586485657+586878313+586869954+585256562+582428920
3498+579536352+577366078+576238120+576622741+579032723+582859264+585927371
3488+586128563+583359217+579109719+574721901+570770084+567739340+566349911
3478+566664814+567524997+567603759+566894146+566443914+566759105+567219173
3468+567161633+567037654+567683926+568390044+567134791+563333435+558861992
3458+555650160+553872039+552943867+552662328+552850045+553109678+553332992
3448+553696572+554247617+554818910+555143505+554932801+553989317+552482538
3438+551083201+550430804+550172072+549044330+546615649+544296031+543648282
3428+544378395+544827150+543925029+542089223+540459510+539677836+539390929
3418+538945128+538369511+538090999+537947131+537354183+536207561+534759872
3408+533143453+531798846+531514461+532234594+532739196+532321931+531678073
3398+531465568+531309629+530735021+529808724+528650320+527371539+526307787
3388+525672144+525228217+524531323+523310911+521798187+520712600+520522001
3378+520897939+521144673+520758611+519526814+517747539+516390574+516299165
3368+517261745+518399180+519200129+519566159+519200345+517944624+516587946
3358+516352129+517628316+519726096+521527349+522145049+521470710+520331078
3348+519625068+519409716+519236699+518780414+517725417+515905825+513815538
3338+512260407+511628908+511805923+512326342+512451186+511791367+510837723
3328+510251261+510013210+509892725+509987989+510108545+509684291+508762497
3318+507988246+507484077+506839174+506010986+505343060+504998180+504851898
3308+504627574+504140808+503652204+503684306+504337388+505079608+505235330
3298+504465367+503115391+502115304+501945638+502080102+502031822+502220151
3288+503124182+504316238+505008917+505031508+504785206+504626493+504712353
3278+505231799+506279014+507449668+508035842+507729190+506819213+505742994
3268+504827686+504376409+504463313+504603290+504063343+502633272+500805357
3258+499234913+498323856+498229709+498872667+499710222+499943049+499368621
3248+498595775+497969788+496916484+495141894+493722776+493763778+494698615
3238+495183076+494942467+494515510+494011017+493250710+492427026+491758883
3228+490997027+489867663+488592306+487495297+486405783+485021147+483719163
3218+483313536+483989821+485025290+485516957+484946204+483251492+480940918
3208+478948813+477893348+477553152+477224485+476458629+475422295+474627183
3198+474286050+474016869+473348006+472339092+471410019+470696840+469978003
3188+469065577+467940681+466833548+466278901+466528697+466862372+466199526
3178+464352731+462002920+459701498+457580766+455794502+454599383+454056013
3168+453987664+454174444+454374159+454194909+453232293+451513585+449577436
3158+447975141+446975306+446636226+446695208+446545359+445808579+444633133
3148+443171464+441369851+439443177+437924220+437139196+437043500+437455937
3138+438087941+438452025+438033319+436643638+434643139+432821637+431906112
3128+431962067+432247606+431862660+430697987+429544844+429105024+429113744
3118+428641497+427181521+425163187+423416844+422499194+422456354+422827752
3108+422950939+422555761+421902211+421224917+420456755+419608030+418922522
3098+418500717+418176626+417857832+417643237+417569015+417522320+417390630
3088+417072808+416430572+415473540+414457744+413557279+412675190+411770475
3078+410986964+410321992+409625891+408975656+408596006+408515839+408644719
3068+408834814+408672931+407797688+406547371+405636350+405169039+404594864
3058+403599820+402450496+401484854+400771422+400274458+399949034+399600912
3048+398959396+398058139+397349463+397174681+397219826+396821910+395774479
3038+394485394+393404275+392652074+392087339+391422475+390432764+389250364
3028+388271859+387719337+387420972+386923685+385840007+384305702+383029659
3018+382596434+382793879+382904959+382484776+381591842+380501680+379548179
3008+379066637+379086922+379156748+378808517+378083051+377266789+376389708
2998+375411887+374578547+374099779+373737424+373087477+372065015+370898433
2988+369823799+368916201+368103362+367270886+366419675+365758775+365530776
2978+365635192+365584785+365055107+364293395+363747214+363505056+363279508
2968+362750333+361846194+360830289+360115704+359926294+360093114+360075531
2958+359298938+357761858+356162482+355179869+354883846+354931369+354940773
2948+354646659+354054108+353388416+352706366+351850363+350909617+350302474
2938+350230990+350341279+350098039+349395560+348618247+348078228+347672889
2928+347240060+346897774+346738268+346452334+345604509+344220449+342853647
2918+342033566+341806000+341850677+341839256+341580343+341040721+340341376
2908+339595049+338805809+338070940+337669312+337689020+337741913+337317262
2898+336366103+335331859+334630461+334297651+334118870+333886872+333490505
2888+332899323+332131017+331241182+330394474+329862994+329777027+329931524
2878+330000017+329880469+329694301+329512638+329231459+328703185+327873592
2868+326803570+325680872+324765492+324191388+323863838+323628886+323427334
2858+323245021+323072473+322909365+322695851+322367184+322022772+321790450
2848+321540690+321063219+320450599+319948375+319543109+319020672+318326372
2838+317616723+317039377+316628057+316324828+316008808+315593633+315132124
2828+314700303+314194620+313451283+312552585+311782225+311281983+310960739
2818+310730002+310592043+310456065+310125093+309595594+309139453+308921759
2808+308758039+308424832+307969087+307509848+306955741+306146937+305146237
2798+304231937+303678803+303594385+303821446+303924492+303482295+302544143
2788+301602479+300996326+300573729+300030593+299333015+298675465+298172143
2778+297711966+297099653+296302343+295492872+294835882+294310995+293745521
2768+292997338+292140884+291416283+290929390+290525853+290038293+289491050
2758+288981585+288515445+288014591+287381740+286579764+285745235+285128328
2748+284796022+284520878+284101181+283625026+283241215+282859836+282299839
2738+281607196+281020716+280645210+280286026+279683819+278876204+278158575
2728+277677032+277287241+276843566+276401513+276098338+275968755+275863926
2718+275540538+274919793+274168908+273440109+272733342+272101320+271718501
2708+271617995+271547862+271213106+270607206+270011448+269623458+269301331
2698+268798783+268101871+267370820+266736709+266311878+266175954+266197410
2688+266059271+265580485+264910595+264380502+264212602+264329321+264402012
2678+264132993+263510483+262778478+262183837+261764681+261372925+260906318
2668+260469453+260232086+260184887+260151829+259988721+259657424+259172639
2658+258597203+258042357+257570056+257133678+256693858+256339592+256181673
2648+256145174+256000135+255640410+255221669+254959423+254870303+254777580
2638+254523982+254123903+253721051+253440250+253304002+253261091+253232122
2628+253116790+252832458+252403196+251963899+251615218+251313952+250989645
2618+250716249+250616986+250615076+250466974+250076336+249630517+249389710
2608+249434712+249622951+249740211+249693156+249552494+249430262+249383009
2598+249381081+249288123+248962033+248457540+247999903+247726110+247625623
2588+247698926+247929284+248141754+248132404+247902081+247603644+247347704
2578+247163428+247012534+246771349+246373955+246017185+246016410+246389376
2568+246778555+246882826+246802893+246842472+247118121+247508146+247858323
2558+248086411+248182450+248214408+248225740+248095653+247677938+247074848
2548+246569742+246306164+246190183+246044496+245752670+245339206+244954747
2538+244703509+244514135+244264645+243965577+243734101+243640171+243628497
2528+243573299+243389762+243094621+242784474+242582597+242580976+242773863
2518+243028506+243174716+243179670+243195199+243347336+243532171+243544655
2508+243333969+242997322+242629887+242313669+242126889+242061638+242030148
2498+241970878+241862680+241690870+241488291+241323165+241179585+240952596
2488+240622308+240320321+240132406+239938330+239582065+239130427+238802247
2478+238678682+238632437+238510277+238266101+237940912+237600968+237281705
2468+236971179+236673697+236463659+236398553+236390374+236271259+236012346
2458+235752335+235558691+235319163+234959313+234595787+234364798+234252438
2448+234172866+234072198+233912656+233683343+233434267+233210862+233002896
2438+232822620+232731842+232729031+232707990+232576930+232345275+232083822
2428+231870398+231758128+231722999+231663261+231537786+231492767+231723449
2418+232174943+232523696+232540954+232356030+232273143+232427730+232689488
2408+232833699+232776051+232652630+232646036+232769439+232907795+233023722
2398+233184614+233388040+233515136+233550590+233765185+234532284+235958535
2388+237852890+240115490+243001303+246912245+252057739+258394623+265771444
2378+274009240+282870627+292027047+301146031+310119976+319117845+328122993
2368+336418851+342880562+346865058+348530370+348318260+346537689+343426670
2358+339216264+334064645+328047834+321440058+315322002+311410755+310878302
2348+313856622+319767144+327365352+334669986+339772209+341942266+341750838
2338+340330639+338476711+336335045+333811965+331019813+328193648+325362006
2328+322394243+319225179+315731376+311688042+307168751+302640776+298451232
2318+294563476+290839819+287247294+283774136+280365905+276985200+273656974
2308+270426191+267307479+264312387+261474530+258784937+256174196+253637263
2298+251304296+249321271+247710960+246363704+245111064+243821673+242484560
2288+241208517+240127741+239306831+238710767+238235854+237783208+237328940
2278+236917639+236585549+236313144+236048196+235747291+235408734+235072573
2268+234766371+234480707+234230190+234061082+233953532+233817843+233615642
2258+233369052+233053086+232619554+232140552+231796284+231666720+231619268
2248+231473473+231228432+231044985+231032896+231151562+231303735+231430579
2238+231502945+231500675+231442955+231399935+231446720+231633644+231982938
2228+232448879+232912335+233292758+233635945+234047949+234597084+235286574
2218+236054267+236805981+237497399+238176765+238940549+239854038+240907252
2208+242061692+243318837+244678234+246073410+247430772+248738268+250013553
2198+251265960+252492352+253677400+254818780+255927516+256991683+258017821
2188+259067107+260134481+261086360+261817375+262368996+262845566+263292465
2178+263661215+263870226+263888673+263732104+263431920+263050145+262613118
2168+262040888+261279049+260425622+259615251+258883372+258170408+257371441
2158+256412806+255309528+254146116+253065861+252231891+251718642+251520152
2148+251579368+251757933+252222703+253906300+257803964+263741022+270611097
2138+277723637+285125679+292875826+300803241+308801419+316934890+325363952
2128+334226023+343537751+353211725+363048374+372766341+382186951+391134883
2118+399151580+405814807+411211756+415637982+419223121+422216501+425236581
2108+429046115+434201086+440778813+448324561+456016627+462872867+468116184
2098+471545456+473394125+473967508+473488488+471905361+468881607+464125237
2088+457418630+448521718+437409206+424235124+409184162+392864220+376324854
2078+360401567+345582567+332239936+320482846+310241830+301620223+294681402
2068+289146548+284630157+280771982+277220009+273942242+271183508+268950506
2058+267083642+265605832+264502698+263676852+263320893+263734284+264954408
2048+267022013+270173980+274642667+280716964+288764251+298894907+311050958
2038+325360601+341785030+359605338+377613327+394470766+408979331+420576808
2028+429496239+436387428+441984452+446700684+450337743+452515835+453066591
2018+451768534+448359114+442975352+436129993+428326954+419807061+410469103
2008+400138481+388961763+377355675+365724798+354423489+343757426+333840681
1998+324652501+316361363+309327747+303536376+298290502+292885500+287386136
1988+282322465+277997142+274426613+271525433+269117181+267023832+265174876
1978+263535164+262073675+260796084+259679421+258761031+258320924+258543464
1968+258929923+258587564+257317467+255870463+254939247+254477395+254171283
1958+254030567+254179534+254472134+254667039+254748341+254871798+255161768
1948+255715641+256736050+258321140+259846799+260052891+258508118+256393674
1938+255075873+254768824+254914944+255066289+255120100+255139880+255206500
1928+255504847+256472471+258312385+260314884+261595483+262465736+263651523
1918+264501617+263778439+261971458+260883745+261402921+262873273+264087685
1908+264441465+264244849+264099882+264212548+264417901+264631362+265059615
1898+265973285+267223565+268188289+268674371+269389010+270636048+271307073
1888+270386288+268608652+267280024+266697616+266511466+266501414+266561008
1878+266589436+266569079+266626763+267354823+269825695+274330250+278812179
1868+279859700+276746087+272365187+269439507+268410199+268393589+268576009
1858+268647799+268626487+268634972+268782155+269261626+270381640+272370898
1848+275434789+279615938+283572350+284376271+281189589+277068538+274837662
1838+274589775+274969352+275366818+276788152+280388262+285169006+288145488
1828+288161684+287080781+285980421+284096191+281558087+279845252+279580359
1818+280013134+280475905+281338393+283299133+286067038+288150100+288384116
1808+287339567+286600085+287398638+290109579+293930535+296946291+297710165
1798+297045554+297363015+300420403+305603027+309273053+307930896+303322574
1788+299947148+299646188+301286242+303377267+305556440+307537951+308646093
1778+309323855+311526303+316844490+324416180+330219152+330580426+326731726
1768+322020971+318533942+317792334+320410642+324447850+326761451+327092784
1758+327343734+327930304+328829867+331762465+338187209+346200015+351312038
1748+351668339+349730712+348427900+349006183+351311245+354052991+355668509
1738+356913133+360830253+368114747+373360189+371090113+364701291+358996970
1728+355034992+353044473+353192196+354851923+358024013+364415212+375120584
1718+386843626+391925419+387590458+379510059+373106682+370431987+371954079
1708+377170372+383899066+389253067+393461815+399734367+408590061+415117419
1698+415942400+412801800+406592913+399191610+394879059+395424374+399404836
1688+405835524+415967405+428839338+435804786+431040633+422335329+417391783
1678+418008114+422779111+428272477+431992657+435497773+440390336+443567615
1668+441500388+437630467+437439327+441406061+445479696+446534514+446687065
1658+450252315+460180986+477357832+496496553+503336760+498566086+497054083
1648+501885468+505743463+502256289+495941005+493437310+496349947+504284171
1638+516681048+530235572+536768478+533308327+528334120+528699141+534615355
1628+543038580+551696217+560744781+569922260+577198647+582768612+590235166
1618+601549914+612807736+617952330+618343112+619219724+622060554+625110790
1608+626707716+627241898+628282087+630668793+634103831+638247653+643364360
1598+649674671+656734986+663672005+669853401+675424015+681060780+687037165
1588+692922034+698308822+703257340+707849881+711999107+716277538+722364175
1578+731317078+740599297+745464874+747349897+752410252+762701458+774752590
1568+784319014+792035004+800641082+811232490+825427413+847179433+876792717
1558+898468930+900006623+893910114+889355188+886791286+884917433+882957035
1548+881667302+883026717+887703785+894357752+901124925+903413990+894092714
1538+877966290+866927027+863100414+861197448+856219818+849740525+846343751
1528+847011101+849417623+851949458+855354015+859370866+861246954+860002618
1518+857313620+853563607+848749049+844873939+844489282+848932154+858093599
1508+868528061+870542071+859118223+845264217+837857077+837343576+840963448
1498+844243196+843036837+838392629+835904030+838820810+845044290+848612495
1488+845540136+838470454+832223771+829092683+828869513+830326642+832738785
1478+836269303+840993497+846159782+849734472+848594984+842520885+836293155
1468+834024411+835495160+837151752+836208124+834845537+837378021+845180628
1458+854147222+855404024+847036034+837365771+831669124+830009001+830311221
1448+829896659+827406186+823757922+820417572+818260738+818417108+821888320
1438+827076655+829002968+825145658+820082276+818323502+819302800+819858529
1428+818670544+817302553+816988443+817392196+818598772+821265072+823642986
1418+821828294+815926564+810239068+807167502+806044228+805132234+803542946
1408+802113848+802025286+802647454+802364185+801427691+801444265+802779180
1398+804574560+806107785+806482282+804711474+801840812+800549133+801710167
1388+802979796+801506813+798332201+797543646+801167698+807533352+813896412
1378+819331552+824607800+829907900+833995947+836211510+837787899+839939833
1368+842443493+844824218+847177416+848992468+848886612+846606771+843745909
1358+841682537+840357710+839173689+838185456+838060647+839016382+840313537
1348+841002505+840910916+840787910+841674034+844038689+847163724+849390168
1338+849572264+848515285+848354231+850444986+854186423+857873816+860536728
1328+862610909+864906531+867650584+870826637+874725598+879500307+884628255
1318+889485113+894165351+899083027+903994002+908136383+911309698+914307402
1308+918022682+922294987+926048027+928537274+929977830+931082657+932366049
1298+933650666+934189821+933524489+931949613+929996566+927946381+925791348
1288+923328259+920618002+918261850+916465821+914404395+911520258+908749327
1278+907500307+907977058+909019120+909411200+909317089+910082801+912384043
1268+915164919+916837940+917080999+917019820+918019584+920479863+923472811
1258+925611126+926393916+926481901+926804803+927653240+928597445+929095164
1248+928956160+928205581+926884213+925221857+923546673+921839135+919811360
1238+917506731+915356887+913425602+911127602+908199724+905489612+904060153
1228+903757717+903347622+902018256+900191818+898756883+898055449+897902897
1218+898203821+898996987+899950848+900543543+900967402+902196893+904911761
1208+908736212+912491413+915020510+916091757+916434908+916768907+917433158
1198+919042550+922223071+926263703+929353572+930709601+931456721+933075698
1188+935955728+939493379+942696095+944742965+945637448+946238791+947304633
1178+948779489+950195040+951438367+952821058+954586172+956595931+958389222
1168+959599617+960498063+961737283+963478041+965411128+967538129+970126603
1158+972876781+974955213+976243794+977906655+981037239+985186465+988480481
1148+989372514+988536976+988446685+990731137+993940266+994703600+992023897
1138+988879694+988490065+991153410+995286639+999502449+1003061142+1005782063
1128+1007976585+1009899871+1011596601+1013357752+1015470918+1017749821
1120+1019927625+1021755360+1022447786+1021329628+1019324697+1018199405
1111+1018183119+1018263971+1018475468+1019798853+1022546437+1026200393
1103+1029899099+1032623407+1034096030+1035414875+1037689744+1040864861
1094+1044034068+1045772881+1044934028+1042079651+1039820708+1040771543
1085+1044927471+1049728986+1052511446+1052480100+1051144681+1051289233
1077+1054380328+1058502532+1059833339+1057062120+1053559850+1053906460
1068+1058851591+1064433807+1066476786+1065289738+1064161852+1064567911
1060+1064988814+1063966785+1062605567+1063183274+1065859878+1067805936
1051+1066488459+1062834647+1060122373+1060634721+1063420208+1065549371
1043+1065839269+1066210595+1068722037+1072292116+1073741823+1071930518
1034+1068925319+1067398075+1068176181+1069639652+1069393999+1066860146
1025+1063842985+1062625600+1063837725+1065826658+1065989803+1063438800
1017+1060455003+1060122085+1062912256+1066493359+1068410089+1068169047
1008+1066695632+1064904000+1063326890+1062102083+1060753692+1058730746
1000+1056416677+1054883740+1054209905+1053000519+1050563587+1048631509
991+1049285311+1051863481+1053822005+1054239090+1054401441+1054806564
983+1053888589+1051103102+1048281224+1046259720+1043470629+1038954473
974+1033965817+1029891677+1027066557+1025334878+1023746671+1021026975
965+1017497827+1015056427+1014769844+1015240109+1013390179+1007394050+999005954
955+992043281+988489777+987144557+986199415+985263425+984089204+981312941
945+976136857+970329309+966958621+967379020+970188143+972773158+973464720
935+972381079+970652355+968919739+966922302+964893952+964107703+964924073
925+965627669+964654784+962816745+961862956+962123814+962678461+962756718
915+962337905+962136208+962884625+964132564+964727421+964677051+964789537
905+964369642+961783185+957831115+955826112+957532426+960903114+962388779
895+960568250+956875165+953391631+951168862+950284106+950151804+949932164
885+949451018+949136620+948779778+947787004+946641319+946199446+945652725
875+943471247+940266081+938297108+938823652+941362405+944504950+946573582
865+946433497+944628606+942977346+942671378+943257949+943302554+941975998
855+939935108+938372915+937420352+936221414+934443401+932779675+932094959
845+933031237+935978859+940345275+944256198+945975555+945506227+944279546
835+943751777+944128075+944293309+943383333+942067298+941645385+942486184
825+943890133+944896165+945155077+945608120+947502943+950010854+950401492
815+947778213+944645107+943572852+944429575+945666345+946567818+947349239
805+948152926+948934635+950013088+951971108+954513464+956184684+956281965
795+955661239+954825629+953598659+952942623+954418488+957481263+959553282
785+959443102+958984151+960483003+963829190+966940966+968400690+968350247
776+966993138+964352564+961458194+959397560+957592380+955202720+953102237
766+952244576+951659519+950307814+949336082+950358400+953163272+956793088
756+961002485+964762298+965452274+961974001+956825876+953331676+952398569
746+952806934+953295935+953779531+955268943+958772510+963604146+967328290
736+968293248+967024268+964383189+960324038+955424953+951944878+952155510
726+955746342+959390354+959969286+958190480+956996442+957226674+957639579
716+958100981+959430275+960706462+960227549+959104635+959833740+961949860
706+962873888+962262530+962194793+963355395+963527907+960096256+952941975
696+944367099+937368756+933973280+933646487+933969821+933766467+933342032
686+931572666+927304685+923296552+923236310+925983893+926949572+924193125
676+920193568+917954513+917667786+917029548+913938526+908652046+903632116
666+900975689+901015754+902825186+903344596+899008013+890841790+884136300
656+882872004+886846268+893049571+898685399+902052628+901738950+897750850
646+892615264+888967000+886301205+882399289+877557925+874245605+873601099
636+874745343+876520978+878304684+878243001+873971632+866355157+860104944
626+860142775+866199003+871469342+870530325+867346634+868754330+874002114
616+876209894+871215690+861533393+852298158+847127406+846583423+848501594
606+849615717+848038967+844271084+839915765+836086558
##END=
