##TITLE=<SNM>
##JCAMP-DX=4.24
##DATA TYPE=INFRARED SPECTRUM
##DATE=2/5/2025
##SAMPLING PROCEDURE=Instrument type and / or accessory
##ORIGIN=Admin
##XUNITS=1/CM
##YUNITS=ABSORBANCE
##RESOLUTION=4
##FIRSTX=4497.3318
##LASTX=599.83466
##DELTAX=-1.4281778
##MAXY=1.8574406
##MINY=0.37816676
##XFACTOR=1
##YFACTOR=1.7298764e-09
##NPOINTS=2730
##FIRSTY=0.39618209
##XYDATA=(X++(Y..Y))
4497+229023357+230026234+231650611+233247337+234374393+234403974+233080501
4487+231142195+229740387+229486032+230240567+231453075+232481931+232753100
4477+232021392+230712908+229737131+229770846+230920660+232891114+234907169
4467+235694541+234534166+232351498+230762335+230253437+230159148+230046356
4457+230185507+230786420+231573533+232150223+232351877+232265341+232080880
4447+231865013+231503742+230983491+230529240+230319265+230353600+230688909
4437+231481346+232625819+233477348+233193879+231659897+229982544+229535460
4427+230447407+231540266+231896851+231837449+231898866+231688564+230631592
4417+229234297+228487066+228416690+228374412+228356943+228783147+229368038
4407+229536149+229541145+229979167+230585524+230531583+229756994+229193191
4397+229516888+230248957+230435830+229913097+229299918+228957615+228734340
4387+228546417+228523038+228647718+228695990+228496473+228018930+227352774
4377+226842429+226962491+227714976+228434245+228530946+228142041+227730843
4367+227379426+226792864+225768332+224508000+223510360+223116528+223243309
4357+223666153+224405235+225583475+227002184+228081657+228314924+227807370
4347+227171932+226722057+226080813+224897697+223587645+222887981+222957031
4337+223408388+224007940+224728260+225301212+225359477+224931240+224364680
4327+223907879+223646720+223551415+223356462+222778756+221991350+221511963
4317+221607682+222124436+222722713+223074095+223085518+223049270+223316476
4307+223839002+224382097+225007302+225803787+226395793+226332515+225692994
4297+224832627+223874526+222885311+222194830+222088757+222448684+222982132
4287+223534497+223965455+224026529+223663793+223224978+223069323+223177412
4277+223377308+223657160+224022222+224388989+224808611+225444531+226222169
4267+226758167+226664550+225905053+224873612+223973087+223270805+222770521
4257+222741371+223417174+224434729+225013297+224860967+224555842+224753171
4247+225317458+225603753+225336925+224753275+224161148+223867411+224201617
4237+225093821+225854093+225785767+224941698+224017484+223576947+223685517
4227+224227545+225075094+225812384+225865170+225231852+224656970+224819000
4217+225659434+226632764+227278108+227343299+226602340+225036434+223258142
4207+222235453+222327968+222930896+223232852+223045704+222805011+222981305
4197+223525952+223905330+223799618+223532050+223598413+224091082+224757840
4187+225293166+225460846+225287929+225137976+225265377+225462242+225453283
4177+225386146+225566092+225935064+226196293+226288463+226388919+226502831
4167+226351190+225797533+225218689+225195483+225837967+226587661+226771036
4157+226282037+225571106+225029061+224682933+224477403+224486740+224705450
4147+224826563+224455454+223653198+223135410+223624909+225003960+226431576
4137+227214968+227166764+226392744+225297990+224609869+224892736+226012211
4127+227172501+227506603+226795311+225657246+224928501+224909016+225239656
4117+225351018+225054024+224768470+225014176+225683915+226155617+226085086
4107+225689634+225336787+225287326+225769245+226779220+227725537+227761888
4097+226656005+224996310+223544954+222812126+223064844+224101126+225124159
4087+225456246+225286292+225253886+225494010+225543524+225147107+224767970
4077+225002943+225644721+225828578+225199704+224338321+223842413+223684966
4067+223697939+223928742+224254042+224340509+224208870+224224358+224390729
4057+224240242+223637365+223225409+223736840+225011953+226050044+226215915
4047+226028199+226317854+226972707+227109188+226352620+225337132+224830146
4037+224834040+224896336+225062276+225883191+227383940+228695594+229042377
4027+228582010+227964041+227472630+226952895+226420377+226371433+227231041
4017+228597998+229436881+229171139+228269838+227559907+227269994+227052473
4007+226711910+226469908+226555307+226984336+227742248+228727707+229528310
3997+229670665+229159114+228567125+228521453+229029352+229369382+228986162
3987+228385042+228485344+229235399+229649406+229196051+228459794+228362628
3977+229232419+230635123+231831660+232380165+232303415+231745227+230786730
3967+229734960+229229921+229730205+230983491+232195429+232782181+232841238
3957+232776427+232690993+232417188+232063291+232174463+233061068+234165555
3947+234717196+234944640+235645045+236615895+236651919+235259069+233325793
3937+232170879+232839981+235635277+239382782+241746499+241452951+239742175
3927+238680913+238951892+239678139+239917470+239940194+240657999+242120639
3917+243122999+242550961+240778319+239104360+238281860+238285013+239288286
3907+242125101+247178386+252927010+256510660+256501202+253724340+249404365
3897+244853415+242056310+242516298+245492746+247788361+247048608+245390498
3887+246212291+249342758+251733161+252294966+252442748+251981537+249820422
3878+247524342+247523170+249930888+253443696+257239663+260006412+259847863
3868+257809393+257068072+258156090+258510160+256537639+253814666+252740483
3858+254862646+261063609+270304040+276103108+272099250+262907608+255285990
3848+251710300+252182399+255422883+259596265+263515895+267061660+269947472
3838+270963149+269666741+267349488+265164116+263171679+261359758+260297186
3828+260220470+260739981+262296204+266201965+271596468+274446273+273548694
3818+272117546+270890654+267593006+262619642+259195834+259384464+263032701
3808+267933225+271401602+273774364+277190919+280702073+281114752+279048167
3798+277423790+276316735+274601049+273060969+273167662+274953517+277565921
3788+280619258+284090253+287647647+291258034+295809467+301797406+308006517
3778+313137397+318042245+324587337+333891805+346092886+359967669+373104748
3768+384165404+393464462+401075072+407391997+413877721+420608256+425132847
3758+426093378+425955416+428261006+434652665+443589384+450426284+452937542
3748+455193687+461420371+470975644+478496221+482048774+486349298+495470907
3738+510030227+526990891+540181101+545210886+544444068+543257093+544315478
3728+547862070+553429404+559616739+564250763+565680240+564227850+561924534
3718+560626163+561123535+563606918+567416099+569938383+568500017+564026902
3708+559214086+555617292+553746847+552891235+551602029+550188678+550529792
3698+552888376+556211658+560755648+567550788+575476119+580494052+579128767
3688+573321206+568497570+567744672+571110680+576880340+582547286+587179001
3678+592194005+597285433+598414832+595142820+591439350+587939652+582113485
3668+574291556+567603333+563406005+561025474+559651471+559364521+560550566
3658+562553460+563741124+563974219+565237859+568538711+571958539+571492694
3648+565790499+558451850+552830386+549241896+546379393+543348401+540582410
3638+538975554+538672479+539296959+541288655+545820896+552458433+556847751
3628+554756719+549052043+544419053+542908053+545053664+549946142+554649388
3618+556297212+555529153+555047975+556048061+557833606+559669492+561332063
3608+562256242+562361471+562956147+565033121+567661357+569290920+570388620
3598+572720775+576359296+579484973+581026949+582091571+584358363+587888933
3588+590714877+591173211+590328901+590283075+591688742+593851546+595709897
3578+596278146+595048341+592626842+590649135+590907693+594404014+600234868
3568+604986559+605347933+602320904+599286914+597401894+595909880+594471686
3558+593593540+593578930+593974003+594044155+593841623+594582427+597066361
3548+600064793+601430974+600661433+599075492+597589541+596190352+595175071
3538+594575329+593205909+590398709+587592198+586355020+586071103+585077184
3528+583141859+581373163+580454497+580366289+581187721+582736863+583945235
3518+583937655+583034632+581695533+579942894+578544255+578544737+579211875
3508+578906457+577732575+576731834+575710730+574141638+572804538+572819698
3498+574120654+575531077+575861923+575142792+574546324+574601419+574263371
3488+572512247+570145360+568844198+568783349+568337178+566481204+564131235
3478+562389691+561288373+560661652+560347655+559528429+557691578+555814036
3468+555159647+555795981+557129808+558655830+559593034+559037361+556963592
3458+554375876+552409540+551580701+551716423+552121729+551807353+550234091
3448+547888360+545607165+543712946+542338668+541793573+542124420+543112860
3438+544612454+546071012+546361545+544894959+542218278+539295581+537172092
3428+536663934+537329073+537671084+537033130+536314102+536289501+536552331
3418+536419641+535660265+534349558+532952505+532188236+532022227+531382516
3408+529564583+527419765+526520118+527282905+528411650+528503372+527759742
3398+527232978+526945719+526113055+524791391+523739449+522927389+521722566
3388+520296190+519406639+519060839+518709146+518545273+519372459+521182158
3378+522853585+523467798+523161415+522509403+521669607+520522807+519460976
3368+519306751+520417544+522325650+524061647+524688884+523963241+522631171
3358+521672398+521411738+521634152+522015787+522260907+522264008+522040939
3348+521375353+520133730+518910163+518491212+518849796+519389687+519690798
3338+519543740+518918639+518098344+517375457+516837013+516715177+517413669
3328+518801971+519875551+519635324+518287129+517155490+517267679+518174527
3318+518344119+516880703+514573115+512842148+511974718+511075278+509653554
3308+508391741+508276726+509595496+511684357+513458325+514361969+514542208
3298+514083978+513029796+512065269+511824731+511724257+510907305+509938471
3288+510052968+511235085+512451417+513308993+514129494+514863786+515167895
3278+515087302+514748048+514082324+513508287+513875209+515236772+516666318
3268+517341277+516951131+515485786+513500189+512077948+511885960+512570911
3258+513258515+513417943+513168722+512866957+512544793+511954665+511097709
3248+510295642+509772841+509445991+509051435+508363728+507351548+506188382
3238+505157940+504437913+503862015+503187987+502667012+502764832+503289356
3228+503477348+502913131+501862188+500757356+499753308+498691408+497431076
3218+496337511+496066514+496706845+497502331+497567969+496673801+495265205
3208+493892753+492755291+491760270+490851286+490163441+489820293+489628787
3198+489282228+488905727+488839158+488810388+488117581+486760186+485552744
3188+484967233+484562237+483735878+482480163+481135207+479799209+478311089
3178+476722253+475441695+474742238+474347303+473640817+472305750+470844367
3168+470191977+470567823+471053653+470620334+469157745+467271692+465611739
3158+464497500+463827365+463321516+462847471+462366981+461869885+461594822
3148+461857859+462453121+462674984+462051261+460724877+459192687+457915609
3138+457048317+456421562+455842425+455306152+454813017+454198184+453319521
3128+452289252+451402664+450904844+450865323+451148723+451425681+451313768
3118+450643012+449555305+448307239+447094043+446093406+445469545+445101658
3108+444521143+443417724+442083622+441157685+440969831+441247202+441479780
3098+441419930+441111686+440620206+439977773+439262880+438507949+437676525
3088+436873976+436312377+435965887+435591419+435055353+434297010+433163580
3078+431710087+430466018+429999449+430292773+430729848+430665794+430058335
3068+429559308+429796469+430608425+431251443+431198105+430355518+428775399
3058+426739462+424929798+423932641+423658854+423578847+423348715+422974385
3048+422604327+422434115+422600399+422890174+422734709+421805878+420547096
3038+419745339+419592872+419589219+419345615+418939758+418453101+417801745
3028+417020592+416138036+415000092+413734626+412898171+412668143+412476430
3018+411835927+410946893+410245334+409863182+409654138+409433619+409134954
3008+408808828+408415168+407728701+406592273+405191739+403975614+403264097
2998+402934491+402598166+402140693+401862220+401988674+402305634+402343915
2988+401756853+400570602+399201837+398154822+397630470+397463117+397368122
2978+397143124+396707669+396101726+395460499+394909754+394443978+393971172
2968+393525449+393254556+393098057+392770966+392223219+391802787+391776290
2958+391895232+391583267+390535839+389108567+387995156+387484104+387239673
2948+386877196+386431990+386076921+385676714+384946867+383978377+383280160
2938+383144989+383239399+383080832+382620534+382003220+381145093+380028305
2928+379044345+378571057+378505142+378483263+378256715+377717340+376852770
2918+375774676+374683729+373839006+373450238+373415507+373334122+372954899
2908+372406359+371892551+371453822+371119461+370994662+371033046+370904559
2898+370331831+369521667+368974126+368864350+368904077+368780656+368447432
2888+367997746+367447174+366660129+365577073+364545047+364069830+364152593
2878+364293690+364173611+363881769+363558778+363221764+362832514+362342825
2868+361771510+361212323+360710161+360281356+359997508+359838700+359609946
2858+359179350+358628811+358092366+357594201+357057893+356396165+355645196
2848+355002247+354617373+354380419+354030139+353488043+352986536+352782866
2838+352837513+352893608+352775734+352518657+352297071+352244456+352237634
2828+351931940+351136937+350030416+348953976+348133027+347589518+347233863
2818+347031916+347017617+347108684+347057862+346665787+345968569+345208642
2808+344609210+344108565+343439842+342588227+341921056+341691096+341684446
2798+341534941+341159474+340723330+340332358+339919092+339401356+338822977
2788+338284327+337816896+337372689+336880485+336312995+335758080+335382510
2778+335264877+335301469+335274938+334972208+334317819+333483363+332757789
2768+332223720+331694028+331030991+330360615+329864069+329492874+329073338
2758+328631784+328371159+328297182+328131242+327668291+326982134+326236023
2748+325531053+324951778+324575174+324431527+324492101+324597708+324451133
2738+323878611+323057835+322298665+321669740+321039608+320394867+319890672
2728+319600208+319396125+319122923+318774297+318464641+318286676+318183136
2718+317951695+317452703+316780190+316126801+315566994+315080372+314652014
2708+314260560+313886505+313545494+313222434+312865436+312519118+312302597
2698+312167874+311847260+311162654+310307593+309700272+309535089+309575403
2688+309467142+309144186+308790771+308530938+308328061+308104820+307802400
2678+307359433+306757969+306092244+305514693+305101979+304831361+304678859
2668+304632274+304619043+304552819+304415856+304173044+303737004+303148908
2658+302598198+302185001+301887026+301711128+301589601+301298930+300812101
2648+300464302+300462476+300557230+300445834+300164983+299889679+299644456
2638+299367188+299066835+298800318+298552097+298229658+297803919+297370566
2628+297009674+296681618+296329822+295992532+295750754+295610587+295477070
2618+295267750+295028625+294850039+294692920+294428229+294037463+293651384
2608+293388898+293234328+293095160+292944450+292828505+292708633+292441116
2598+292003766+291577373+291312234+291185298+291128652+291107083+291014878
2588+290681241+290091836+289508565+289241220+289305791+289410710+289316645
2578+289077106+288835897+288560921+288151411+287679984+287304190+286998375
2568+286610452+286171138+285904293+285900141+286004181+286070130+286086979
2558+286001632+285703535+285303070+285137475+285331927+285595619+285608454
2548+285394413+285176823+285058881+284960491+284744039+284363007+283957236
2538+283740404+283731290+283722418+283588470+283456952+283467374+283536063
2528+283499849+283347915+283173775+283028422+282937510+282926708+282925605
2518+282783681+282479159+282198497+282136942+282294130+282509911+282667823
2508+282813778+283016897+283143609+282954979+282491149+282120851+282079193
2498+282199807+282233660+282172156+282107895+282017638+281843118+281615639
2488+281385956+281153326+280932928+280794828+280771932+280781442+280683949
2478+280428475+280126588+279938527+279872889+279786990+279623238+279502797
2468+279520507+279613659+279702107+279791986+279882123+279899695+279763405
2458+279455523+279054989+278696216+278464499+278376188+278440311+278607423
2448+278707345+278620275+278475301+278508482+278762320+279067772+279268582
2438+279308310+279142559+278776533+278390539+278205872+278205545+278193813
2428+278101694+278013194+277953413+277875646+277807078+277847995+278043154
2418+278309981+278493080+278517079+278483433+278557840+278765903+278956738
2408+278980753+278864516+278750277+278682881+278592727+278505898+278571140
2398+278819379+279093752+279274956+279399773+279520231+279605234+279606630
2388+279482709+279112134+278282020+276794054+274517407+271340907+267169955
2378+262044675+256278151+250421800+244954250+239949204+235178424+230587367
2368+226479332+223187886+220792005+219238090+218609130+219167025+221169040
2358+224753774+229995981+237067837+246251950+257115156+267521820+274497819
2348+276257023+273402480+268779482+265381550+263752453+262587512+261156657
2338+259777779+258776642+257910849+256762068+255434082+254603554+254744634
2328+255536898+256247657+256534073+256710212+257325028+258647450+260560172
2318+262722838+264713827+266222294+267275029+268195470+269284194+270593832
2308+271983030+273291841+274441777+275397190+276089739+276462587+276579083
2298+276596277+276624944+276688481+276794382+276961889+277183890+277427718
2288+277678368+277941147+278189333+278329431+278250079+277937322+277518802
2278+277131292+276761149+276310481+275806545+275421120+275272304+275305675
2268+275380307+275406183+275390299+275378756+275368454+275309775+275204994
2258+275147246+275226082+275416210+275567954+275521197+275258798+274931707
2248+274716977+274676181+274738598+274780221+274742905+274690756+274712566
2238+274798517+274874475+274907226+274925573+274988008+275140872+275355774
2228+275528347+275565008+275454559+275291841+275243275+275394882+275625013
2218+275727985+275634127+275423359+275204633+275066395+275062347+275162355
2208+275251303+275226908+275116977+275068342+275158703+275263139+275202427
2198+274978774+274771538+274733964+274851958+274992470+275075423+275155274
2188+275288774+275415124+275464259+275463501+275433179+275316873+275122782
2178+274992763+275026047+275138425+275176568+275097664+274977826+274911205
2168+274957807+275137754+275420913+275740320+276015986+276132964+275978119
2158+275607148+275287138+275233507+275386715+275566093+275720129+275878317
2148+275980565+275933998+275787353+275715322+275840915+276135789+276478144
2138+276760029+276933480+276995226+276986715+277010180+277162251+277404046
2128+277576447+277607337+277606630+277687412+277821670+277955118+278103331
2118+278239484+278264344+278172760+278091702+278119663+278276645+278583975
2108+279046616+279596551+280125951+280518319+280686240+280688600+280709584
2098+280823220+280935478+281023254+281205406+281507017+281781683+281932221
2088+282016449+282085016+282095801+282060260+282107137+282292821+282487273
2078+282577427+282654126+282855091+283138543+283350672+283446563+283547829
2068+283802287+284197997+284531049+284623167+284534684+284464463+284509634
2058+284620118+284708825+284724313+284668115+284589073+284540369+284537544
2048+284581768+284731945+285113218+285760474+286442117+286788504+286682896
2038+286399857+286282069+286395240+286555409+286604819+286581388+286631522
2028+286829834+287131703+287446837+287691665+287838930+288005042+288384885
2018+288963574+289406988+289424940+289137405+288900864+288910322+289110770
2008+289357372+289545708+289680431+289872386+290226249+290722450+291196565
1998+291473453+291660205+292180663+293197322+294157405+294382437+293948463
1988+293459705+293258895+293308684+293499743+293747585+293983850+294186141
1978+294343398+294436361+294468198+294451625+294479603+294835017+295720364
1968+296768550+297203282+296735369+295938023+295516109+295598596+295903188
1958+296223491+296506099+296698777+296791808+296897312+297133922+297486614
1948+297909044+298578973+299777250+301219682+301870039+301093504+299615031
1938+298600818+298410862+298666870+298945068+299092574+299159178+299236428
1928+299447264+300095726+301396303+302904891+303905804+304461166+305018974
1918+305157832+304133765+302485113+301601937+302070297+303287869+304234032
1908+304330095+303783760+303234738+303101049+303323497+303651587+304037460
1898+304666937+305540673+306274069+306731645+307456255+308717724+309644832
1888+309301581+308148269+307318879+307201142+307452637+307719120+307901013
1878+308072638+308360553+308876532+309939293+312186170+315790028+319314085
1868+320310691+318211769+315126301+313125613+312596437+312890037+313356916
1858+313682594+313815284+313869587+314020263+314492242+315532538+317271085
1848+319808150+323183289+326473046+327492772+325423757+322418917+320720029
1838+320590061+321094634+321741305+323206581+326288637+330170349+332542232
1828+332530551+331643929+330818087+329443912+327484502+326083796+325906934
1818+326464811+327068584+327766249+329088395+331035677+332673681+333077954
1808+332468496+331952000+332578893+334766815+337898075+340412020+341124501
1798+340624338+340737216+342830729+346527894+349207055+348241391+344776632
1788+342147742+341870888+343169845+344850161+346552013+348060084+348864184
1778+349250746+350697278+354501050+360132920+364617680+365109919+362393992
1768+358911454+356152802+355224040+356673881+359167221+360472622+360560726
1758+360941844+361741912+362588428+364654824+369183826+374806462+378063623
1748+377570592+375321372+373619521+373415369+374591284+376168060+376939082
1738+377529314+380452527+386462518+391333392+390226424+385325607+380599551
1728+377242777+375634922+375930176+377495650+380110345+385029079+393226061
1718+402307943+406445835+403442063+397543090+392853661+390883776+391978822
1708+395856261+401015636+405359058+408997785+414215976+421189977+425991043
1698+426278923+423820418+419350370+413915244+410590101+410890144+413846849
1688+418679064+426339807+436218484+441882571+438640432+431971574+427870137
1678+428109055+431838539+436225582+438943163+441136943+444305587+446255728
1668+444286911+440966626+440509843+443247098+445858243+445777685+444719920
1658+446214588+452673505+464726012+478040230+481727299+476719669+474489917
1648+477445554+479955226+476746062+470814804+467337503+467883320+472411013
1638+480521890+489464914+492842120+488476612+482866828+481244433+483756035
1628+487940098+491811782+495292563+498144246+499104604+498858037+500291476
1618+504558509+508716557+508990517+506764486+505698348+506923811+509279052
1608+511230227+512392394+513390240+514700706+516197165+517659306+519232120
1598+521191082+523444815+525486954+526943445+528012925+529118067+530355762
1588+531572817+532726198+533909452+535192766+536703249+538972453+542956636
1578+548920214+554415776+555494835+553385783+553114407+556181647+559539248
1568+560085824+559079157+559209263+561882050+568824179+582280252+599232197
1558+605569692+597418157+587577726+582214234+581093380+582624467+585135828
1548+588160929+593031286+601067669+611974996+624439253+635387652+638386496
1538+633202589+628644196+629470520+633836373+637416215+639334243+642655528
1528+649049048+657103968+665136148+673515644+682346651+689518257+694159551
1518+697873841+700679525+701538100+701999466+705214212+712794880+724265011
1508+736554989+741813322+735490919+726425610+722470267+724292163+729674537
1498+735227330+737653309+736887835+736634032+739980055+746277788+751183704
1488+750772092+746493827+742774231+742113158+743950973+746336225+748556433
1478+751808874+757254440+764331912+770295628+771316146+767064205+762303487
1468+761105313+763688894+767189763+768514941+768498058+770776979+777068716
1458+784392066+785869195+780158938+773734959+770504707+770219136+771057313
1448+770994396+769242721+766938096+765559167+765325210+765842808+767336959
1438+769803114+771269148+769804561+767264395+766453369+767304639+767875369
1428+767549346+767703640+769140525+771167021+773379235+776197875+778619995
1418+777937765+773998616+769742196+767099488+766061535+765896215+766124934
1408+766889927+768145642+768775567+768050888+767451284+768827457+771839189
1398+774673127+776252039+776410468+775348120+774272541+774715508+776565176
1388+777723587+776449266+774229747+774340558+778010468+783739262+789492314
1378+794679943+799947441+805426843+809716410+811417779+811348591+811595090
1368+813184752+815890996+819273750+822600892+824446769+824024614+822467616
1358+821477350+821555083+822023616+822050009+821382734+820384888+819620033
1348+819351207+819512186+820226321+821782699+823887962+825637018+826438258
1338+826427370+825976410+825416844+825016810+824867684+825117904+826184111
1328+828293646+831069284+833886477+836491007+839149151+842108096+844958573
1318+847052809+848639922+850680270+853515173+856596781+859272015+861265640
1308+862814782+864591334+866985683+869570159+871726141+873324004+874414055
1298+874915941+875003942+875228250+875790021+876014881+875087463+873141594
1288+870993675+869007906+866964733+864772917+862606737+860640539+859104076
1278+858225310+857809495+857262471+856270000+855198280+854763238+855422313
1268+856971662+858704869+860153537+861427376+862486623+862698941+861819623
1258+860702146+860332226+860903507+862142476+863711465+865294581+866994986
1248+869284795+872008956+874101608+874830973+874722436+874831179+875531050
1238+876359028+877066961+878391519+881019548+884131340+886064736+886431899
1228+886642219+888232364+891296261+894539193+896728941+897987413+899307216
1218+901221316+903724339+906856460+910256166+912734931+913555605+913681300
1208+914686727+916850909+919393281+922128881+925372915+928411522+929779219
1198+929417707+929132824+930511341+933443065+936650851+939161316+941199045
1188+943702206+947034240+950430707+952934901+954653292+956558227+958916741
1178+960519842+960167770+958442558+957318258+958429602+961757640+965526025
1168+967835129+968720787+969702852+971478233+973369385+974708553+975707915
1158+977135979+979521300+982506225+985123572+986953118+988185678+988377254
1148+986770708+984165006+982783113+984124624+988125311+993786572+999458032
1138+1003013617+1003188585+1001024265+999179352+999683788+1002198595+1004610723
1128+1005593615+1005824608+1006802263+1008817182+1010423590+1010367151
1120+1009464059+1009511677+1010764016+1011857236+1012212409+1012825657
1111+1014802536+1017999848+1021019090+1022685314+1023212422+1023710174
1103+1024747024+1025661969+1025619244+1025270618+1026342338+1029495270
1094+1033291358+1035682950+1036645375+1037142093+1037108533+1036799325
1085+1037676850+1040858105+1045457432+1049211622+1050762625+1050696538
1077+1049821424+1047868044+1045029488+1042822098+1042101278+1041838724
1068+1040980286+1039823460+1039196499+1039748897+1041203424+1042501451
1060+1043525690+1045527929+1049068078+1052320450+1052903583+1051164382
1051+1049476588+1048944794+1049464735+1051668611+1055746618+1059372356
1043+1060048176+1058760830+1058460994+1060254361+1062632584+1063634496
1034+1063617612+1065340275+1069889365+1073741823+1072909572+1068639921
1025+1065005776+1063119516+1061104942+1058079015+1055531888+1055429278
1017+1058795080+1064741912+1069695584+1070234821+1067347751+1064607465
1008+1063313986+1062238958+1060593201+1058956816+1057829346+1057129614
1000+1056627176+1056040666+1055145085+1053522551+1050741813+1047280500
991+1044848732+1045216447+1048113991+1050765450+1050189414+1045993430
983+1040574050+1036615950+1034955997+1034852009+1035333083+1035447202
974+1034171089+1031443344+1028390748+1025352003+1021289983+1016140670
965+1011784327+1009760519+1009403141+1008907939+1007377403+1005404727
957+1004152458+1003811688+1002844990+999461202+993756802+987575462+982814813
947+980487102+980238536+980234677+978905571+976932206+975926918+975892324
937+975647341+974579481+972560083+969727109+967389475+967157173+968458645
927+969026618+968268172+967583738+967578225+967668224+967536671+967306367
917+966900269+965983118+964231719+961763911+959856563+960069708+961922133
907+963016456+962147475+960216077+957911039+955408981+953641525+953226606
897+953374422+953572200+954472467+955717362+955130783+951515314+946680790
887+943772151+944469817+947768636+950955334+951942775+950687267+948637685
877+947466112+947504978+946909096+943912939+939870490+937972653+939165313
867+941291180+942039772+941226196+940142693+939650661+939435242+939160007
857+939429246+940718453+942369033+943559764+944323516+944629210+943695383
847+941211105+938242857+936322968+935944365+936183765+935702828+934286479
837+933244874+933840688+935655003+936978045+936628937+934617188+931416156
827+928029198+926407629+928087842+932589934+938179320+943359437+946969325
817+947902945+945784865+942109442+939609658+939927894+942571359+946100206
807+949084511+950451174+950757970+951680565+952921946+952185965+949057911
797+946104410+945408330+946491489+947850572+948409035+948000456+947806537
787+948909199+950016477+949055430+946777474+945945912+947510422+949972442
777+952563121+956443902+961067761+962304112+957933711+952092521+949896984
767+951272812+952866058+953233911+953004089+952183002+950496656+948951786
757+949274846+951878756+955488299+958621729+960502476+960704112+959265850
747+957511487+957022901+957378900+956678547+954555299+952890040+953413013
737+955944428+958824675+960510401+960889141+960332332+958157193+954208947
727+950861270+951137538+955012806+958786773+958870570+955567617+951997836
717+950454758+951449365+954913504+960483043+966297840+968686675+965514930
707+959385412+954777471+953266988+953425073+953974784+954267247+952887628
697+949336935+945159144+941536507+938069957+934318386+930527328+926951070
687+924042844+922838331+923998327+926387025+926633730+922003530+915148920
677+912463487+916285072+921580617+919988336+907128042+887129978+873245651
667+877476505+892701722+904944013+910635527+912562927+912829272+911632201
657+908933744+904323805+898000988+892239460+889210639+889921880+893578008
647+897625969+899634961+898963758+897106924+895328924+893099482+889758076
637+885799080+881388986+875986903+871201100+869993555+871729862+872983717
627+871931292+869451562+867540218+866913256+866327917+864515255+862823809
617+864162012+868221413+871064103+869358186+863331829+857522752+856630823
607+861524680+870087895+879140386+884464323+882172653+872894131
##END=
