##TITLE=<SNM>
##JCAMP-DX=4.24
##DATA TYPE=INFRARED SPECTRUM
##DATE=2/5/2025
##SAMPLING PROCEDURE=Instrument type and / or accessory
##ORIGIN=Admin
##XUNITS=1/CM
##YUNITS=ABSORBANCE
##RESOLUTION=4
##FIRSTX=4497.3318
##LASTX=599.83466
##DELTAX=-1.4281778
##MAXY=1.7863289
##MINY=0.22572967
##XFACTOR=1
##YFACTOR=1.6636484e-09
##NPOINTS=2730
##FIRSTY=0.24586459
##XYDATA=(X++(Y..Y))
4497+147786382+148630545+149673551+149915352+148977473+147516116+146237015
4487+145204641+144465184+144629302+146078657+147985208+148943804+148468228
4477+147209244+145985066+145348534+145650973+146652070+147461443+147516833
4467+147109311+146661403+146289708+146255296+146982195+148383692+149710821
4457+150214029+149717306+148592380+147382623+146452071+145854796+145480370
4447+145295213+145372672+145642661+145751084+145343213+144515119+143855129
4437+143840368+144288026+144724505+145107610+145666934+146208657+146237311
4427+145719843+145144459+144866401+144807160+144726673+144561480+144435035
4417+144397649+144382199+144455771+144770472+145164290+145183261+144646096
4407+143908915+143433795+143294103+143265710+143227974+143157179+142912297
4397+142466798+142152849+142244003+142520082+142629240+142603418+142664629
4387+142777827+142686430+142257985+141635264+141096739+140805451+140694546
4377+140666090+140787098+141065381+141163638+140732909+139937633+139260060
4367+138972033+139103251+139538074+139872964+139629040+138796226+137867922
4357+137362224+137477652+138024409+138550081+138697691+138526677+138422365
4347+138725270+139432517+140165470+140470892+140179103+139431881+138473401
4337+137525526+136762702+136258964+135945571+135721935+135683518+136094274
4327+136990969+137947693+138403564+138236571+137956587+138153200+138681542
4317+138806822+138343606+137965804+138122164+138431492+138444605+138295400
4307+138298598+138426673+138464758+138437806+138615565+139026410+139219584
4297+138828220+138210157+138131462+138844773+139783449+140212216+139999875
4287+139650026+139665011+139980349+140070222+139599527+138878854+138555061
4277+138865777+139360799+139459244+139148323+138890462+138886539+138828005
4267+138540327+138426171+138871921+139577144+139961700+139980375+140026557
4257+140213094+140266244+140063066+139841937+139917928+140492183+141539201
4247+142548852+142707587+141814277+140698953+140307178+140691537+141189156
4237+141246086+140857087+140441872+140394391+140689826+141022244+141254398
4227+141482083+141765149+142043431+142202578+142126345+141843665+141605599
4217+141654531+142035468+142694223+143499871+144108224+144098336+143400243
4207+142499911+142118598+142623678+143725898+144728106+145045745+144624671
4197+144013550+143872111+144305089+144874614+145208546+145259466+145058061
4187+144609543+143987996+143341145+142871005+142766854+143021159+143427194
4177+143814393+144114682+144280690+144381903+144656218+145262314+146055843
4167+146703867+146985751+146948293+146756471+146486976+146186829+145988577
4157+145955911+145964295+145940290+146069431+146561327+147247203+147574444
4147+147109338+146064335+145224722+145254011+146108528+147149716+147746533
4137+147708663+147222912+146545231+145821665+145178101+144870870+145100454
4127+145613139+145811490+145404532+144695359+144191792+144147384+144436934
4117+144715700+144797943+144909143+145399015+146225380+146907019+147017422
4107+146606667+146087891+145873875+146234400+147149770+148033405+148091518
4097+147298678+146435957+145959727+145565900+144938092+144235753+143829673
4087+143962307+144577101+145367056+146085464+146645217+146908712+146782894
4077+146515279+146456433+146585117+146647896+146610626+146609587+146635069
4067+146631549+146732288+146991429+147045538+146518092+145674494+145199508
4057+145370666+145845741+146240804+146574718+147019930+147443547+147517433
4047+147270339+147110207+147183672+147173443+146911166+146694042+146728490
4037+146716398+146325384+145762289+145561529+145960076+146702282+147408813
4027+147968862+148472294+148839295+148816455+148422700+148054481+148015518
4017+148250333+148582652+148854047+148781380+148082409+146936899+146091617
4007+146242514+147302207+148474748+149117712+149312184+149510087+149930686
3997+150447079+150788714+150724027+150239592+149619613+149248563+149315382
3987+149725394+150250359+150712204+150988651+150974911+150759712+150739308
3977+151256928+152113944+152712588+152698508+152227213+151649295+151215565
3967+151112417+151537226+152551006+153847591+154843206+155167876+154924177
3957+154344825+153541533+152803734+152819301+154161244+156400832+158058184
3947+158140695+157509573+157628915+158457143+158734682+158003511+157045497
3937+156666816+157293604+159082533+161364075+162507855+161566626+159827569
3927+159557321+161430374+163724061+164446956+163990905+164259022+165654312
3917+166279720+164359805+160666134+157539614+156422669+157220246+159561190
3907+163845194+170349188+177539407+182455984+183493571+181188580+176454581
3897+170738617+166744029+166657756+169796116+172405893+171789890+170539863
3887+172371337+176352347+178558346+178514672+178593224+178139950+175286366
3878+172189996+172257835+175643443+180409042+185101929+187915978+186977096
3868+184267306+183555786+184797000+184597064+181518965+177983993+176900062
3858+179950914+188049597+199640367+206341073+200467556+188671028+179316567
3848+174716760+174662624+178247380+184072134+190753959+197261482+201899051
3838+202208638+198250110+193305265+189636601+187061989+185044712+183871768
3828+183668751+184420559+187462596+194200831+201908724+204319586+201096672
3818+197627712+194821689+190019169+184206596+181095267+182514903+187628013
3808+193260910+196434812+198699425+203267094+208538276+209552432+206552241
3798+203663098+201612250+199221130+197141136+196805037+198449366+201808281
3788+206927213+213253126+219297862+224737577+231462753+240763580+250877820
3778+259449733+267354786+277293471+290670340+306660586+321961688+332573270
3768+337874009+339890283+339857322+339305504+340703249+344675032+349108205
3758+352464469+356530730+364554982+378322802+395710471+409884291+417015430
3748+422150144+430149567+439257139+444568197+447659516+454449504+467554190
3738+486134096+506422947+522519243+531123365+534882046+538669460+545376507
3728+555210593+565627166+572770522+575608539+576241757+575831315+573853700
3718+570611403+568334304+569549005+573875089+576285897+572209962+564348261
3708+557767614+554280865+554119462+556462376+558170210+556598593+553685589
3698+553272854+556703210+562890505+570880899+580509262+589435869+591551242
3688+584683329+575826120+570930986+570344165+572588947+577133651+584765769
3678+595235652+603487051+602660148+595971445+591075236+587216883+579798728
3668+570265559+563168313+559354422+557282400+556289723+557347427+561017076
3658+565018883+565591804+563062872+562214508+566225488+573722176+578772874
3648+575603129+566126245+556665842+550904108+548731124+548473594+549140383
3638+550855633+553894213+558056063+563152548+569621628+577150275+581884293
3628+579343000+572343205+567063819+566757170+572425000+582438332+590922861
3618+592622920+590200683+589479077+592377213+597266042+601620859+603383437
3608+602137638+599878202+599070646+600364419+602657425+604622716+606270001
3598+608815843+612548012+615589566+616400274+616751744+619401128+623546533
3588+624829235+621277566+616391174+613741431+613643693+615064690+617454897
3578+620477893+623034842+623619406+622391019+622024931+625149247+631337187
3568+636557279+636392185+630959994+624268890+619464973+617155593+616612732
3558+616878215+616800469+615364210+612617159+609728876+608029928+607926314
3548+608445457+608424677+607851434+607087015+605993268+604761226+604128653
3538+604134170+603841387+602537331+600497984+598705060+598033972+598444307
3528+598917518+598213791+595843863+592680495+590371366+589557576+589175760
3518+588065425+586523044+585750349+586349674+587424002+587227882+585293044
3508+583359748+583379524+585129921+586272537+584880202+581447625+577698761
3498+574335188+571150001+568798667+568744137+571058891+573667038+574425259
3488+573558193+573283323+574784968+576514800+576080640+572962128+568516165
3478+564511814+562535130+563162580+564807787+564843973+562652860+560234421
3468+559267754+559092629+558245985+556644345+555508321+555795158+557088536
3458+557699291+556140429+552846326+549904372+549067940+550536372+553038290
3448+554500382+553620346+551190048+549011045+547877494+547391491+547007419
3438+546246833+544690873+542804260+541842359+542196014+542673238+541898680
3428+539828271+537547159+535950857+534910207+533715425+532170644+530777521
3418+529722718+528420920+526574075+525169273+525551554+527522470+529217441
3408+529267743+528366784+527919870+527766349+526439865+523604463+520776980
3398+519365190+519210451+519375544+519485034+519891964+520919968+522009523
3388+521764068+519551960+516831816+515760533+516795666+518421418+518768767
3378+517127322+514423552+512458261+512302518+513330664+514056390+513689550
3368+512558793+511492490+511124253+511471531+512091170+512641985+512836350
3358+512109908+510372051+508827377+508867433+510381223+512053301+512937563
3348+513024230+512705579+512234123+511398837+509757965+507550873+506006522
3338+506066569+507128573+507792065+507571868+507158489+507153329+507313443
3328+507060822+506110744+504546723+502766876+501311951+500511274+500384050
3318+500695894+500915231+500618864+500190186+500474156+501562995+502529124
3308+502600779+502042083+501535623+501242839+500818389+499913883+498448532
3298+496821024+495947008+496464897+497703925+498167643+497453347+496769755
3288+497099584+498020427+498851880+499777416+501134998+502504295+503196199
3278+503074708+502383234+501398116+500449973+499826715+499486889+499156307
3268+498771697+498327398+497468358+496039479+494814388+494562770+494622602
3258+493714084+491998835+490869188+490777649+490804161+490440976+490385372
3248+491296863+492781741+493841882+493754032+492549434+490868436+489389040
3238+488550386+488597069+489242720+489357368+487995774+485842316+484514829
3228+484432676+484478822+483771727+482653331+481675916+480657837+479271951
3218+477799004+476710452+476090598+475910707+476288151+476982922+477198604
3208+476447800+475197414+474165613+473374072+472349544+470961867+469545599
3198+468344441+467382181+466740579+466371268+465751879+464351913+462436530
3188+460898591+460202173+459852137+459207561+458505052+458357908+458402334
3178+457487081+455319292+452816729+450794795+449383901+448588240+448465172
3168+448779381+448957086+448385205+446837915+444840380+443360518+442841017
3158+442767534+442396324+441597259+440652663+439573211+438172528+436617679
3148+435336374+434464042+433772747+432988515+431955783+430792458+429924282
3138+429578760+429422086+429012719+428281333+427429673+426765751+426499910
3128+426313462+425597196+424445300+423689551+423715813+424031527+424083835
3118+423709937+422763979+421114509+419126468+417500286+416494675+415771744
3108+415117137+414808732+415005713+415246116+415002560+414409003+413880294
3098+413288958+412233439+410935725+410046626+409624863+409141655+408475583
3088+408077466+408110320+408132497+407752330+407159418+406844851+406943018
3078+407007365+406521004+405469713+404179845+402841825+401598963+400806850
3068+400612449+400452156+399616368+398269068+397276928+397050354+397133654
3058+396968452+396537302+396040122+395396048+394439485+393329257+392402252
3048+391777453+391356550+391045673+390740744+390261298+389533996+388699391
3038+387900254+387114410+386289048+385509474+384912943+384507052+384187541
3028+383851119+383358381+382558098+381566962+380790970+380366412+379846589
3018+378811205+377557451+376731194+376375174+375822246+374666875+373423297
3008+372830671+372791798+372529970+371661865+370582915+369812513+369362911
2998+368833701+367963841+366983202+366347798+366213337+366336297+366372734
2988+366038749+365170931+363946341+362855353+362187382+361732549+361167475
2978+360501690+359968359+359701085+359652861+359646197+359423635+358827248
2968+357976771+357129016+356365887+355590290+354795059+354102546+353544888
2958+353030976+352500655+351923149+351237443+350468904+349769870+349212857
2948+348690382+348077335+347378767+346753073+346456706+346620116+346998242
2938+347082795+346550467+345550517+344533943+343827242+343393799+342968381
2928+342287477+341210497+339880072+338751178+338141535+337789958+337213956
2918+336480635+336198134+336639925+337250035+337262144+336569560+335672148
2908+334955273+334405282+333940884+333619151+333420666+333086931+332365326
2898+331361829+330478641+330002312+329885872+329857210+329586926+328920066
2888+328131821+327695010+327614792+327330428+326481420+325403759+324653707
2878+324373821+324308328+324169353+323823329+323311459+322826854+322560189
2868+322478287+322309897+321807450+321034611+320367034+320117459+320174245
2858+320144150+319786590+319139435+318364232+317693717+317361021+317356937
2848+317376033+317093066+316388587+315359974+314276868+313484682+313191003
2838+313269860+313323744+313043572+312492614+311937214+311470057+310939091
2828+310204623+309376646+308768758+308544513+308467376+308197808+307728502
2818+307253964+306796445+306280061+305778509+305403393+305092051+304708874
2808+304286860+304020768+303981680+303949686+303636624+302975926+302111225
2798+301277909+300731107+300534897+300413459+300031052+299351133+298578563
2788+297925066+297471488+297031309+296240969+295051562+293933022+293320763
2778+293110849+292907079+292501796+291943888+291372616+290920041+290602285
2768+290255025+289725295+289102539+288568707+288069197+287360598+286369300
2758+285297497+284399315+283799023+283449631+283144469+282683797+282098821
2748+281575683+281161838+280720369+280143275+279466078+278831248+278390424
2738+278153048+277934428+277549011+277021521+276532563+276176041+275816690
2728+275254876+274522702+273843660+273286916+272737159+272209435+271855977
2718+271688447+271590440+271486719+271284741+270874030+270328948+269845704
2708+269434689+268928122+268253989+267516154+266877705+266430127+266075774
2698+265582140+264865891+264126498+263612389+263372451+263293433+263239942
2688+263088499+262757666+262306345+261909876+261637550+261343387+260864604
2678+260243979+259691427+259386874+259321040+259284424+259065661+258666379
2668+258248467+257946942+257823677+257856226+257876451+257679918+257242534
2658+256697613+256148124+255633997+255220402+254992718+254944691+254907412
2648+254661115+254155694+253554434+253052255+252732905+252577395+252512117
2638+252459397+252373679+252229437+252028497+251827146+251673768+251540883
2628+251365847+251073618+250571117+249889245+249291891+249033752+249050036
2618+249050967+248885874+248678825+248605701+248625747+248520145+248199236
2608+247845958+247686184+247718572+247745694+247625134+247432291+247351482
2598+247417244+247455006+247324719+247108499+246972139+246944999+246930776
2588+246855735+246699042+246443233+246126910+245891021+245821909+245801685
2578+245665593+245429023+245211889+245055251+244957620+244952873+244998840
2568+244934261+244715175+244574641+244764330+245227474+245695491+246005705
2558+246148389+246129078+245981038+245809137+245692338+245625860+245558110
2548+245385313+244999431+244446055+243923921+243574189+243374593+243216485
2538+242982549+242611123+242161307+241772720+241553902+241533373+241647663
2528+241738343+241657211+241440132+241307372+241416987+241662317+241777664
2518+241611621+241246465+240892434+240711845+240717577+240809027+240893957
2508+240949293+240993038+241035476+241031410+240901731+240657709+240411233
2498+240197109+239946046+239687765+239565825+239610108+239684952+239661610
2488+239508572+239252548+238939145+238615675+238326922+238097052+237896507
2478+237693059+237523881+237400437+237206931+236857970+236461250+236169900
2468+236004322+235933992+235969569+236067110+236078485+235884586+235511871
2458+235076511+234649875+234212025+233754111+233377616+233203136+233184004
2448+233127002+232937581+232740726+232696980+232785725+232833287+232685874
2438+232316329+231852791+231529321+231496252+231642267+231696564+231522084
2428+231226649+230986908+230857695+230784822+230737691+230763200+230902749
2418+231101753+231237899+231234889+231144693+231126510+231303105+231605938
2408+231824165+231845804+231770925+231745935+231789143+231849244+231947053
2398+232155015+232459909+232759947+233044759+233514406+234489098+236258931
2388+239040609+243018717+248402128+255440617+264338759+275117119+287571300
2378+301353935+316068502+331338935+346890400+362519576+377781482+391761940
2368+403517499+412576131+418500988+420601887+419010888+415194955+410344032
2358+404039723+395252773+383779249+370506172+357661022+348392260+345003823
2348+348124950+356940384+368915388+380041420+387266893+390241879+390255744
2338+388748689+386622783+384262958+381896325+379687442+377553690+375142846
2328+372119420+368358124+363783791+358313945+352158752+345833520+339683307
2318+333730217+327956194+322361059+316825182+311175912+305366348+299534391
2308+293923187+288698564+283823905+279183488+274779533+270701377+266966181
2298+263491399+260195683+257084140+254242325+251742055+249550513+247567147
2288+245744486+244108541+242659455+241359197+240245995+239419989+238858282
2278+238397951+237943495+237506809+237041694+236473109+235876238+235391758
2268+234995666+234555971+234077904+233724554+233586492+233532804+233349707
2258+232992039+232603327+232294886+232036103+231768435+231490018+231231647
2248+231047027+230978757+230974028+230910774+230747597+230578777+230520073
2238+230580962+230675494+230748761+230833064+230958676+231099801+231241911
2228+231411340+231625052+231888798+232225202+232655546+233179346+233769428
2218+234370759+234947370+235532937+236191736+236944673+237747016+238528274
2208+239286907+240129412+241140147+242257217+243346074+244331245+245226453
2198+246098660+247000317+247940507+248948070+250062472+251194734+252146370
2188+252836519+253396523+254009230+254712473+255387485+255951770+256471899
2178+256986545+257370564+257511510+257459202+257312864+257098919+256772224
2168+256258151+255524293+254625054+253653802+252677964+251716241+250784937
2158+249971828+249363385+248909054+248525805+248256990+248178635+248310589
2148+248644968+249134177+249929157+251724589+255297253+260608257+266918082
2138+273688544+280837329+288354529+296151023+304126961+312247123+320608656
2128+329283251+338151602+347109164+356207636+365436485+374626247+383520429
2118+391727438+398787423+404393701+408484540+411250687+413067543+414353613
2108+415613959+417448981+420236839+423933359+428150239+432201453+435348090
2098+437226678+437846675+437367803+436028493+433872420+430618228+426069691
2088+420216811+412901124+403892651+393133745+380806519+367503634+354049557
2078+340991518+328691951+317584872+307836845+299291731+291959831+285963301
2068+281130578+277121641+273655493+270516542+267706470+265376149+263462880
2058+261813356+260476035+259450217+258601746+258030617+257980853+258501357
2048+259623229+261550094+264505537+268677239+274163942+280906995+289029629
2038+298990456+310924652+324186658+337751980+350664021+362247142+372330768
2028+381039005+388393386+394447546+399376502+403221204+405993944+407745200
2018+408110535+406405926+402476849+396905718+390394469+383337278+375812572
2008+367748732+359130995+350089381+340854656+331699326+322871639+314539162
1998+306859681+300146167+294759172+290564756+286705292+282402783+277809765
1988+273553868+269914511+266897553+264518076+262663851+261119088+259807311
1978+258714370+257739320+256823278+256011065+255390405+255140525+255372795
1968+255717278+255465446+254418149+253188311+252418840+252129997+252020060
1958+252010225+252184903+252461242+252650860+252744478+252935708+253396684
1948+254183191+255399989+257138383+258881023+259425388+258232846+256323500
1938+254993631+254492474+254396258+254451200+254672508+255071001+255561356
1928+256154465+257203392+258988828+260954764+262242410+263061503+264134792
1918+264960978+264411077+262912692+262127009+262845211+264421431+265745729
1908+266258352+266181161+266035611+266102913+266373502+266791109+267395665
1898+268272117+269282941+270006177+270429480+271292533+272844391+273872394
1888+273196129+271456445+270044602+269377580+269080622+268841007+268591736
1878+268384151+268280734+268355148+269088272+271464255+275783406+280113144
1868+281135056+278030625+273561231+270469303+269314058+269280881+269489972
1858+269491781+269273160+269099701+269208796+269729730+270821507+272709320
1848+275743619+280049962+284198501+285105765+281877406+277620470+275211811
1838+274787415+275042669+275416405+276956332+280823338+285924553+289092149
1828+289077889+287843895+286607142+284640919+282038487+280295166+280099297
1818+280662848+281142867+281789306+283382562+285839910+287821288+288110094
1808+287119603+286423131+287350620+290252052+294215362+297330470+298212691
1798+297618901+297852909+300676578+305591023+309154013+307959053+303572600
1788+300328798+300127465+301918078+304129182+306284539+308136077+309118866
1778+309715038+311847000+317063866+324492948+330175217+330532132+326760947
1768+322067487+318466376+317545247+320018968+323997452+326371321+326920631
1758+327505052+328347970+329227646+331895840+338029286+345906859+351024483
1748+351353632+349284656+347848181+348393228+350722170+353410069+354894302
1738+356136518+360343296+368168453+373935059+371860745+365409830+359566015
1728+355429388+353260667+353296746+354911606+358011846+364274809+374911793
1718+386764553+392121399+388002399+380004732+373555823+370695951+371924339
1708+376846021+383435697+388932020+393546373+400326580+409499394+415878654
1698+416306114+412901231+406536195+399006724+394750254+395592383+399810267
1688+406013040+415456926+427750403+434987986+431084167+422914205+418022080
1678+418476769+423071023+428446391+432161219+435767238+440712996+443725028
1668+441395800+437479370+437510648+441741143+445815465+446603782+446574510
1658+450217898+460297331+477415505+496242586+502959450+498463257+497307170
1648+502504224+506738373+503355131+496716085+493769761+496468480+504413803
1638+516728310+530004718+536553550+533658961+529285764+529946068+535867916
1628+544160946+552795343+562033973+571296070+578109812+582883634+589889878
1618+601301420+612709093+617523400+617493018+618394944+621707928+625533535
1608+628193095+629853635+631556524+633938849+637084662+641004424+645859001
1598+651734954+658340071+664908501+670724120+676003757+681597817+687576953
1588+693025983+697370017+700950992+704265840+707583482+711611586+717892822
1578+727469987+737929660+743776664+745226395+748694083+757462332+768999128
1568+779056527+787904600+798291113+810803639+825735608+845930160+871800316
1558+890585766+892910982+889202173+886697676+885451303+884312915+882370052
1548+879898229+879210625+882424582+889171648+896738380+899232846+889773768
1538+873663642+862445712+858194114+855783987+850331303+843796766+841121944
1528+842858869+845665465+847613989+850181185+853660768+855395472+854497559
1518+852452946+849101912+844301649+840569481+840730419+845777534+855249152
1508+865722009+867699123+856472738+843273109+836741295+836872997+840660340
1498+843883684+842685750+837681198+833955765+835158787+840279779+844195743
1488+842369177+836251961+830426095+827310879+826519876+826976464+828712386
1478+832395900+837988384+844555453+849734772+849320174+842491349+835215968
1468+832830561+835117370+837613269+836785220+835263117+838137141+846759356
1458+856416417+857983949+849881021+840129087+833463851+830140477+828900195
1448+827728128+825189165+821769987+818770065+816971874+817216075+820531425
1438+826026171+829061634+825894468+820098626+816841246+816605859+816840243
1428+816194199+815763622+816389818+817511940+819068223+821960160+825149539
1418+824658772+818996925+811597509+805880344+802871465+801986522+802252435
1408+803153286+804188634+804207049+802738115+801392857+801990964+804425526
1398+807376651+809706524+810158025+807749474+803924799+801676899+802133415
1388+803456459+802837859+800176006+798650608+800936914+806573395+813104994
1378+819055755+824806167+830431756+834412640+835900563+836495302+837829453
1368+839613599+841304020+843595414+846704038+848729519+847708646+844563693
1358+841905352+840942161+840750196+839951884+838480800+837373367+837393215
1348+838293636+839014489+838701355+837957859+838533251+841307889+845107127
1338+848018985+849593611+850832747+852552045+854718257+856926030+858948215
1328+861024285+863787458+867553878+871684808+875253960+878178788+880954716
1318+883773063+886695025+890019617+893839277+897815575+901756117+905948312
1308+910633568+915348919+919031573+921091449+922152378+923101310+923838070
1298+923779098+923103101+922632684+922800787+923258307+923268912+922282719
1288+920338925+918008479+915775053+913539264+911000802+908496448+906931065
1278+906661211+907114933+907707236+908451161+909500482+910640805+911587372
1268+912439999+913543348+914930739+916273345+917590370+919398592+921789014
1258+923954797+925274043+926366787+928219507+930647548+932316616+932181331
1248+930559484+928632600+927039057+925337386+923023349+920595236+919117488
1238+918971383+919361546+919073134+917647551+915620278+913565991+911325759
1228+908590173+905752120+903530733+902223309+901745153+901821825+901898066
1218+901592098+901459607+902562669+905168989+908393837+911042003+912551423
1208+913212014+913646747+914300172+915391411+917022788+919171015+921687693
1198+924355852+926939671+929128742+930582915+931288434+931820761+932877964
1188+934597334+936826675+939606615+942604030+944726389+945299775+945185485
1178+946020628+948669726+952344999+955041748+955605102+955203546+955621941
1168+956783188+957633736+958615845+961202531+965257936+968526924+969463603
1158+969525155+971399372+975585476+979771295+981554509+980993591+980171418
1148+981030494+983833364+987283640+990145339+992393382+994561386+996907597
1138+999321378+1001059952+1001167721+1000107151+999761199+1001278142+1004350007
1128+1008192166+1011498988+1012938974+1013167841+1014052641+1015302238
1120+1014827952+1013162395+1014147154+1019880513+1027184484+1030482135
1111+1028339998+1025061194+1024663148+1026293737+1027133896+1027081301
1103+1027725769+1028915606+1029357647+1029123335+1029471651+1030895228
1094+1032690552+1033940580+1034772713+1036529272+1039615611+1041948852
1085+1041550806+1039525110+1038446554+1039604432+1042919280+1047903195
1077+1053479628+1057967474+1060254067+1060349226+1059077988+1057954218
1068+1058460248+1060363628+1061320872+1059563310+1055983051+1052601206
1060+1050459571+1049902092+1051764916+1056522544+1062739218+1067675840
1051+1069816329+1070188578+1070351092+1070586194+1070710946+1071008029
1043+1071761341+1072761936+1073714092+1073741823+1071643038+1068389599
1034+1066805873+1067805322+1068558706+1065956041+1061114218+1058200999
1025+1059608094+1063770051+1067142796+1067735386+1066385686+1064966481
1017+1064418174+1064222412+1063038307+1060354958+1057620017+1056895295
1008+1058480383+1060478778+1060723481+1058881509+1056652168+1055766437
1000+1055971371+1055925368+1055223504+1054230218+1053117912+1052118320
991+1051592943+1050712586+1047772209+1043086165+1039356577+1038354333
983+1039074111+1039468001+1038896621+1038302813+1038262041+1037740534
974+1035607498+1032519941+1029897785+1027403965+1023199731+1017273118
965+1012362291+1010611895+1011102304+1011773141+1012225501+1012623403
957+1011478208+1007286156+1001243246+995638294+990988221+986504102+982077235
947+978695891+977004467+976155351+974594483+972117645+970492502+971421012
937+974174798+976121458+975739105+973530688+970318523+966925141+964925097
927+965241742+966495710+966885444+966921343+968186633+970482398+972173894
917+972381910+971042743+967790092+962934225+958879536+958003406+959502794
907+960688618+960907812+961472528+962391293+962229208+960487339+958104942
897+956331831+955978928+956868816+957757629+957553124+956444043+955220743
887+953919697+952133115+950238476+948972613+948115185+947236977+946914385
877+947729894+949004929+949498276+949104673+948671445+948513589+948092327
867+946894680+945126154+943372533+942034585+941503977+942144647+943336204
857+943560198+942399812+941368835+941732199+942763678+942758160+940923640
847+938420218+937436820+938741592+940593238+940869899+939561257+938213779
837+938130372+939490175+941379440+942773494+943453217+943602475+943212885
827+942396946+941700527+941596627+942046336+943078173+945263231+948866133
817+952956219+956208440+958216796+959079240+958820349+957970660+957273597
807+956490189+954838963+952808681+952104524+953520792+955701479+956822813
797+956882717+956829979+956177700+953893758+951546401+951989087+954970164
787+957194919+956966984+956100957+956540634+957901871+959376538+961578864
777+964519958+966083477+964739366+961629596+958746329+956798594+955158188
767+952998783+950426786+948232556+946834274+946773940+949476780+955281077
757+960802694+961900239+959368870+957220715+957637104+960352268+964044739
747+967206890+969397608+971654178+974258563+975344786+973211105+969010096
737+965611627+964403518+964452673+964439345+964276831+964153656+963895051
727+964106578+965621873+967758206+968882335+968123218+965304154+960755473
717+956333479+954308571+954325338+953989059+953211599+954667564+958980570
707+963204867+965167364+965483005+964636971+962266827+959325591+957365244
697+956313559+955266316+953971719+951737362+946713320+938547693+930086129
687+924203082+921448006+921168192+922433196+923844806+923877839+921909897
677+918355075+914123111+910616657+908919572+908115384+906047340+903052648
667+902729626+905469296+907745858+907540135+905665918+903985242+902929974
657+901666762+900179054+898933398+897515267+894694626+890342855+886198238
647+883826733+883387199+884400191+886021250+886987593+886615774+885289004
637+883371722+880644735+877775368+876317039+876189349+875662467+873985876
627+871264549+866954911+861582695+857767837+857397235+859400719+860543263
617+858304679+854328452+852553836+853735218+855219057+855520152+856925027
607+861998225+868233170+868912535+861441749+851239964+845276234
##END=
