##TITLE=<SNM>
##JCAMP-DX=4.24
##DATA TYPE=INFRARED SPECTRUM
##DATE=2/5/2025
##SAMPLING PROCEDURE=Instrument type and / or accessory
##ORIGIN=Admin
##XUNITS=1/CM
##YUNITS=ABSORBANCE
##RESOLUTION=4
##FIRSTX=4497.3318
##LASTX=599.83466
##DELTAX=-1.4281778
##MAXY=1.7175349
##MINY=0.22573002
##XFACTOR=1
##YFACTOR=1.599579e-09
##NPOINTS=2730
##FIRSTY=0.24357304
##XYDATA=(X++(Y..Y))
4497+152273214+152534240+153158995+153945238+154702398+155159397+155347434
4487+155394935+155152466+154704867+154668815+155300353+155995675+156114711
4477+155595501+154693502+153839235+153573711+154004896+154588644+154756848
4467+154361873+153494723+152447827+151781980+151913089+152698447+153639675
4457+154307786+154509293+154264477+153729459+153157803+152907724+153285083
4447+154233028+155198122+155302160+153894226+151325400+148980756+148108697
4437+148740058+149929595+150754461+150866845+150436973+149922990+149743365
4427+149905588+149976127+149574696+148734319+147603256+146295745+145285031
4417+145215602+146008058+146851425+147182719+147008702+146493750+145927524
4407+145748589+146081280+146548470+146712184+146480149+146153821+146112711
4397+146260019+146053705+145412982+145065703+145495445+146112962+146060384
4387+145386973+144766828+144380125+143827771+143020921+142402761+142236951
4377+142327192+142453979+142516226+142330583+141850584+141505512+141864529
4367+142934220+144038324+144484815+144224553+143629636+142858540+141932757
4357+141194275+141118390+141805076+142935208+143970245+144368313+143993264
4347+143293247+142778024+142535733+142462074+142529631+142618307+142499355
4337+142197574+142050293+142229489+142474110+142485512+142374302+142473560
4327+142804313+142983919+142741367+142379546+142467952+143014782+143327677
4317+142979401+142429394+142293032+142523557+142751167+143053144+143872663
4307+145166284+146094107+145957968+145152367+144637033+144730860+144989696
4297+144978601+144684534+144367763+144241350+144256907+144288729+144433150
4287+144805553+145228476+145398114+145163471+144586915+144000716+143850426
4277+144153326+144375085+144146339+143808618+143982104+144794962+145739785
4267+146212873+146057525+145576519+145161841+145014187+145138365+145430961
4257+145728653+145958443+146242469+146600200+146723074+146545079+146688187
4247+147551163+148392862+148284931+147482236+146885725+146709957+146553379
4237+146245431+145910104+145548078+145081195+144659111+144579229+144922577
4227+145514998+146192360+146754104+146802266+146187786+145503549+145539480
4217+146355663+147358068+148071537+148435239+148499154+148212650+147619111
4207+147108147+147207601+147965934+148716973+148691420+147797311+146661152
4197+146008729+146112152+146726772+147362269+147647124+147621589+147648465
4187+147956618+148460345+149024763+149510445+149602633+149141125+148560377
4177+148459283+148852740+149331650+149742499+150259770+150953183+151587208
4167+151838936+151643102+151261830+150963961+150768360+150574566+150357790
4157+150173572+150125494+150348074+150890116+151566443+152014825+152031510
4147+151812470+151644201+151482099+151204492+150991554+150931906+150699424
4137+150194477+149934607+150299232+150986673+151562400+151953985+152174645
4127+152073216+151588847+150999063+150736444+150939153+151241773+151171533
4117+150745099+150500804+150930490+151959621+152980116+153411907+153226059
4107+152857820+152685955+152769004+153016000+153362329+153726357+153978877
4097+154063035+154038665+153918763+153600186+153125655+152879218+153264784
4087+154256000+155478729+156598148+157367213+157513823+156977706+156177787
4077+155691248+155608534+155443749+154832985+154115958+153903327+154204587
4067+154459408+154419369+154464988+154914572+155431620+155368339+154590703
4057+153723991+153469254+153869502+154433715+154806100+155047777+155359368
4047+155778862+156128544+156161652+155813050+155316581+155040930+155241180
4037+155906692+156745950+157356052+157526362+157408127+157351954+157597664
4027+158108778+158639063+158979700+159130819+159104121+158750442+158127241
4017+157715228+157788468+157945642+157746882+157381335+157251698+157368442
4007+157541621+157792436+158319368+159207413+160202215+160813547+160813137
3997+160531320+160491430+160844326+161264612+161371370+161189789+161130746
3987+161470731+162018511+162412136+162488264+162283393+162027734+162149881
3977+162861189+163768126+164256864+164121171+163560461+162870784+162370197
3967+162316967+162789123+163773473+165121023+166287122+166595210+165985313
3957+165111633+164621740+164712288+165454729+167072881+169297651+170772788
3947+170404074+169219735+169133788+170148582+170461999+169211630+167403587
3937+166339830+166837138+169249619+172765654+175189053+175042536+173659456
3927+173532818+175171278+176701005+176629107+175971923+176510574+178076763
3917+178559017+176484658+172916754+170043315+168866782+169132111+170931062
3907+175306709+182712076+191260365+197361146+198825496+196028110+190230685
3897+183486377+178968982+178983030+182523397+185087425+183585514+181318656
3887+182701084+186713774+189196123+189902419+191243410+191681024+188713906
3878+185424503+186283502+191062295+196602253+200930857+202718033+200784843
3868+197511836+196674282+197835817+196994630+192569162+187721060+186313592
3858+190422662+200729564+215060596+223543694+216884960+202716877+191279928
3848+185950746+186601092+191455901+198176957+205261492+211846446+215901578
3838+214974650+210162041+205282154+201850687+198893984+196121061+194714599
3828+195119943+196646820+199920404+206665383+215051560+218808573+216548813
3818+213183171+209707082+203593948+196158771+191677241+192642849+198590796
3808+205757011+209968964+212617821+217441870+222366304+221776994+216923899
3798+212800445+209462992+205075663+200863486+199161177+200075175+202224488
3788+204779555+207461761+209884117+212526527+216775258+222203708+225741933
3778+225890536+225320883+227340093+233248039+242421559+252156124+259213178
3768+263505003+267205600+271223321+276241210+284258580+296069833+308950471
3758+319370763+327974610+338863183+355357222+376469490+394830801+404763660
3748+411728879+422414594+435169619+442305353+443689550+447114887+456960328
3738+472673378+489936259+502712337+508012510+508246333+507894611+509517737
3728+513113886+517130135+520083615+521908630+522502710+521138112+519320698
3718+520967896+528790382+542576652+559370581+572862998+577146085+575017155
3708+573497321+575332062+579985652+585541298+589117736+589927827+590696855
3698+593356071+597039638+601353281+608461999+619681614+630062744+629796315
3688+617833198+604676444+597660435+597338895+601604879+607887259+615112908
3678+623691193+630896161+631124507+626628911+624467152+624424300+620651711
3668+612057776+603647509+599087969+598905382+602085083+607360924+613727481
3658+619810320+623979458+627054674+632642441+643254487+657151018+665743872
3648+661341731+650126326+642026979+639851433+640981686+642063049+642286626
3638+643145009+645819503+650017072+655846823+664786519+675958475+682098996
3628+676911729+666713448+660933033+662651217+670904310+681673531+688094491
3618+687666045+686501809+690012701+696341623+700425094+701067428+700089729
3608+698232929+696549101+696918971+699208690+701297935+702173832+703063889
3598+704883949+706798507+707935094+708897962+711583337+717751954+726433494
3588+732250277+730034786+722341378+715694755+713214922+713800095+713822676
3578+710267218+703901182+698345387+696575185+699926071+708861520+721908311
3568+733592555+737309063+733182590+727424384+724267711+723297018+722169895
3558+720342085+719728368+721580623+724366830+725789818+725645835+724767926
3548+722999214+720414449+718635975+718661984+718988256+717805240+715538400
3538+713359203+710659594+706580967+703262351+704478158+710968949+719022538
3528+724225679+725508336+724191695+721417710+718276464+716015736+714904785
3518+714291516+713834600+713703510+714220046+715730825+718075320+720337614
3508+721696212+722186664+721994612+720742436+718203802+715433394+714320581
3498+715458286+717513771+719242239+721292210+724775453+728707935+730657818
3488+729662681+727066960+724767181+723766453+723679333+722998543+720762781
3478+718006831+716923679+718387358+720305866+719701167+716800861+714480438
3468+713671762+712668129+710834207+709793013+710587230+711945903+712471829
3458+713108648+715645643+719833449+723490784+725154117+725260464+724427270
3448+722641492+720673425+719774052+719936741+720221876+720399619+720605831
3438+719854540+717116253+713824241+713067957+715880994+719761085+721620494
3428+721462500+721804050+723995470+726475303+726394592+722566967+717025108
3418+713447739+713959207+717269849+720256753+721121695+719953286+717383277
3408+714633215+713317543+713947357+715694978+717076158+716768591+714887570
3398+713282218+713900928+716863611+720232086+721565196+720301469+718683746
3388+719268770+721969198+724569018+725238181+723490113+719811911+715500542
3378+712305264+711404327+712704572+714716832+715918107+716373309+716969512
3368+717744576+718191654+718438333+718800676+718756333+717673032+716353410
3358+716744967+719538627+722539094+722583810+719307374+715493462+713845109
3348+715044222+718343239+722431256+725676912+726875206+726441767+726091646
3338+726838689+728029680+728365342+727263633+725532035+724875988+726199932
3328+728399326+729318299+727843888+724922492+722966721+723947774+727064576
3318+728880164+727133884+723687158+722054754+723192682+725356826+726970152
3308+727370204+726172208+724139080+723293888+725189740+729296686+733681836
3298+736840968+738279980+737918755+735755580+732354688+728994709+726601922
3288+724967952+723989582+724738265+727850521+731922515+734817678+735585588
3278+734478364+732421984+730519723+729041660+727845229+727697073+729181321
3268+730670190+729839231+727337711+726113557+727231438+729077656+730251506
3258+730981706+731812813+732673060+733160829+732974366+732537573+733014908
3248+734667435+735754910+734306881+730743001+727397033+725617068+724176418
3238+721359133+718314025+718384079+722899797+729191456+733134447+733004475
3228+730338328+727657947+726241517+725864716+725722075+724995825+723312072
3218+721507737+720844237+721091289+720890965+720108821+720310784+722731966
3208+726698656+730165802+731517022+730497887+727593482+723941812+721591578
3198+721726246+723213996+724422873+724985167+724557243+722160654+718192101
3188+714989819+714264761+715557703+717806954+720884257+724582209+727502785
3178+728332476+727269297+725007525+721569891+717290046+713553416+711428100
3168+710391154+709288252+708218738+708452226+710400395+712753758+714131063
3158+714600275+714498398+713385063+711515966+710296059+710344873+710534988
3148+709777884+708555965+707660766+706795228+705433052+703849909+702811472
3138+703001810+704421519+705744643+705306955+703224939+701483205+701725786
3128+703377940+704139068+702677997+700015576+697501313+695065897+692447148
3118+690451656+689808948+690305362+691589286+693250308+694125982+693260071
3108+691445303+690209075+689898379+689856943+689832200+690176508+690712569
3098+690722481+690078209+689348307+688884684+688489625+687946409+687574378
3088+688173414+689686876+690136413+687608287+683144662+679677591+678709804
3078+679578174+681156622+682860571+683978527+683343123+680614972+677211172
3068+675013194+674634605+675479947+676707977+677642749+677915587+677496381
3058+676376190+674548603+672418517+670657333+669596165+669102062+668888323
3048+668694632+668279525+667514074+666483463+665427214+664556682+664042606
3038+664180255+665073516+666137814+666486444+665674936+663747858+661142822
3028+658764716+657448001+657180902+657227779+656851798+655799052+654360413
3018+652976253+651982382+651981040+653541901+655738686+656107438+653302451
3008+648816021+645169865+643529858+643488348+644078515+644482889+644461948
2998+644397781+644464407+644111380+643008702+641871444+641483018+641479962
2988+640923034+639598270+638083094+636931006+636311998+636211463+636503230
2978+636765783+636470364+635539467+634325895+633026470+631623827+630308677
2968+629506262+629412435+629564541+628944415+626972994+624439913+622678840
2958+621883207+621100466+619817362+618628943+618215364+618415055+618505230
2948+617932391+616692921+615309693+614420232+614195128+614220615+614003821
2938+613375013+612379987+611244219+610361429+609761313+608882882+607461831
2928+606008213+604887574+603725052+602103826+600273669+598813790+597828825
2918+596814609+595453216+594282869+594090369+594714482+595150829+594902137
2908+594406283+593964794+593163981+591664455+589809555+588175660+587032775
2898+586317704+585618544+584369386+582555102+580922548+580247236+580735974
2888+582014346+583241668+583569803+582892367+581791291+580704338+579680284
2878+578808821+578171517+577400179+575967056+573971041+572131829+571014432
2868+570478073+569836781+568599846+567108220+566189098+566005430+565752975
2858+564921234+564161298+564196661+564519020+563939511+562067060+559671627
2848+557725768+556445533+555379894+554183463+552926518+551762617+550674844
2838+549506919+548106326+546655241+545781692+545876451+546459463+546704130
2828+546346855+545655930+544801869+543656935+542088287+540223549+538419065
2818+537047499+536309698+536063131+535764880+534846168+533304162+531706151
2808+530545194+529821739+529174262+528175957+526714104+525310604+524748682
2798+525119409+525514207+524900602+523120078+520903506+519152233+518263332
2788+517850274+517081768+515530485+513679236+512502703+512565007+513417205
2778+513809730+512739061+510428400+508076676+506617543+505937834+505335669
2768+504466293+503538488+502746171+502004010+501239193+500476575+499632910
2758+498600584+497411531+496048237+494416093+492697798+491298211+490344062
2748+489649746+489048847+488351550+487287849+485934058+484839727+484333289
2738+484071779+483591202+482899346+482241733+481652796+480978043+480082546
2728+478925911+477599545+476299263+475153249+474092119+472962649+471777695
2718+470787475+470164033+469642020+468744883+467409536+466080078+465121457
2708+464442158+463745010+462891731+461937210+461003965+460251892+459827172
2698+459627853+459233651+458351792+457195083+456154187+455329488+454629769
2688+454040050+453535177+452918330+451938023+450556769+449098717+448038667
2678+447508568+447113434+446377421+445254360+444112221+443324972+442890191
2668+442390610+441466271+440322231+439504762+439225217+439203530+439101170
2658+438788498+438207461+437267323+436022301+434839508+434156036+433966331
2648+433706647+432857579+431565719+430433156+429809751+429562438+429406978
2638+429111671+428460505+427402729+426217700+425238809+424472464+423706268
2628+422864355+422093650+421612626+421484852+421420835+420990786+420194929
2618+419482243+419047648+418565245+417787497+416919761+416202006+415523713
2608+414663392+413685879+412925198+412599522+412521643+412283050+411744902
2598+411180745+410814452+410415183+409623164+408570679+407802098+407561120
2588+407509958+407213832+406593407+405851172+405217221+404768504+404329325
2578+403678979+402951313+402529537+402415997+402065579+401081284+399810030
2568+398957161+398732541+398653470+398218800+397521615+396982871+396685328
2558+396313074+395674205+394946650+394395684+394101122+393976180+393883732
2548+393737140+393557348+393373940+393098681+392660620+392207171+391919987
2538+391667607+391120031+390221515+389312007+388720462+388394339+388035909
2528+387552574+387214303+387291772+387688434+388049659+388091467+387715673
2518+387013122+386309825+386017537+386243833+386628124+386688005+386296821
2508+385732775+385301422+385040434+384815330+384548306+384238168+383853356
2498+383348186+382759547+382180857+381687275+381364878+381284316+381319827
2488+381170404+380704098+380072607+379439328+378904161+378655171+378794161
2478+379058913+379062415+378718890+378194567+377645277+377190859+376913624
2468+376748550+376536265+376218712+375857972+375492536+375105116+374733010
2458+374501870+374485549+374599871+374713932+374780222+374774372+374642574
2448+374416017+374233578+374153389+374064108+373845934+373517911+373186198
2438+372910007+372642423+372314996+371981159+371789555+371797529+371954069
2428+372256941+372676370+372935718+372719855+372139787+371651198+371489776
2418+371493279+371465108+371400346+371308754+371077092+370663587+370308027
2408+370326583+370683747+370977637+370912912+370595359+370295581+370109156
2398+369933350+369662227+369356710+369214515+369306032+369387526+369153591
2388+368649762+368180140+367781541+367047391+365569291+363371387+360814309
2378+358220191+355696723+353257543+351040152+349339854+348293257+347546177
2368+346523315+345136099+343888656+343220908+343167957+343696231+344951686
2358+347100403+350175023+354220822+359469162+365844364+372259363+377133735
2348+379618449+380125520+379911968+379795894+379241910+377365956+374199222
2338+370432969+366645736+363081223+359801396+356870386+354422450+352544633
2328+351158498+350065955+349078046+348153037+347469341+347313769+347858401
2318+348983362+350248617+351173179+351687069+352176590+352987165+354068380
2308+355136963+355975411+356579812+357145199+357817716+358450512+358779616
2298+358775964+358625833+358513150+358612902+359082226+359855502+360628778
2288+361162529+361445353+361546446+361510041+361406264+361304201+361185408
2278+361026184+360939698+361053945+361256692+361271448+361007255+360641857
2268+360361716+360206256+360154535+360205548+360361455+360605190+360887418
2258+361122993+361248866+361305208+361422101+361692851+362072558+362437509
2248+362719290+362922558+363057561+363127279+363132943+363076229+363025478
2238+363127354+363450645+363895972+364337833+364771944+365288852+365961593
2228+366739116+367455827+368046627+368692316+369586360+370636348+371579877
2218+372340037+373104742+374092651+375371693+376888099+378571516+380370411
2208+382207388+383983552+385736725+387705314+390006510+392364270+394475352
2198+396490668+398782287+401428573+404211165+406911855+409441955+411814025
2188+414019082+415949589+417556767+418939623+420152338+421167411+422046923
2178+422880192+423666956+424419290+425139020+425680372+425899402+425836466
2168+425566535+424997980+423940204+422386013+420643982+418981916+417285308
2158+415367583+413307029+411153170+408697260+405745196+402319971+398614009
2148+394825845+391019720+387570199+385696444+386550505+389731697+393696002
2138+397479695+401097382+404716783+408354368+411974068+415463944+418777717
2128+421970646+424995409+427850254+430818676+434168295+437822053+441521979
2118+445144212+448808366+452621980+456309535+459435094+462008791+464437165
2108+466998491+469721687+472554063+475501208+478800150+482857015+487847423
2098+493447598+498918807+503476521+506756086+508863851+509958816+509968616
2088+508597385+505472311+500382822+493328767+484517553+474652289+464796154
2078+455592600+447114030+439464667+432901363+427529795+423304614+420063392
2068+417500090+415360689+413472550+411611688+409731151+408010695+406428967
2058+404843104+403397199+402203227+401043761+399874308+398976612+398407983
2048+397925580+397405616+396943857+396677727+396578421+396398517+396066655
2038+395975884+396576782+398027196+400414394+403899090+408588229+414500517
2028+421482915+429073402+436631733+443517769+449176521+453397417+456338749
2018+458021682+458181911+456791863+454277003+451097786+447381390+443006488
2008+437994877+432711286+427572833+422731066+418129793+413643400+409154585
1998+404808449+401174888+398775170+397324421+395775298+393427860+390673214
1988+388249722+386371570+384967995+384055059+383463178+382781345+381862745
1978+380986401+380429360+380134203+379829245+379471113+379473237+380136736
1968+380902448+380788014+379672629+378401039+377564678+377010619+376555269
1958+376363552+376430886+376376184+375998191+375560466+375394014+375574626
1948+376112923+377248243+379166676+381146742+381558607+379677138+376837273
1938+374779999+373933539+373796859+373924670+374096638+374163338+374106699
1928+374204812+375046986+376878783+378833883+379801111+380080917+380575169
1918+380690609+379119725+376413037+374580084+374642835+375856406+376707897
1908+376332885+375132280+374049277+373531474+373427810+373527189+373857560
1898+374556497+375489704+376181561+376608629+377554878+379182960+380000727
1888+378714754+376301100+374581016+374068989+374180032+374344137+374358818
1878+374288429+374305831+374599163+375728893+378714941+383722638+388436669
1868+389277800+385749059+381103480+378135356+377129636+377043634+377011848
1858+376816965+376660610+376726044+376937360+377284798+378145156+380061019
1848+383510763+388460703+393012753+393591182+389492471+384551063+381979750
1838+381689287+382010566+382311425+383903922+388140989+393698722+396946391
1828+396580322+394938117+393394845+391041332+387851086+385456398+384753884
1818+385035255+385398566+386067692+387881902+390700118+392950673+393287305
1808+392220585+391422828+392248569+395106321+399115416+402243322+402960219
1798+402126131+402379182+405715945+411374436+415057706+412875788+407187748
1788+403226051+402876713+404614124+406636520+408550221+410144283+410878060
1778+411466513+414108252+420391713+429102244+435536358+435643787+431096283
1768+425720728+421713310+420739300+423580768+428125402+430844015+431418755
1758+431877272+432495721+433194099+436087213+443024672+451928670+457607656
1748+457785511+455247324+453423166+453797842+456233966+459374728+461595175
1738+463748848+469216256+478934668+486849379+486137773+480195005+474740117
1728+471336318+470449763+472347218+476210205+481792159+491047396+505700471
1718+522433438+531925480+529886800+522840347+517599832+516764178+520803940
1708+529125672+539507397+548916827+557474394+568677725+583088332+594440937
1698+598204843+597156159+593195319+588152408+586503496+590519261+598649313
1688+609256925+623643497+641685876+654469742+654310854+648770858+646551044
1678+649863550+657434885+666105321+673528797+681075315+690036102+696679744
1668+696858382+694706386+697042609+704493734+711364679+713027267+712536368
1658+715969604+727003912+746291983+767125190+773164357+766550301+764397038
1648+769298053+772158339+765619479+755434687+749538385+749801460+755504666
1638+765137374+773848426+773049365+762203830+751271697+745936795+744976982
1628+744987640+744533482+744393597+743633215+739914471+735040062+733549554
1618+735605486+735114364+727789037+718574193+713103432+711719197+711777326
1608+710945548+709098958+707341797+706054594+704634438+702602950+700390961
1598+698927729+698540644+698476030+697762748+696314570+694760789+693556012
1588+692686971+692035842+691648161+691566183+691951703+693874310+699082667
1578+707525502+714346814+713407197+708089064+706543183+710227570+713668036
1568+711981079+707736782+705730111+708301237+717471515+735333319+756450095
1558+761804299+749148021+735880336+728164496+724896929+724538239+725640097
1548+727933318+733256445+743398758+757997169+774744221+787339166+785109216
1538+771046047+760602279+759447880+763245621+765183133+764586035+766191909
1528+772038353+780105952+788558774+797836815+806799093+811235889+810391665
1518+807915781+804886249+800595672+797022849+797749844+805058403+819202581
1508+835936219+841711492+828571469+811756896+803447387+803875461+809549677
1498+815514616+816429714+812023250+808493577+810826222+818086637+824175587
1488+823518273+817515251+811514986+808760005+809138967+811006425+813674882
1478+817915005+824299896+832053743+838392875+838748212+832393356+825639192
1468+824174246+828032948+832436431+832759574+831215705+834052962+844027965
1458+856240370+858743903+848977198+838239353+833149416+833369639+836098312
1448+837772675+836222024+832560814+829411519+828305264+829858299+834586042
1438+841649189+846959870+846609227+843056825+840941942+840978087+841015275
1428+840146831+839748641+840603895+842167364+844735510+849163512+853372111
1418+852759288+847328174+841984106+839503900+839132316+839013299+838423878
1408+838256121+839217052+840230970+840041824+839687605+841091813+844491141
1398+848736332+852323538+852954098+848954915+842803885+839360737+840519383
1388+843662791+844583850+842674584+841620496+844426005+850505640+857245420
1378+863029114+868103400+872612635+875304344+875585603+875233694+875985134
1368+877518643+879178622+881534743+884595502+886305413+884859993+881203403
1358+877493081+874913980+873485700+872578800+871544462+870308384+869241701
1348+868503676+867857243+867214387+867181372+868643561+871483202+874065583
1338+874743168+873598457+871823187+870235274+869145042+868732171+868965585
1328+869546809+870204570+870954296+872065469+873654873+875186370+875807167
1318+875493862+875310977+876195221+877976825+879718186+880650946+880743656
1308+880602132+880936826+881914823+882998944+883684056+884242550+885233141
1298+886434416+886929861+886120441+884159975+881610535+878938278+876142755
1288+872917444+869255638+865612090+862423819+859725402+857207710+854565635
1278+851868859+849523097+847907460+847226298+847471337+848279118+849102550
1268+849587114+849506627+848698547+847516798+846797926+846977458+847748647
1258+848719340+849834836+851034099+852019325+852661958+853350722+854601333
1248+856431901+858464432+860576408+863010557+865786182+868354476+870000221
1238+870601790+870955339+872177779+874629963+877440242+879419265+880681651
1228+882727895+886327323+890094211+892136878+892522845+892918649+894367051
1218+896470829+898405955+900049539+901948148+904600657+908027186+911736763
1208+914831059+916532176+917076137+917659447+919156886+921417615+923880307
1198+926177106+928150613+929942800+931978239+934366331+936584505+938152669
1188+939454330+941573460+945259338+950197765+955223908+958897712+960123581
1178+959143348+957802263+957734445+958669069+959678143+961330520+964794461
1168+969525931+973447309+974985141+974159996+972433465+972054951+974372170
1158+978420241+981992095+984232403+986259718+989040262+991656849+992256108
1148+990645241+989190505+990074227+992469698+994003207+994414960+995805157
1138+999443115+1003832662+1006307576+1005827409+1003887736+1002926582
1130+1003998257+1006350727+1009147591+1012576878+1016476048+1019194809
1121+1019351536+1017835168+1016803885+1017408360+1019468765+1022327261
1113+1025098862+1026913853+1027574149+1027690036+1028185257+1029729498
1104+1032258667+1035077815+1037510026+1038617175+1037118768+1033592001
1095+1031085339+1031818967+1034823459+1037564877+1038553233+1038133506
1087+1037709158+1038485564+1040709626+1043663068+1046046614+1046761611
1078+1045939521+1044686600+1043828067+1043977863+1045994521+1049673170
1070+1053179069+1055091764+1055485183+1054888905+1054133143+1054335331
1061+1055911841+1058522243+1061619817+1064296174+1065584942+1065371576
1053+1064335151+1063666807+1064890216+1068314361+1071499502+1071087153
1044+1066945180+1062218853+1059754819+1060322702+1063105929+1066721231
1035+1069881183+1071886960+1072879788+1073368078+1073627576+1073741823
1027+1073529202+1072414674+1070128682+1067369602+1065412788+1065011991
1018+1065734738+1066066823+1064579669+1062063914+1061128024+1062483641
1010+1063469911+1061516152+1057532620+1054459564+1053933713+1055357968
1001+1057080251+1057918065+1057844285+1057219762+1055479743+1051423548
993+1045253216+1039516921+1036852190+1037291443+1038726951+1039163372
984+1037985200+1035963102+1034522749+1034363712+1034571638+1033527686
975+1030545477+1026289107+1022055989+1018869431+1016526948+1013717191
967+1009748042+1005153401+1000295090+995157308+990845118+989072158+989611275
957+990108136+988820710+986098743+983053188+980095572+976825174+972798342
947+968681707+966258439+966325139+967184417+966500572+964140054+961944162
937+961145026+961229762+961270453+960979431+960573789+960714866+962029569
927+963827271+964270622+962645372+960278445+958558622+957268065+955447335
917+953238551+952163223+953139059+954891599+955511650+955047879+954837195
907+955100941+954829221+953098965+949830578+946215499+944126105+944146077
897+944853324+944913242+944820085+945424710+945929992+944769110+942116378
887+940055079+939806761+940330525+940387612+940175662+940025642+939617094
877+939275320+939791259+940690558+940873294+940718281+941260826+941937368
867+941517641+940448723+940103148+940539942+940722976+940127369+938932205
857+937541933+936567365+936481064+936895202+936685189+935433013+934257598
847+934497049+935995307+937190248+936787065+935230230+934557191+936562073
837+940554251+943557550+944114702+944401029+946337274+947812653+945760447
827+941266937+938192764+938269152+940161874+942135978+943815334+945520326
817+947199607+948327549+948485320+948126331+948406472+949606853+950482601
807+950309106+950256863+951013520+951021420+948958854+945824390+943346271
797+942339656+943097878+945529716+948404534+949932305+949431047+947885912
787+946881607+947134323+948234542+949702469+951418789+952826202+953145468
777+952830449+953234079+954561302+955438690+954820427+953122887+951175315
767+949607747+949102092+949834528+950812674+950391456+947657864+943758918
757+941800241+944243184+949959358+954997127+956598156+955338304+953555284
747+952856384+952883512+952191618+950633217+949930517+951375937+954176751
737+956660609+958136212+958680173+958565925+958784508+960583626+963519406
727+964913180+962494011+957191900+952158975+949267613+947717335+946413811
717+946171604+948154576+951341134+953211871+952556121+950199330+947477289
707+945479039+944722979+944534206+943764656+942376397+941386849+941193977
697+940781330+938802754+935720979+933044921+930118680+924771556+917403676
687+911425694+909106985+909661678+911529061+914008074+915764117+914062254
677+907961306+901110855+898042420+897668825+893520218+882250187+871539096
667+873321670+884315361+893059055+896094848+895930668+894699359+891997962
657+887269995+881772628+876881525+872465224+868032229+863833541+860752512
647+860394268+863866481+869035043+871487152+870099414+867919919+866591578
637+864986971+863517032+864361852+866809639+866801218+862390431+856823532
627+854972097+857394173+858418525+851813710+838707298+826301574+819834258
617+819866379+824887827+832513863+838947642+842103346+844303933+847560023
607+848769645+843916103+836586677+835186494+842733757+854488054
##END=
