##TITLE=<SNM>
##JCAMP-DX=4.24
##DATA TYPE=INFRARED SPECTRUM
##DATE=2/5/2025
##SAMPLING PROCEDURE=Instrument type and / or accessory
##ORIGIN=Admin
##XUNITS=1/CM
##YUNITS=ABSORBANCE
##RESOLUTION=4
##FIRSTX=4497.3318
##LASTX=599.83466
##DELTAX=-1.4281778
##MAXY=1.7271237
##MINY=0.21230039
##XFACTOR=1
##YFACTOR=1.6085093e-09
##NPOINTS=2730
##FIRSTY=0.22999196
##XYDATA=(X++(Y..Y))
4497+142984535+143563921+144218994+144170266+143448038+142804388+142852273
4487+143539594+144413166+145244143+146112167+146812763+146713351+145591180
4477+144209823+143680563+144458171+146062549+147570971+148306391+148154490
4467+147449410+146763377+146585805+146856702+146979357+146570353+145960812
4457+145747491+146114186+146672896+146759412+146031756+144862561+143841423
4447+142999431+142016785+140997712+140409053+140488732+141186187+142352464
4437+143633493+144463007+144490956+143929032+143296711+142853199+142433477
4427+141833710+141116856+140475271+140037040+139857551+139860515+139833261
4417+139741325+139880785+140417474+140999991+141144083+140742759+139971118
4407+139022377+138131768+137599785+137609967+138056109+138532129+138534954
4397+137902207+137073583+136656956+136740665+136939210+137048376+137263541
4387+137694778+138028364+137875416+137224781+136346659+135447676+134595651
4377+133812374+133089841+132451202+132078226+132237909+132970725+133907886
4367+134523207+134654977+134705568+135081397+135519147+135419235+134750396
4357+134070477+133762821+133733056+133797292+134026612+134658136+135663600
4347+136450647+136326316+135356768+134364302+133992354+134117047+134168731
4337+133764980+133031172+132391543+132082664+131996713+131985800+132059643
4327+132281357+132715327+133376422+134028734+134264344+133984054+133559626
4317+133370196+133439444+133558227+133562349+133571956+133973641+134871013
4307+135644711+135626470+135110171+135011945+135576500+136059486+135827201
4297+135179382+134767840+134700426+134685187+134782839+135386663+136409061
4287+137034795+136570875+135297979+134185610+133845159+134058638+134407222
4277+134956417+135908576+136878392+137134531+136557933+135862895+135777621
4267+136346687+137093668+137552595+137487747+136858215+135935330+135332942
4257+135446397+135907427+136064387+135909688+135974230+136428747+136897920
4247+137113029+137231951+137516299+137969343+138283049+138161598+137778515
4237+137690035+138117946+138590714+138534472+137985148+137478835+137419685
4227+137786074+138316918+138720650+138797328+138679166+138840683+139492551
4217+140178352+140435798+140416492+140334997+139927225+138995391+137890405
4207+137087943+136832035+137251535+138226789+139171675+139458293+139024721
4197+138297927+137645336+137132252+136740479+136591960+136833962+137380628
4187+137968398+138482113+139039988+139731607+140462469+141067359+141397350
4177+141380453+141228162+141389494+142021769+142747942+143165386+143236005
4167+143034254+142622092+142242909+142109906+142072859+141964666+142013218
4157+142444122+142963820+143062741+142656868+142139087+141892120+141897020
4147+141798146+141322099+140629220+140195176+140335265+140955608+141780517
4137+142623620+143352230+143802764+143875644+143618208+143209389+142916908
4127+142931304+143138233+143195799+142949452+142638989+142547507+142600340
4117+142568138+142535399+142811790+143440340+144069325+144303898+144066111
4107+143669410+143550775+143896997+144595741+145391162+145865857+145628959
4097+144881413+144364734+144429786+144650046+144572896+144329355+144291892
4087+144538971+144862172+145070055+145102887+144966382+144751727+144702545
4077+145076058+145826911+146498520+146604176+146175625+145751938+145690870
4067+145747991+145525147+145031443+144635742+144738850+145492844+146553409
4057+147219108+147119187+146631541+146377857+146475740+146529897+146269450
4047+145918597+145849812+146102468+146423556+146619183+146651237+146509822
4037+146222704+145995793+146178756+146964460+148124632+149142778+149676474
4027+149829422+149896086+149925082+149716597+149223847+148708261+148460626
4017+148554405+148832204+148997528+148872224+148660450+148693633+148911670
4007+149005162+149016371+149316375+150008550+150707608+150924218+150518948
3997+149772440+149040846+148432992+147980438+147938760+148551422+149660364
3987+150880733+151934119+152540380+152385265+151555548+150676481+150364675
3977+150757763+151583052+152397715+152813556+152756481+152476681+152194381
3967+151967229+152015216+152722195+154033517+155290738+155959123+156094822
3957+155968610+155796708+155861333+156395011+157332579+158224253+158327584
3947+157376138+156397345+156706298+158052407+158845902+158323656+157281145
3937+156823562+157630526+159742227+162075076+162824957+161391211+159345359
3927+158702255+159870885+161583716+162708323+163637572+165162587+166689768
3917+166502192+163856091+160147062+157483470+156782948+157673456+159901382
3907+164134936+170732819+178005951+182888686+183924860+181757650+177164043
3897+171448200+167358960+167182296+170208423+172574734+171601537+170074874
3887+171754022+175519357+177399236+177313915+177917443+178054142+175141777
3878+171600407+171622288+175373394+180240584+184508323+186886973+185947923
3868+183365132+182331682+182588386+181247595+177742558+174716524+174560259
3858+178373137+186782068+198193688+204492253+198594392+187068102+178031798
3848+173953026+174675281+178975443+184966981+191065073+196434352+199696969
3838+198907458+194722113+190333258+187232000+184597775+182045092+180596061
3828+180821731+182368682+185958595+192926054+200875826+203543364+200347317
3818+196846394+194258007+189741402+183822234+180164861+180873183+185376615
3808+190557372+193303560+195223367+199684463+204942240+205839176+202675924
3798+199457551+196604994+192991439+189707793+188400815+189027670+190930913
3788+194046641+198037127+201752549+204994470+209192284+214625502+218871952
3778+220226435+220646630+223182990+229414428+239156145+250153240+259366153
3768+266267894+272159566+277257077+282268100+289810999+301258081+314367600
3758+326293907+338040938+353065631+373346508+396937433+417131600+429527886
3748+439011806+451041091+463413328+469000902+468867316+471461743+481083363
3738+496491139+512765910+524118260+527876573+525801335+521993478+519787804
3728+520187785+521758359+522194580+521126743+520076617+519816448+520040562
3718+521398769+525988801+535377376+548019380+558254014+561148815+559055569
3708+557271219+558213808+561973752+566869049+569904774+570295083+570730044
3698+572952208+576094579+579873977+586272889+596725745+608177738+613442630
3688+609560031+602012315+596525607+594967076+596942225+601383144+607915827
3678+615673131+619412360+613906939+604724913+599938152+599368307+597293440
3668+591274129+584432215+579646158+577450007+577239456+578850273+582536846
3658+587289590+591091073+594524999+601229696+613205361+626688606+631688178
3648+623749634+612053036+605221349+604174374+606163383+608565230+610394121
3638+612144156+614706567+618368535+622999402+628860596+635761725+640791239
3628+640366653+636738072+635533165+639859210+648811454+657674319+661772545
3618+662337498+663869905+667324694+670594500+672600702+674479729+676940977
3608+678964893+679769004+679928270+679878022+679296172+678676450+679609590
3598+682343643+684940738+685742552+685623010+687406655+693220788+701853981
3588+707752157+705958285+698919678+692437576+689018287+688379815+689953650
3578+693271184+697211998+699806795+699666501+698667699+701606596+710914353
3568+721365579+723267581+715230542+705196046+699246585+697902866+698748999
3558+699297944+698679631+697481171+696146494+694207140+692071613+692271640
3548+696477551+702088989+704409647+702773262+700782030+700744011+701366252
3538+700060924+696007609+691065103+688229072+689350530+693839917+699236950
3528+703207779+704974156+704599299+702210013+698663771+695658617+694487282
3518+694834644+695238997+695170740+695716795+697354662+698381109+697375414
3508+695859979+696033919+697698615+699066493+698897889+697355626+695730654
3498+695074024+694895786+693912102+691934655+690050144+689361424+690244613
3488+692216872+694455266+696679654+698343608+697719218+694576958+691529338
3478+690464650+690611021+690977947+692054864+694137179+695770822+694949295
3468+691792212+689179257+689359868+691132544+692050491+691711505+690849734
3458+689554781+688332458+688474678+690410400+692954283+694480909+694279177
3448+692922711+691747967+691714173+692931531+695039266+697112021+697616573
3438+695670994+692146318+688744741+686258962+684196360+682149026+680814720
3428+681085598+682803358+685193977+688210173+691959779+694544274+693125777
3418+688582066+685552381+686062344+686688068+684084748+680203817+678921686
3408+680749650+683405885+685728989+688765196+693184622+697339988+698980153
3398+698050349+696308206+694928025+693658640+691729588+689198452+687380419
3388+687510263+689419231+691861136+693384353+692683775+689524766+685600554
3378+683101583+682749923+683881386+685426762+686320845+686106440+685264902
3368+684223263+683173471+683381132+686406815+691178864+694080928+693239465
3358+690670903+689232618+689814394+691880405+694604453+696762881+697050434
3348+695547894+693539913+691419431+688884664+686987924+687478988+690030059
3338+692099627+691795102+689489044+686753583+685295659+686246882+689103812
3328+691791842+692512726+691311450+689482522+688342018+688617936+689888802
3318+690655562+689637935+687262211+685523552+686126228+688942545+692216353
3308+694206696+694708135+694857026+695599476+696923926+698689117+700964197
3298+702925858+702996412+700964345+698524144+696904212+695687298+694441037
3288+693612246+693319209+692798500+691850390+691600263+693013276+695508467
3278+697739524+699168693+700128291+700494922+699177290+695560790+690918287
3268+687401615+686261630+687898905+692329448+698359172+703329396+705209831
3258+704387784+702635118+701088408+699735499+698227401+696821800+696635557
3248+697892713+698507321+696604430+693482032+691933098+692643459+693749872
3238+693667237+693231460+694231968+696680172+698662066+698538818+696303537
3228+692934866+689711824+687882526+687804486+688688120+689766296+691092524
3218+692730762+693769289+692909149+690513638+689071277+690230457+692124084
3208+691497544+688237372+685268311+684543203+685533038+686765811+687347810
3198+687332321+687080934+686575715+686090802+686628779+688138656+688650471
3188+686860971+683801049+680985176+679114079+678620125+679338193+679973997
3178+679670954+679022552+678351470+677077713+675565613+675318970+676761183
3168+678523187+679182336+678607378+677475693+676416712+675713318+675137470
3158+674224192+673080575+672416831+672314928+671744416+670039404+668032164
3148+666870537+666302249+665078147+662902748+660901214+659883513+659383630
3138+659103488+659711277+661289559+662614972+662666035+661695469+660541476
3128+659556384+658229415+656065058+653857198+653060868+653784346+654701478
3118+655005187+654952864+654721117+654144306+653122158+651677426+650159026
3108+649186903+648828203+648557103+648335805+648555472+648835466+648433781
3098+647691849+647417932+647297427+646328343+644453614+642617202+641437418
3088+640627822+639538307+638059335+637066683+637551596+639237710+640566606
3078+640166329+638363193+636885036+636788023+637182149+636545678+634842444
3068+633370290+632842764+632728706+632454270+632349699+633017371+634204343
3058+634916556+634662724+633730918+632180798+629808410+627161142+625343924
3048+624667359+624303100+623370849+621977847+621060863+621146759+621574531
3038+621400702+620585844+619671418+619005043+618864157+619422996+620115495
3028+619933440+618667390+617086218+615795304+614666065+613442630+612345407
3018+611839520+612012756+612396284+612332400+611459402+609962531+608392698
3008+607226033+606553247+606105316+605462361+604106006+601674736+598716644
2998+596758132+596792038+597956036+598495606+597901378+597271133+597580178
2988+598395851+598581093+597890484+597111126+596577596+595631449+593990173
2978+592492561+591769528+591330120+590536347+589409331+588173705+586971725
2968+586159276+586053741+586399175+586652711+586626920+586471323+586205262
2958+585543927+584248010+582364981+579987776+577321535+575142689+574331278
2948+574646475+574822045+574170085+573248210+572779676+572760333+572711419
2938+572188562+571017635+569411635+567875078+566858229+566420526+566090284
2928+565243151+563873197+562667252+562163144+562247669+562459999+562324745
2918+561537272+560295531+559238069+558671448+558208954+557423037+556306026
2908+554927586+553329295+551897050+551205440+551179649+550974841+550122705
2898+549227177+548993726+549128905+548853729+547983065+546731616+545051134
2888+543068795+541570776+541118436+541137668+540648901+539457112+537951200
2878+536344311+534765622+533548523+532947663+532892227+533103001+533167515
2868+532683344+531643001+530515578+529821967+529713356+529821707+529454780
2858+528293895+526922052+526186382+526089667+525824384+524876829+523560458
2848+522419694+521558739+520636272+519373520+518011348+517041893+516504436
2838+516032678+515560253+515272663+514940717+514118781+512898607+511746616
2828+510783201+509718772+508295754+506574363+504929344+503748226+503097118
2818+502799078+502659081+502454422+502026057+501470145+500947287+500370180
2808+499564364+498568933+497545674+496558877+495529355+494330821+492967389
2798+491598954+490367700+489413513+488957170+488962654+488891137+488204455
2788+486882007+485253218+483743823+482773998+482357935+481905780+480899566
2778+479524683+478284499+477360327+476606611+475903847+475337227+475036926
2768+474918681+474752597+474441995+473971312+473215002+472139235+471005437
2758+470045840+469142233+468053311+466727861+465286130+463945820+462979516
2748+462501273+462265820+461801622+460801448+459429123+458192125+457342138
2738+456489187+455112156+453382019+452042488+451461453+451231706+450774956
2728+449956134+448973191+447973795+447007601+446198302+445700420+445467080
2718+445211061+444620280+443567931+442237849+441087377+440439715+440062895
2708+439455920+438525448+437587121+436823289+436191821+435691900+435281692
2698+434720704+433841184+432772457+431725370+430796603+430014169+429315741
2688+428543312+427698736+427035325+426642274+426160141+425171306+423702339
2678+422178344+421032467+420392550+420017915+419596072+419126352+418802076
2668+418575072+418201883+417682990+417280564+417078795+416775641+415990428
2658+414698143+413278498+412132806+411373680+410901737+410552893+410119414
2648+409474569+408699880+407949870+407321143+406917383+406785057+406685969
2638+406169819+405026054+403589659+402477539+401991033+401882941+401770180
2628+401543362+401205746+400625748+399738854+398780961+398067562+397651907
2618+397348642+397005246+396637726+396336684+396108939+395809750+395201405
2608+394141793+392819123+391740020+391276822+391222795+391036367+390550454
2598+390118939+389985760+389882819+389424883+388593610+387627675+386669930
2588+385749982+384957469+384416788+384170960+384178260+384294652+384221874
2578+383707688+382900686+382256618+381994893+381916779+381768186+381429903
2568+380806142+379934330+379129736+378649641+378326700+377832634+377155735
2558+376559581+376203401+376025347+375917774+375820132+375648341+375277005
2548+374659729+373911535+373220518+372698660+372332808+372031989+371694892
2538+371251334+370686010+370082111+369636441+369512045+369641369+369784924
2528+369797078+369698917+369501261+369143747+368659909+368247107+368069202
2518+368043189+367927241+367623050+367271279+366991581+366674235+366175093
2508+365624036+365341559+365430753+365617144+365570824+365273932+364959810
2498+364770603+364600887+364260863+363733707+363230637+362951236+362850444
2488+362748504+362566115+362284898+361826147+361188490+360576588+360192726
2478+360025641+359981434+360038055+360129101+360080855+359826207+359514456
2468+359282265+359063932+358734542+358309364+357896858+357529413+357144477
2458+356752908+356528498+356591752+356758503+356705884+356383498+356056406
2448+355938235+355957542+355906367+355692555+355401111+355174922+355088101
2438+355108815+355137533+355086693+354916384+354582103+354066805+353535721
2428+353261915+353268178+353248798+352967284+352543736+352267782+352275267
2418+352472700+352701928+352884835+352969508+352881056+352660129+352473849
2408+352359458+352198598+352024844+352034663+352232653+352384915+352361644
2398+352250736+352117854+351898520+351592069+351397340+351518253+351844159
2388+351921310+351307443+349947309+348161144+346258697+344199394+341670741
2378+338512621+335027780+331782394+329054455+326596134+324072262+321577923
2368+319476042+317868523+316525509+315302481+314462759+314574705+316090584
2358+318983496+322881287+327682351+333837028+341443218+349167839+354935060
2348+357540752+357355880+355970474+354842680+353909503+352109294+348914451
2338+344754712+340374751+336238505+332622783+329944091+328523593+328101823
2328+327997252+327681462+327005082+326187482+325768788+326222982+327452754
2318+328855761+329913038+330591271+331201692+331991500+332954395+333992737
2308+335079176+336163356+337073188+337679717+338090592+338516697+338987714
2298+339362385+339600543+339858229+340282370+340830278+341322268+341621494
2288+341764937+341903118+342076947+342150132+342064496+342012915+342169290
2278+342378767+342346010+342046932+341730772+341573951+341526668+341460412
2268+341318340+341144067+341063730+341216251+341606190+342018510+342176998
2258+342055158+341953959+342174293+342672916+343136559+343329064+343281039
2248+343189474+343223454+343431745+343765507+344121058+344391528+344557390
2238+344697424+344873513+345094329+345407154+345890399+346547696+347304450
2228+348055794+348694896+349227240+349845664+350716143+351731361+352655386
2218+353458904+354336831+355436240+356734862+358168218+359730344+361447214
2208+363351995+365439461+367566095+369523272+371297543+373124024+375220198
2198+377563461+379941407+382161496+384197529+386153261+388166578+390359727
2188+392714736+394968027+396827229+398278891+399520187+400678479+401724416
2178+402582629+403261159+403826816+404228686+404318176+404117519+403844454
2168+403620860+403316261+402662966+401492854+399901270+398071786+396021339
2158+393739775+391353750+388924333+386350991+383553572+380548493+377421463
2148+374188712+370672448+367114125+364879547+365432198+368590059+372851442
2138+377195793+381494565+385665051+389554875+393284173+397082544+401033547
2128+405034317+408915211+412787323+417074126+421940112+427076865+432204132
2118+437356374+442647539+448032492+453272593+458102450+462489119+466647820
2108+470851730+475327666+480232783+485767405+492417851+500793320+510947840
2098+521972023+532359439+540810650+546786569+550442349+552275723+552824965
2088+552261308+550079091+545346320+537356676+526254824+513103822+499041766
2078+484634126+470427626+457352477+445984824+436165066+427651897+420505792
2068+414817908+410455288+406908934+403486347+399992501+396822523+394245253
2058+392191360+390560681+389143889+387657579+386178978+385003937+384114190
2048+383288586+382468318+381751140+381316512+381307656+381662243+382335066
2038+383583143+385768251+389235602+394493342+402026681+411938633+424047144
2028+437986101+452895513+467321717+479727712+489265623+496179981+501214608
2018+504591802+506006371+505444938+503351173+500108899+495806569+490350581
2008+483657927+475823695+467111685+457863180+448489316+439401041+430838847
1998+422907158+415831941+409917793+405040617+400460627+395550582+390504542
1988+385915474+382051255+378885872+376365075+374354760+372642595+371105519
1978+369717408+368465959+367337831+366327467+365566118+365414152+366031465
1968+366803634+366702138+365438164+363766168+362487334+361691597+361098000
1958+360653775+360481688+360502846+360443705+360171604+359868265+359840955
1948+360274545+361276572+362860561+364423575+364704310+363190283+361000803
1938+359488628+358891807+358775785+358858605+359047331+359228941+359303646
1928+359390171+359950270+361242370+362603875+363190543+363356590+363860253
1918+364119013+363037873+361139354+360001036+360238453+361167554+361775862
1908+361579096+360798811+359950159+359372681+359128965+359124184+359310835
1898+359838880+360709692+361432799+361776011+362433566+363795738+364738624
1888+364053832+362309652+360817673+360005001+359693547+359754875+359996256
1878+360151668+360179016+360352956+361369619+364197905+368899660+373281437
1868+374063797+370792472+366436559+363606865+362673836+362758620+363013119
1858+363056845+362919961+362813018+362880163+363268138+364248116+366097313
1848+369115770+373355401+377351724+378086985+374812288+370670929+368414933
1838+368038927+368235582+368567936+370105308+373807074+378399663+380927908
1828+380590144+379399244+378237321+376148336+373278621+371254076+370817855
1818+371192860+371553858+372192107+373900381+376519969+378636486+379069780
1808+378247993+377609892+378376651+380977711+384647831+387503946+388078015
1798+387108301+387035820+389769169+394732723+398170244+396559093+391778002
1788+388360677+388050297+389622613+391561189+393493983+395121327+395802339
1778+396056727+397891917+402937179+410384586+416230217+416738511+413045268
1768+408378754+404714488+403618006+405856215+409597890+411781961+412185981
1758+412561245+413061980+413622894+416209021+422468158+430421672+435351135
1748+435287992+432789466+430950496+431154155+433295871+436054529+437875156
1738+439607516+444380825+452883952+459449837+458153957+452412639+447411510
1728+444442968+443785857+445551159+448907676+453571708+461240967+473379160
1718+487093373+494657172+492751391+486768023+482231834+481399782+484966109
1708+492547398+501818470+509564583+515965347+524683101+536686003+546701452
1698+550632223+550504825+547565372+543162843+541395687+544608354+551665933
1688+561242196+574550352+591429689+603410876+602893317+596904317+594146252
1678+597178678+604833116+613764719+621345081+628663089+636980343+643274572
1668+644267149+643474155+646299291+652868029+658461162+659846531+659852386
1658+663144055+672365324+687964419+704630648+709514236+704353174+702941644
1648+707585406+710719958+705807393+697359035+692199233+692206570+697163306
1638+706053592+714321044+713651890+703607611+693754837+689378840+689271675
1628+690414625+691598040+693347742+694439851+692386736+688728585+687974869
1618+691088670+693229756+689747990+683565670+679436391+678124689+677819645
1608+676940236+675553385+674404358+673502048+672320709+670832695+669698119
1598+669521511+670239876+671234528+671904275+672014553+671619316+670939934
1588+670218680+669535000+668947665+668734446+669341939+671459753+675992274
1578+682695673+687890530+687014975+682999087+682518176+686747358+690969943
1568+690834912+688212174+686875867+688812108+696245952+711538003+730150182
1558+735333255+724593364+713194398+707069663+705286611+705799760+706758468
1548+708451994+713591266+724008919+738537101+754371946+766449626+766219509
1538+755493255+747066019+746234264+749487840+751058117+750585433+752268064
1528+757688072+764771294+771829984+779485866+786880283+790339667+789551860
1518+788286551+787560035+785943882+784122217+784899797+790631000+802078953
1508+816112440+821642651+811346541+797065670+789370434+789117269+793864046
1498+799722350+802128756+800266330+798678340+801379413+807588710+812016881
1488+810028317+803479589+797603646+795212953+795702238+797300011+799741027
1478+804230414+811217809+819435977+826029024+827016117+821730029+815642942
1468+813983656+817037872+820792368+821401937+820718701+823681908+832129376
1458+841800281+843555986+835733797+826727971+821499616+820211259+821312039
1448+822235470+821088667+818600516+816744908+816605801+818721540+823592158
1438+830098124+834180491+833158194+830567547+830461420+832155760+832562781
1428+831097372+830053138+830456528+831235442+832300426+835109258+838959507
1418+839840842+836326690+831793354+828959176+827766127+827077704+826339107
1408+825942758+826349483+827078222+827367406+827707801+829078274+831213356
1398+833212667+834891888+835856896+834874843+832090320+829649749+829068639
1388+829712077+829894614+829337368+829803901+832851224+838019400+843542720
1378+848477444+853341022+858349932+862225675+864024217+864787345+865695583
1368+866672300+867870093+870161107+873026115+874118966+872322870+869279919
1358+866900046+865554771+864548779+863095450+861085986+859166272+857889699
1348+857009549+855914994+854715200+854544669+856501291+860197536+863559611
1338+864625337+863511735+861913665+861133640+861167583+861250736+860944952
1328+860626790+860939245+862078638+863838493+866031531+868376794+870164664
1318+870827889+870874061+871360085+872465905+873491833+874070348+874481816
1308+875034319+875909503+877252999+878839582+880143502+881099098+882110722
1298+883056831+883142652+882045948+880362057+878613541+876677448+874304171
1288+871305094+867438689+863012074+859083563+856284737+854031075+851406189
1278+848229244+845067863+842756173+841862757+842224718+843124285+844037563
1268+844760819+845007537+844760597+844761412+845779039+847574542+849181060
1258+849990878+850187645+850343872+850871695+851738209+852601017+853302039
1248+854133720+855490260+857420498+859606866+861592836+863129096+864526768
1238+866377188+868759803+871237875+873637462+876025414+878039250+879235782
1228+879981568+881080347+882620314+883824035+884139973+884238986+885557433
1218+888744530+892888039+896442360+898666821+900120595+901992063+904838469
1208+907871415+909828926+910549736+911156043+912755743+915399602+918173083
1198+920161499+921517890+923369570+926549701+930702622+934647882+937507258
1188+939405109+940987170+942551519+944062434+945770188+948168071+951204426
1178+954007032+955727089+956568331+957777981+960233300+963259650+965423784
1168+966306899+967028524+968949720+972061891+974893327+976300189+976866624
1158+977657025+978645230+979214111+979596156+981008502+983984085+986940621
1148+987420939+985286004+983361695+984164473+987365059+990976075+993824186
1138+996065841+998087014+999929875+1001535578+1002708691+1003066873+1002778134
1128+1003066132+1004953385+1007656608+1009585512+1010674657+1011940558
1120+1013386921+1014645633+1016602700+1019905189+1023195302+1024747571
1111+1024544431+1023546443+1022381408+1021655558+1022012406+1023134160
1103+1024250875+1026003689+1030008238+1035897299+1040199036+1039505647
1094+1034421736+1029189008+1027728045+1030534283+1035012183+1038164819
1085+1038695681+1037033208+1034590414+1032895851+1032749480+1034209999
1077+1037386721+1042506502+1048652285+1053980988+1057601490+1059497415
1068+1059593760+1058432356+1057160378+1056461282+1056108363+1055162327
1060+1053157829+1051578881+1052394331+1054969933+1056491446+1055547930
1051+1053385204+1051976341+1052501497+1054843425+1058025409+1061740626
1043+1066454943+1071216913+1073741823+1073291595+1070955225+1067892042
1034+1065194229+1063810416+1063115397+1061448997+1059224091+1058864723
1025+1060535126+1061136468+1058926755+1056301720+1056226497+1058556271
1017+1060856474+1060728187+1057371151+1052619631+1049931082+1051077515
1008+1054500362+1057404279+1058254710+1057202177+1055406303+1053949120
1000+1052815434+1051312968+1048952956+1045664919+1041987424+1039261672
991+1038418874+1038402051+1037641220+1036933824+1038089670+1039926527
983+1038742223+1033324513+1026657799+1022047461+1020210974+1019946544
974+1019593253+1018231970+1016442619+1015096677+1013442208+1009742925
965+1003797540+997417564+992392497+988984250+986095823+982614428+978702814
955+975304054+972816126+970716246+967951585+963827345+959440750+957378371
945+958654500+960888744+961011547+958921079+956790369+955959800+956176428
935+956780735+957361325+957583290+957054651+955716343+954182158+953258060
925+953146151+953515301+954169188+955067570+956053699+957005590+957810220
915+957915903+956478582+953506704+950431441+948922972+949176138+949719747
905+949120925+947708579+947152297+948417234+950629541+951854681+950675787
895+947282363+943431892+941138284+941061504+942296797+943553212+944015373
885+943387573+942032293+940705991+939571341+938244224+936985956+936492817
875+936270556+934887411+932407042+930716110+930843582+931796213+932213536
865+931508067+929843594+928528556+929574346+933172912+936668981+937665486
855+936720044+935571016+934776688+934009336+933113400+932351532+931941472
845+931415502+930295452+929607770+930854032+933460687+935593843+937017380
835+938476934+939545328+939614993+939093766+937947036+935740510+933901429
825+934775502+938017516+940961231+942659722+944497395+946794041+947370259
815+944367032+939189147+935359279+935098703+937804371+941470452+944586403
805+946306534+946100059+944722842+944499618+946897204+950662743+953650481
795+955350602+955939864+954617341+951239184+947882445+946440306+946050479
785+944888186+943433300+943712404+945948056+948043786+948260785+946882604
776+945211238+944176491+944026267+944470122+944796658+944522519+943967052
766+943693580+944118684+945490491+947238340+948176594+948267899+948796241
756+949845737+949664904+947774464+946070859+945752476+945905220+945526658
746+944824301+944626053+945857121+948891104+952937453+956903464+960482908
736+963219185+963538310+960416727+955019249+950110760+947668410+947230040
726+947152223+947004073+947624684+949149458+950569363+951215246+951360060
716+951105783+949816685+947160004+943856625+941265608+940275921+940567180
706+941385817+942310508+942392401+939959983+934837978+929564415+927119916
696+928244931+930877822+931744483+929399294+925282169+921363145+918248899
686+915783278+913750618+911301524+907740089+904136261+902538043+903453989
676+905116833+904936074+900674061+891526385+880303435+874915221+880588024
666+889382113+892410834+889792691+886761154+887743208+891404546+892046130
656+887378134+881526129+878225418+876291623+873806733+872011601+872285665
646+872761685+870831224+866931098+863400345+861268523+860069619+859804373
636+861322699+864569308+867443803+867140686+862930848+857523809+854294172
626+853641841+852637406+848485300+841813398+835028550+829411776+825500978
616+824104344+825055790+825997897+824780983+822354420+821224143+821230516
606+820877893+822222204+828001728+835620332+839506821
##END=
