##TITLE=<SNM>
##JCAMP-DX=4.24
##DATA TYPE=INFRARED SPECTRUM
##DATE=3/5/2025
##SAMPLING PROCEDURE=Instrument type and / or accessory
##ORIGIN=Admin
##XUNITS=1/CM
##YUNITS=ABSORBANCE
##RESOLUTION=4
##FIRSTX=4497.3318
##LASTX=599.83466
##DELTAX=-1.4281778
##MAXY=2.1047177
##MINY=0.48942667
##XFACTOR=1
##YFACTOR=1.9601711e-09
##NPOINTS=2730
##FIRSTY=0.51236308
##XYDATA=(X++(Y..Y))
4497+261386910+260698384+260786020+261218085+261292645+260714774+259958256
4487+259744002+260214747+261010369+261771417+262226745+262242374+261909256
4477+261363556+260738705+260356539+260583594+261429268+262505585+263290017
4467+263229323+261959733+259906837+258355852+258295219+259262798+259921341
4457+259824066+259820113+260489968+261067809+260421368+258587074+256736207
4447+255775288+255569031+255610447+255807703+256251992+256835945+257530157
4437+258455712+259407083+259953634+260022052+259736340+258982832+257789840
4427+256710634+256219060+256198717+256336039+256412759+256146568+255439554
4417+254719146+254451040+254641393+255185466+256052304+256850419+256997684
4407+256518031+255964668+255584874+255166917+254535422+253830278+253466859
4397+253752039+254367205+254567532+254094553+253486304+253354425+253717161
4387+254029739+253712022+252843847+252264379+252625701+253499501+253801862
4377+253083704+252037065+251605516+251803578+251838927+251377092+250966723
4367+251112361+251607037+251917729+251808352+251579061+251797056+252527559
4357+253040434+252735868+251988944+251603357+251875006+252439011+252606863
4347+251922078+250709046+249817062+249685685+250067212+250609354+251163188
4337+251559676+251647905+251642416+251983030+252643459+252951019+252486980
4327+251779130+251541660+251703369+251851060+252086767+252650225+253171933
4317+253130760+252757336+252734728+253233052+253875343+254405459+254759285
4307+254671375+253964271+253187000+253215705+254138751+255118234+255455610
4297+255247802+254875656+254510442+254324163+254601012+255375059+256269750
4287+256799881+256670344+255961901+255200883+254933324+255109751+255179719
4277+254798648+254236163+254142065+254967898+256414492+257621107+258163218
4267+258319819+258271379+257897636+257358596+256974757+256711334+256489174
4257+256534208+256878121+257162495+257313288+257706036+258406634+258834442
4247+258433453+257348287+256325305+256125009+256838408+257728872+258035749
4237+257765058+257300973+256590249+255444906+254406872+254452697+255845743
4227+257867563+259577185+260384210+260117502+259120702+258189917+257960702
4217+258336908+258729748+258788404+258714179+258888021+259388473+259946671
4207+260276718+260340423+260281158+260232596+260336226+260834034+261832415
4197+262943428+263473437+263047484+261879092+260567417+259798524+259947188
4187+260695495+261276468+261266008+260916044+260690873+260789516+261157452
4177+261677001+262272205+262914267+263530726+263955737+264075726+263974559
4167+263810600+263609421+263286277+262813526+262304832+262020032+262219173
4157+262826206+263330277+263274783+262808083+262454713+262478735+262802883
4147+263330186+264014150+264688202+265024057+264799099+264190303+263656949
4137+263460210+263460149+263476478+263596072+264013390+264794751+265839535
4127+266915548+267681553+267773415+267077318+266021800+265392327+265607219
4117+266286379+266764300+266829707+266722489+266643763+266607638+266662129
4107+266918924+267288319+267440267+267206035+266888698+266976547+267583184
4097+268280923+268517861+268179026+267664586+267423725+267538697+267807259
4087+268066608+268326626+268716789+269343405+270054067+270399865+270059328
4077+269257715+268518165+268048698+267632870+267089907+266636587+266761593
4067+267782507+269448281+270918593+271311129+270431520+268957833+267900460
4057+267812338+268405078+268938615+269064716+269133469+269545891+270144378
4047+270528977+270695886+271012888+271620924+272084036+271816416+270871248
4037+270005171+269824609+270254942+270949336+271699924+272329124+272735707
4027+273116292+273672848+274215020+274433318+274311535+273952996+273320694
4017+272455377+271726865+271579296+272038120+272643146+272966321+273038175
4007+273120245+273304426+273536955+273818897+274162901+274439066+274453783
3997+274234937+274105339+274338051+274826857+275225474+275331902+275240435
3987+275140058+275044912+274840267+274597399+274562491+274776319+275093230
3977+275588392+276381125+277059160+276962585+276178609+275607306+275816238
3967+276365040+276570779+276521975+276825506+277585977+278168805+277961575
3957+276973076+275681471+274700482+274613911+275669581+277330459+278466832
3947+278552613+278319111+278620574+279231317+279405341+279065229+278680326
3937+278537196+278798795+279724928+281242342+282546961+282778244+282114957
3927+281519601+281433303+281346124+280920839+280905727+282159747+284173387
3917+285178489+284019098+281548306+279559904+278986016+279574652+280744565
3907+282387046+284722584+287572745+290187975+291850647+292044984+290314410
3897+287170996+284492062+283903578+285184480+286395869+286224977+286006800
3887+287473859+289926224+291269309+291399516+291688634+291682735+290074462
3878+287930859+287425632+288903272+291179119+293210822+294095144+293293166
3868+292243486+292867000+294505285+294429022+291690063+288486745+287304183
3858+289202151+294157176+300554659+303647596+300267213+294703119+291129463
3848+290105204+290887690+292625075+294661612+296889597+299494762+301841459
3838+302489482+301310872+299866650+298958792+298135195+297244001+296840124
3828+297086032+297741900+299338465+302575962+305940259+306267752+303846737
3818+301756287+300550189+298725625+296364818+295162217+296259698+299531312
3808+303250439+305218862+305821273+307021502+308605722+308825966+308117584
3798+307961805+307811164+306516823+304638771+303569873+303762872+304825476
3788+306387407+308265306+310188969+312053975+314236197+316961746+319627544
3778+321458463+322632937+324237500+327536785+332977119+339206842+343965858
3768+346785063+349151100+352353354+357023183+363445813+370968631+378063853
3758+384155494+390488026+398599601+409295085+421912256+432956094+439222792
3748+442992944+448067197+455005576+461524417+466858475+472928648+481096386
3738+491367590+502995654+514205427+522712578+528088143+532289904+537413145
3728+543539298+548579587+550532380+550060207+549528495+550568444+553747101
3718+559052485+566119398+574554665+583655925+591731345+597398583+601728847
3708+606401687+611456814+616778254+622503571+627367980+629545366+629628015
3698+630317848+633682175+639773542+646779882+652201729+654603464+654988550
3688+655934174+658395631+661328896+663909005+665774954+666937751+668912560
3678+673874761+680495651+682735191+679058271+674943294+673363179+672655040
3668+671040139+668883369+667025326+666152072+667189103+670411182+674474648
3658+677483751+679376641+682407455+688015215+694501033+697842980+696121834
3648+693409147+694227240+698634011+704640844+710359349+714456568+716594971
3638+716974583+715645820+713184241+711229136+711148008+712388041+713201513
3628+713514532+715581173+720885401+728630957+735509401+736499603+730584176
3618+724888598+725900633+731450619+734779855+733240974+730213869+728838034
3608+729453551+731940246+736121877+740258808+742014802+741297541+740322117
3598+740536432+741431822+741953804+742353971+744495051+749770331+756530428
3588+760235324+758288794+753125719+748106230+745094694+744965826+746514073
3578+747264053+747067679+747439689+748160173+747726678+745505505+742642664
3568+742071786+745759167+750331052+750411208+747301637+746881826+750415647
3558+753528927+753624286+752854967+753116049+753111062+751175905+748382333
3548+747385076+748852865+750554307+750560085+749280095+747390854+744921552
3538+743156922+743911037+746325058+747933087+748815220+751107244+755294591
3528+759743081+762468235+761854118+757726005+752750851+750814599+753350311
3518+757674068+758462241+752747141+743729016+737307602+736423097+739931132
3508+745424498+751245600+755553545+756520029+754399627+750420452+745496261
3498+741044973+740039689+744898259+752921317+757856394+757152634+754553612
3488+755063613+759552728+764461593+765380823+761195848+754973727+750343033
3478+748285089+746959244+744237800+741015781+740513626+743852046+748358250
3468+750758770+750592986+750049597+751634152+755416040+758917142+760955687
3458+762831001+765041289+765306020+761609638+756441029+754746580+757941536
3448+762188240+762814581+759557958+755708868+753582141+753250391+754270332
3438+756415608+758977289+760860328+761681462+761948017+761702565+760392289
3428+758598650+757918669+758686590+759146783+757562532+754513838+751726956
3418+749195014+745442743+740588247+736860849+735483007+735813480+738149900
3408+743455162+749458711+751768919+750252722+749073808+750181385+751831377
3398+752433879+752042773+751765392+753236708+756592156+759429637+760167454
3388+760686881+763046897+765582975+765497590+763538775+762499373+763645932
3378+765799053+766589902+764581157+760662798+757192104+756063424+757390120
3368+759198172+759396310+758205659+757543254+758381234+760029402+761172677
3358+760919988+759316094+757188151+755654012+755856954+758320783+761660298
3348+763396345+762904406+761798350+761769949+762412042+761689976+759184124
3338+757588805+760130782+766382459+771470670+771065698+766722115+763553128
3328+763796573+765137682+764831718+763320994+762496028+762128336+760583190
3318+758458105+757709402+758473796+758697233+756755507+753673608+751973625
3308+752784664+754667642+755525630+755139633+754815363+755724680+758103549
3298+761440145+765111714+767813636+768015727+766379053+764818521+762894128
3288+758953449+754382537+753122192+756784516+762525949+766238204+766697728
3278+765268740+763023118+760310431+758288733+758140769+758938550+758580284
3268+756568742+754345561+753440197+754722984+758004298+761128403+761344664
3258+758684218+755846798+755064586+756576952+759020408+761011211+762717458
3248+765152278+767817346+768565015+766446072+763059243+760655439+760177731
3238+760984392+761547363+760820797+759224201+758069857+758057816+758780854
3228+759408047+759150493+757697969+755940880+755346467+755963139+756327608
3218+755689894+754921000+754856839+755276468+755408803+754389470+752001540
3208+749481031+748462549+749073018+750078789+750393997+749391327+746800394
3198+743381697+740850180+740955756+744304211+748895497+750852304+748602060
3188+745241929+744950622+748561557+753326228+755649147+754095426+750576322
3178+747987152+746882495+746081856+745804901+747417552+750519885+753114894
3168+754114948+753602028+752018994+750007148+747705758+744315705+739476839
3158+734842739+732994791+734625627+737320130+737546121+734508678+730942868
3148+729704963+730782010+731345468+729099542+725518346+724394592+727122361
3138+730957099+732770503+732564459+731688469+730540876+729433968+728906209
3128+728724005+728106786+726674514+724925939+724085101+725065025+727337649
3118+729391458+730354536+730700152+731295538+732466911+733578136+733015894
3108+730044193+726083020+723407005+722934467+723230761+722437541+721087796
3098+721108230+722257587+722148727+720157741+718502032+718656443+719514675
3088+719629495+719102405+718622873+718121751+717048961+715510322+714525776
3078+714787345+715870048+716801563+716704318+715089903+712365296+709924760
3068+708842300+708679618+708396643+707891020+707643075+707599774+707500462
3058+707885000+709218446+710477758+710262531+708460925+705751887+702847874
3048+700802093+700350536+700562235+699848502+698591197+698954753+701718890
3038+704875897+706007496+705096476+703739129+702483831+700676751+698246128
3028+695912810+694079823+692820694+692293786+692283022+691832620+689939486
3018+686718745+683705750+682705148+684148853+686505281+687653118+687049522
3008+686213609+686679154+687767999+687429803+685197317+682649319+680937295
2998+679719338+678747259+678844990+680484826+682467845+682778614+680665570
2988+677378661+674851584+674035619+674297552+674201038+673093157+671829223
2978+671588332+672297565+672908399+672760191+671725776+669749933+667382558
2968+665957462+665967436+666165574+665306673+663904200+663321829+663654856
2958+663686054+662582248+660770486+659556969+660266141+662862731+665117657
2948+664374975+660543400+655785054+651830509+649232278+648296992+649099699
2938+650882392+652478927+653208351+652922030+651634804+649680551+647888979
2928+646957039+646646817+646230959+645612767+645101672+644446564+643146932
2918+641514089+640450787+640321736+640830824+641614679+642309377+642492493
2908+642038078+641239080+640268522+638882531+636990431+635059591+633544367
2898+632231963+630723793+629297603+628483827+628110783+627565327+626607539
2888+625372128+624023235+622838848+622126087+621725250+621136554+620232528
2878+619347415+618717121+618318717+618170570+618127694+617528173+615841995
2868+613602455+612025198+611770441+612418494+613082784+613350374+613408088
2858+613368618+612948685+611869875+610282705+608665493+607295192+605932858
2848+604378955+603186601+603004519+603416120+603508256+603258607+603125846
2838+602746660+601434925+599613189+598480678+598409706+598430566+597325969
2828+595003598+592673199+591619627+591917442+592560325+592775065+592595963
2818+591968709+590342618+587856165+585934387+585707484+586492250+586681996
2808+585711741+584379329+583490506+582977647+582382869+581645843+581056234
2798+580678629+580301936+579854819+579385139+578672317+577337959+575379691
2788+573317308+571789312+571069071+570901706+570815165+570607479+570392982
2778+570209318+569769560+568724502+567201067+565802487+564822441+563791553
2768+562203958+560382830+559097976+558519800+558041667+557165312+556188976
2758+555674596+555478830+555000028+554257163+553721620+553185285+551928589
2748+550020190+548365637+547434547+546840742+546176270+545551144+545147267
2738+544689385+543703683+542190770+540667274+539523756+538746348+538273444
2728+538140805+538195844+538073786+537553751+536745205+535887642+535048446
2718+534027106+532615755+530955059+529418306+528218593+527389066+526886789
2708+526451713+525729039+524758298+523921291+523326574+522727052+522027488
2698+521398410+520919182+520425236+519701955+518687122+517508026+516385915
2688+515462002+514674377+513879697+513156416+512760688+512617588+512241139
2678+511467197+510775783+510536655+510440141+509967633+509066100+508163199
2668+507627899+507266166+506486782+505102707+503638233+502565899+501639128
2658+500394320+499014806+498149611+497979388+498013414+497818104+497401273
2648+496816195+495986090+495019363+494173264+493478505+492767964+491987606
2638+491232488+490636706+490321528+490266308+490236599+489994096+489589976
2628+489290519+489155326+488848054+487987389+486659751+485478192+485058229
2618+485408801+485892651+485876779+485300002+484469806+483606830+482821273
2608+482191861+481656712+481090396+480491057+479859668+479115617+478372570
2598+477925909+477745773+477403654+476696853+475935349+475472176+475316579
2588+475291401+475291006+475290975+475238187+474984829+474366332+473471581
2578+472731970+472495275+472594131+472558949+472183138+471673107+471321500
2568+471227327+471289815+471353763+471337312+471241497+471107216+470997656
2558+470926593+470771027+470407622+469962603+469724844+469786237+469931648
2548+469884394+469555624+469043525+468481405+467988432+467735560+467855793
2538+468180762+468276273+467930444+467426677+467167602+467221089+467329068
2528+467211328+466853367+466548801+466554184+466729911+466760258+466616763
2518+466424312+466066016+465423193+464810566+464687079+465044128+465433623
2508+465542362+465447215+465317161+465110174+464702709+464210892+463937890
2498+463971916+464059521+463933998+463562261+463019329+462368387+461770234
2488+461475247+461557166+461798878+461923459+461802892+461437268+460929091
2478+460488663+460304270+460403369+460655633+460822846+460712709+460425598
2468+460277998+460361802+460433686+460332884+460198816+460174033+460194710
2458+460153325+460023180+459813426+459586918+459463614+459463371+459454826
2448+459331400+459044441+458477730+457618677+456821565+456494528+456559874
2438+456621754+456577176+456630998+456786170+456758012+456412183+455965218
2428+455694588+455651561+455705535+455710734+455592387+455417450+455356452
2418+455446155+455507579+455415808+455260029+455153084+455108172+455136330
2408+455250207+455379988+455422924+455319932+455069189+454779676+454646489
2398+454730111+454850800+454843593+454799684+454877923+454995359+454931380
2388+454636819+454162852+453385778+452080155+450188512+447838773+445216672
2378+442546465+440058431+437815394+435534499+432691545+429071639+425225408
2368+422037628+419951344+418990698+419105457+419986830+421118246+422468021
2358+424591342+427818591+432026464+437286175+443698802+450366489+455573443
2348+458104017+457994153+456284501+454036264+451589737+448986154+446417357
2338+443965996+441493257+438833085+435980978+433268078+431198883+429883834
2328+428897949+427907960+427127785+426975624+427504600+428355473+429174996
2318+429915732+430751127+431799743+432956975+434030586+435003821+435985783
2308+436901029+437479782+437626044+437605306+437788818+438304779+438971745
2298+439531159+439909098+440229932+440613740+441015945+441273652+441300289
2288+441195382+441144753+441260090+441492011+441620970+441439648+441024246
2278+440653392+440449750+440317780+440167291+439987550+439819000+439766333
2268+439854759+439899094+439757180+439597174+439649567+439827605+439827392
2258+439516350+439057526+438708017+438626646+438819037+439113658+439251376
2248+439167967+439093650+439220603+439428228+439495825+439402929+439288413
2238+439292822+439523800+439998649+440551313+440940503+441096222+441143293
2228+441175191+441139158+440963431+440706362+440569436+440749542+441205599
2218+441649645+441876549+441969080+442097584+442310804+442556104+442737730
2208+442814206+442916985+443221063+443720574+444288927+444808294+445140196
2198+445250637+445395348+445852865+446528315+447108650+447457793+447610562
2188+447589672+447470291+447458949+447716442+448192995+448732430+449249486
2178+449750729+450278063+450843710+451344133+451646630+451867908+452364925
2168+453318121+454546204+455810351+457051479+458292911+459569038+461016453
2158+462835574+465062008+467468366+469814638+472130472+474564805+477021488
2148+479205381+480998838+482528445+483912186+485223891+486630681+488289127
2138+490161036+492142747+494288388+496697848+499270080+501772831+504084164
2128+506228771+508290608+510322584+512183789+513542596+514206460+514283028
2118+513897273+512999876+511512748+509430630+506826590+503967611+501285089
2108+499008421+496917028+494603535+491915145+488996262+485983206+482935546
2098+480087088+477794456+476059048+474405102+472435371+470273493+468308536
2088+466739428+465515876+464529171+463703628+462977852+462277194+461512345
2078+460656363+459832796+459205846+458770405+458408643+458113869+457952251
2068+457888212+457853699+457860875+457862153+457667056+457185669+456597550
2058+456132188+455812358+455509343+455162845+454874731+454813337+455032091
2048+455362595+455535342+455472945+455391877+455519317+455806154+456035126
2038+456091015+456024179+455996447+456217147+456749650+457364163+457756029
2028+457901044+458029974+458251982+458356433+458057219+457368420+456624886
2018+456103604+455724904+455213231+454476175+453667295+452926741+452274249
2008+451759079+451459135+451256558+450863019+450178021+449422598+448846156
1998+448509541+448418165+448626702+449052230+449345271+449158627+448504159
1988+447696738+447047348+446704529+446633375+446653505+446587185+446396406
1978+446136814+445837114+445472402+445028082+444597050+444391067+444531430
1968+444824197+444906785+444646281+444227929+443874407+443672286+443629168
1958+443703028+443748823+443569599+443119532+442626437+442387371+442425228
1948+442537525+442734294+443265854+444008597+444271899+443659910+442678313
1938+442013263+441743484+441550394+441273895+441006914+440844049+440754589
1928+440735341+440967019+441573108+442275865+442708387+443000485+443425191
1918+443653676+443174965+442274132+441711677+441745977+442037163+442167978
1908+441996538+441665731+441381782+441187506+441028716+440959538+441080531
1898+441336474+441536467+441583934+441673302+442121575+442831113+443143341
1888+442595725+441547718+440649834+440187057+440108057+440212204+440269918
1878+440235283+440258089+440465502+441059337+442487261+444875404+447153197
1868+447572796+445835533+443510182+442000734+441440773+441272709+441097408
1858+440926211+440924782+441109875+441359706+441680175+442235635+443148510
1848+444542833+446469780+448219632+448336550+446584783+444631016+443809760
1838+443954349+444212847+444314956+444958144+446781127+449100852+450317988
1828+450069556+449523613+449227684+448664256+447723284+447021744+446873293
1818+446971115+446989725+447082925+447695826+448914969+450138187+450668591
1808+450594518+450668530+451489878+453094136+455032639+456628900+457454170
1798+457812618+458573119+460375789+462863823+464534219+464185866+462676176
1788+461751563+462146835+463555693+465439613+467393715+468939013+469748775
1778+470357206+472010908+475533965+480263667+483849090+484393786+482846086
1768+481215950+480546612+481290024+483456220+486069625+487836688+488838415
1758+489987620+491332742+492610329+494462686+497652746+501537018+504250678
1748+504927588+504561811+504469250+505305740+507042547+508969281+510287797
1738+511583112+514555178+519463374+523457388+523830250+522235661+520946306
1728+520419702+520829722+522356015+524627119+527500177+531787322+538045325
1718+544733781+548557085+548480153+546818545+545753235+546259405+548712104
1708+552884308+557662481+561810054+565786797+571333619+578491147+584259157
1698+586764827+587425468+587009793+586024152+586315946+588960762+593306352
1688+598729597+605943866+614800951+621326603+622549182+621902468+623044709
1678+626878352+632831789+639227295+644432759+648927348+653852451+658136495
1668+659969360+660795786+663548854+668683954+673807499+676790633+678728223
1658+682215399+689029257+699839805+712374297+719394199+719815044+720720287
1648+724372334+727502156+727005777+725214328+725722139+729236986+734758631
1638+740974670+745826733+746493274+743450784+740700148+740168679+740972967
1628+741667544+742112594+742971799+743469454+741930450+739039634+737103382
1618+736304446+734177962+729335751+723810396+719591303+716862743+714899793
1608+712914098+710738110+708687281+706784539+704778774+702848664+701599570
1598+701292511+701528537+701674191+701234797+699946050+698056018+696386990
1588+695523407+695201144+694944501+694666026+694327039+694080918+694921148
1578+697796274+701471613+702899932+702225242+702782010+705865369+709519484
1568+711620547+713170132+716170782+721284900+729058613+740669192+754420000
1558+762080352+761428651+760120078+761820852+766268612+772640035+779892071
1548+786951442+793815413+801480448+810747675+821267523+829514991+829200087
1538+822049614+816658297+815922183+817439415+818271861+818749873+821111227
1528+825722703+830881460+835224739+838916256+841953942+843906979+845684441
1518+848144073+850246596+851117295+852003989+854811366+860222326+867606757
1508+874782591+877198983+873109489+868022737+866071524+867211273+869889294
1498+872366563+873449874+873108212+872493486+872929474+874834041+877208471
1488+878402345+877965870+876715620+875327196+874156614+874052498+876147601
1478+880423496+885323178+888991827+890151219+888482191+885862918+885077239
1468+886769863+889542392+891499139+891911592+892246747+894498998+898704651
1458+901943516+900560322+895950062+892307016+890936594+891656531+893962542
1448+896234497+896548611+895080579+893689723+893252336+893239869+893413072
1438+894142314+894704130+893662842+892046481+892136671+893858608+895039772
1428+894739099+894259749+894607737+895648720+897380266+899944806+902255196
1418+902283658+899822749+896823376+894983274+894711549+895167911+895236815
1408+894945447+895099067+895672256+895894963+895705157+895604325+895497471
1398+894842790+893454305+891425735+889027770+886947202+885668976+884833489
1388+883524977+881086144+878218073+877002792+878997670+883401826+887635758
1378+889970596+890732009+890888306+891000268+891536055+892606655+893529595
1368+893952873+894946055+897657829+901267549+903549295+903704862+903297153
1358+903959923+905791085+907641587+908192517+907347786+906423569+906637337
1348+907935510+909597908+911323434+913190356+915156286+916947067+918212034
1338+918892806+919521094+920777790+922715806+924749546+926219280+926602663
1328+925710435+924289171+923946352+925567214+928151397+929998189+930539084
1318+930100846+928759311+926943353+926209550+927527366+929320701+928923514
1308+925961969+922747856+921417572+921995930+923044759+923347134+922931824
1298+922705954+923222949+924043596+924333566+923834573+922942102+921797853
1288+919898516+916982583+913697559+910919313+908901750+907254130+905311127
1278+902606225+899451104+896852203+895371339+894404916+893100175+891550468
1268+890369669+889564833+888558089+886822529+884166401+881038951+878524037
1258+877254447+876602077+875555316+873824682+871619685+869344142+867924945
1248+868237964+869827019+871119962+871322478+871326310+872239823+873855941
1238+875290342+876495223+878108909+879987264+881064676+880979656+880772882
1228+881389067+882286404+882384074+881971013+882564940+884935599+888118635
1218+890546886+891534108+891580754+891869386+893349520+895907248+898690298
1208+901307504+904037281+906787734+908862281+909998258+910522734+910286099
1198+908778173+906767482+906576946+909976365+916069374+921569064+924017446
1188+924520635+925839547+928504006+930500101+930561099+929913047+930382788
1178+931984857+932886086+931754122+929475234+928368570+929903438+933349380
1168+936911541+939608173+941436355+942461344+942714155+942995002+944842220
1158+948635846+952221908+953245924+952509384+952314652+952830491+953009350
1148+953256931+954638422+957072269+959904276+962992561+966267428+969021105
1138+970358140+970265943+969892169+969900927+969136777+966594982+963824581
1128+963384032+965932942+969842726+972825982+973956425+974635737+976761674
1118+980090302+982618657+983074775+981956130+980534866+980250370+982477078
1108+987043185+991373024+993019306+993055613+994502603+997781667+1000522937
1098+1002094173+1004755045+1008646280+1009941960+1005999457+999690369+996579218
1088+998999989+1004298075+1008242585+1009742058+1010440527+1010866237
1080+1010080741+1007795407+1004758389+1002055859+1001520863+1004911159
1071+1011084627+1016193880+1017993601+1017358988+1015814268+1013837817
1063+1011778352+1011197683+1012909221+1015271670+1016289908+1016811464
1054+1019069736+1022506738+1024155331+1023031943+1021349414+1021296261
1045+1022696362+1023858794+1023743730+1022609395+1021564580+1021103475
1037+1019468565+1015142801+1010374360+1009086586+1011954596+1015871921
1028+1018312275+1019323763+1019228343+1018051315+1017015197+1017565093
1020+1019452206+1021384566+1022936949+1024735514+1027701620+1030963655
1011+1031052325+1026461465+1020479506+1017086473+1016776008+1017538152
1003+1017880909+1017817174+1018084520+1019199212+1020802802+1021961829
994+1022090272+1020739797+1017293915+1012019426+1006771087+1003654644
985+1002889035+1002654103+1001278998+999031066+997151190+995747136+993485094
975+989433914+984329282+979773574+976855877+975281297+974185032+973564407
965+973601748+972964155+969593807+964164116+960423217+960493094+961811032
955+960439029+956168851+952113413+950342701+949946122+948723238+945742354
945+942150028+939554898+938237264+937180165+935720100+934509197+934261738
935+934864179+936145689+937938294+939405170+939936639+940320265+941338016
925+941911083+940422861+937353550+934812790+933962768+934509623+935887708
915+937486250+938352936+937619254+935222931+932133248+930068735+930485566
905+932846312+934644208+934505184+933760130+933583217+932975181+931147607
895+929420682+929092521+929387355+928454746+926006851+923837127+923026818
885+922327802+920576916+918874014+918735841+919608851+919891462+919336396
875+918927167+919242253+920074699+921267905+922899044+924530244+925167289
865+924320612+922429181+920485936+919980678+922058509+925764986+928718564
855+929965409+930174615+929225281+926252425+922436662+920658348+922314361
845+926309774+930603062+933757758+934801600+932863280+928675629+924940629
835+923356987+923312591+923490112+923093472+922099499+921492254+923063429
825+927470747+932542538+935250055+935211619+935328690+938574488+944466622
815+949288521+950222590+948551434+947343451+947160517+946139907+944036533
805+943403015+945397529+947257153+946127683+942961797+940108565+937964019
795+935866362+934015921+933201111+934021212+936806938+941007179+944907719
785+947536966+950080524+953147889+953990613+950015330+943108363+937261779
776+934689212+935462484+938469702+942066954+945057508+947064975+948023310
766+948746470+950549414+952990376+954230774+954107379+954826951+957707064
756+960661006+960434285+956788259+952692500+950875143+951831836+954537650
746+957969848+961759400+966010664+971173192+976727434+978925133+973626621
736+963798735+958007676+960621841+967881235+973430308+975929106+978761235
726+982807125+984141301+980061233+973541844+969876479+970568744+972738407
716+974560812+977405530+981007891+981260823+976457169+970815900+967875336
706+967187024+968910907+975028607+984847554+993156020+994374038+987280853
696+975088024+963681664+958280982+959059423+961969275+963816675+963534551
686+959905006+953500255+949199973+951701812+959647694+966662974+968938943
676+968775714+967931104+964440706+958305126+954569092+959643559+971284120
666+977702858+974368391+964721553+954510466+949841397+953378320+962446922
656+970502151+973766376+974627101+974418625+971365613+965805472+962357279
646+961173683+956999229+950780696+946954291+946172930+945877973+944622493
636+946379521+957439292+975633420+986652992+984695089+982189966+988748642
626+1001828894+1013000262+1016643248+1015843460+1016449124+1014992282
617+1006874048+998206708+995576974+995720073+994433942+991478600+989625666
607+997897095+1013875888+1026092192+1038156456+1055249333+1073741823
##END=
