##TITLE=<SNM>
##JCAMP-DX=4.24
##DATA TYPE=INFRARED SPECTRUM
##DATE=2/5/2025
##SAMPLING PROCEDURE=Instrument type and / or accessory
##ORIGIN=Admin
##XUNITS=1/CM
##YUNITS=ABSORBANCE
##RESOLUTION=4
##FIRSTX=4497.3318
##LASTX=599.83466
##DELTAX=-1.4281778
##MAXY=1.7843128
##MINY=0.24920201
##XFACTOR=1
##YFACTOR=1.6617708e-09
##NPOINTS=2730
##FIRSTY=0.26668599
##XYDATA=(X++(Y..Y))
4497+160483014+161020768+161974627+162535103+162323373+161321074+159947718
4487+159105283+159538104+161120051+162948896+164064862+164080213+163296171
4477+162341630+161730168+161672510+162067633+162526692+162541057+161858540
4467+160793884+160078457+160231812+161049928+161892184+162425293+162726101
4457+162829778+162669124+162294212+161784293+161201382+160794063+160837212
4447+161168562+161318007+161132820+160904931+160846986+160757926+160369617
4437+159862639+159742140+160164236+160660042+160704769+160431615+160458050
4427+160947489+161278480+160955954+160383373+160133049+159977793+159434230
4417+158791580+158679833+159006986+159184372+159057596+158913837+158876839
4407+158837760+158718732+158452285+157966021+157433307+157239350+157524771
4397+158052337+158594359+159097338+159421622+159304799+158688459+157837469
4387+157124966+156839940+156992165+157084435+156379788+154715183+152861015
4377+151902707+152388129+153969448+155636797+156432101+156156813+155429891
4367+155025765+155165830+155469454+155494095+155118287+154399830+153392652
4357+152306780+151590403+151616802+152331152+153225220+153713618+153605458
4347+153119660+152540120+152127654+152140979+152509435+152720322+152399930
4337+151696304+150916889+150259327+149961720+150172006+150584589+150713140
4327+150649474+151022198+151974856+152765910+152759705+152254843+151862069
4317+151726451+151847076+152383072+153150668+153521778+153233505+152741197
4307+152587359+152907894+153548410+154176156+154310195+153732001+152877622
4297+152398889+152409273+152538793+152592093+152764709+153252713+153958472
4287+154572535+154777360+154398593+153537667+152621882+152142988+152189635
4277+152399965+152483036+152519604+152666591+152935997+153324557+153831087
4267+154347839+154738102+154903849+154755409+154408044+154311684+154763497
4257+155422825+155738340+155636797+155393324+155166924+155023685+155039754
4247+155132527+155135342+155084409+155096569+155175425+155439881+156113969
4237+156990694+157404899+156989761+156024227+154945994+153995130+153387182
4227+153417276+154191203+155355160+156242861+156412033+156054141+155807153
4217+156102939+156790209+157422923+157735191+157680851+157195304+156277563
4207+155339665+155055571+155552292+156070676+155863878+155139342+154627001
4197+154610645+154900101+155308227+155626019+155603906+155396355+155526700
4187+156157459+156870482+157257589+157271721+156973818+156385796+155691191
4177+155315741+155643773+156625789+157758972+158598573+159156341+159570349
4167+159680698+159332525+158802251+158485625+158395990+158262830+157962506
4157+157703430+157786662+158140681+158277679+158001405+157868244+158454276
4147+159450639+159985326+159675551+158960949+158502070+158579169+159037600
4137+159551554+159867355+159962281+159987998+159966100+159707778+159171065
4127+158636468+158339032+158155602+157836734+157438598+157353895+157810084
4117+158482074+158920221+159184856+159595062+160115025+160481544+160570246
4107+160227239+159313013+158299254+158086932+158844037+159650532+159615669
4097+158921674+158482038+158775350+159297536+159220007+158401496+157524430
4087+157290444+157714226+158269089+158592028+158798520+159046334+159184569
4077+159090702+158919970+158750654+158467045+158127087+157938115+157851942
4067+157647296+157354935+157248837+157498784+157933973+158111484+157793818
4057+157348766+157374286+158006337+158845382+159435359+159614144+159456450
4047+159056915+158501496+157968980+157646471+157639872+158069841+158874615
4037+159470959+159276015+158584513+158215735+158493480+159140129+159786096
4027+160226521+160553370+161076560+161776384+162123354+161801187+161209362
4017+160929752+161009057+161039204+160751990+160283372+159912478+159769292
4007+159823865+159996535+160284879+160798851+161512717+162082429+162191181
3997+161943225+161670107+161549554+161576598+161667363+161685835+161583646
3987+161567613+161902174+162447190+162628665+162133236+161483108+161524034
3977+162426763+163598432+164469006+164932458+165067699+164862838+164321211
3967+163672034+163389644+163875101+164966049+165941734+166259669+166080275
3957+165843545+165720786+165780973+166322008+167610894+169318595+170573998
3947+170948408+171064746+171581463+172000994+171351978+169782460+168407741
3937+168021387+168844185+170764063+173001501+174184665+173826827+173220045
3927+173775428+175133019+175737541+175128446+174668078+175686321+177815257
3917+179151113+177990868+174724607+171477086+169927439+170241716+172037903
3907+175474323+180639193+186260610+190076659+190858997+188843494+184688743
3897+179802048+176497551+176458419+179143921+181659498+181705499+180941758
3887+182035271+184275398+185192672+185247174+186194380+186542355+184390069
3878+182188733+183218740+187057475+191265778+194704439+196692342+196080037
3868+194218444+194082019+195699404+196013411+193361500+189800725+188334579
3858+190775873+197833684+207881877+213633407+208749295+198797515+190837960
3848+187144760+187635993+191028044+195487172+200018090+204678869+208644775
3838+209633158+207085425+203443768+200595119+198297406+196145729+194795401
3828+194662240+195472843+197953717+203381518+209831526+212147336+209785651
3818+207147818+205051683+201169799+196122576+192976437+193639334+198162093
3808+204342695+208991727+212274022+216539695+220436626+220135334+216810464
3798+214299729+212647445+210438900+208602666+208846892+211144121+214508087
3788+218564811+223333607+228514672+234167097+241225734+249936493+258510326
3778+265236949+271314054+279418355+291079736+305939426+321526217+334228133
3768+342333008+346413476+347348559+347092999+348689203+353210527+358306996
3758+361511779+364398556+370920246+383356845+399848052+414220778+422742154
3748+429561227+439199681+450318233+457826800+462230297+469331796+481867786
3738+498218784+514242162+526318681+533905835+538564283+542063866+546159722
3728+552514841+561085141+569242168+574271528+575511777+573853377+571170619
3718+569368280+569371687+571442858+575054099+577299051+574530209+567733553
3708+561400242+558718739+560227354+563692791+565384584+564200325+562852938
3698+563298600+564865966+566964791+570735753+576944566+582861053+583636558
3688+579516958+576033551+575881075+577592344+579207989+580680233+584009228
3678+590856422+598440097+600256316+596494967+593816405+593201374+589041565
3668+579351067+569222117+563183176+561452143+561826320+563289633+566744597
3658+571433532+573621740+572489562+573101832+579726356+589877257+594045280
3648+586551132+574466543+566330463+564148388+565280315+566092155+565427805
3638+564996311+566289430+569256838+574022136+581374210+590228084+595529934
3628+593494453+588063800+584205212+583812814+587820865+596028896+605084492
3618+610266866+610986166+610144842+609888959+610884085+613262789+616583032
3608+619352196+620155643+619569844+619782758+622198836+625674890+627504238
3598+626753015+625110326+623977466+623185569+623241882+626076685+631820109
3588+636254416+635342361+631621758+629989255+631208054+632294644+630870966
3578+628338746+628035588+630898010+634572846+637170489+639620857+642679908
3568+644182999+641965989+637834767+634939059+633836472+633404190+632730514
3558+631268815+629318090+628334442+628816366+628918088+627398283+626085294
3548+626879701+628734659+629761492+630146716+630823620+631472905+631212933
3538+629498578+626003156+621201415+617157281+616213159+618473857+621044814
3528+620700552+617596522+614496079+612824839+612089326+612037533+612698009
3518+613229216+612820391+611690186+610126263+608069368+606103434+605331050
3508+605940450+606840525+606654584+604661535+601488387+598930056+598247198
3498+598764201+598624244+597198808+595968458+596291236+597466420+597866027
3488+597085715+596005367+595114653+593790329+591494875+589225103+588697124
3478+589800715+590352762+588973416+586593923+584789217+584350119+585321787
3468+586991450+587920076+586928716+584135950+580724064+578095324+577239940
3458+578017023+578702535+577136783+573151114+569219355+567993777+569798160
3448+572875755+575418161+576682513+576587534+575336525+573387199+571193323
3438+569120790+567682871+567318308+567777492+568161496+567808805+566885881
3428+565897714+565058076+564367650+563852655+563400035+562644006+561412653
3418+559986822+558633337+557431360+556638279+556575079+557073252+557367945
3408+556620919+554664527+552367351+550934705+550728212+551245933+552035822
3398+552770652+552882991+552101998+550829361+549494492+548197894+547110730
3388+546518583+546395699+546282176+545636083+544468073+543448233+543019179
3378+542987722+543383563+544585684+546054162+546328446+544917213+543001460
3368+541809310+541338254+540962427+540573760+540550553+540766910+540447325
3358+539375620+538655424+539394379+540789830+540658696+538343084+535682887
3348+534443391+534600422+535695692+537634473+539385341+539354637+537873247
3338+536975431+537452621+538268406+538680029+539031501+539392263+539004421
3328+537386444+535018860+532701347+530713641+528819444+527038914+526187404
3318+527118613+529324863+531039683+531113213+530093302+529112451+528647170
3308+528631388+528812127+528804631+528424357+527874068+527313987+526812908
3298+526852399+527903767+529315501+529652159+528605025+527507352+527521197
3288+528359543+529005134+528890966+528314959+528213883+529310982+531144669
3278+532376381+532223655+531119274+530034442+529630818+529898574+530289285
3268+530327772+530080210+529782504+529215178+528015639+526464593+525257450
3258+524646867+524566056+525219430+526493467+527301899+526801682+525586074
3248+524523516+523520248+522382331+521757938+522399942+524180653+526046693
3238+526571946+525015197+522162280+519583575+518101898+517396264+516728040
3228+515767025+514992237+515156692+516062973+516418319+515355797+513378995
3218+511437381+509945014+508940957+508435934+508353437+508510360+508739271
3208+508943468+509037981+508750139+507677789+505948513+504504426+504063857
3198+504039252+503260267+501592291+499918826+498753793+497854471+497038399
3188+496438253+495937318+495147251+494060984+493101152+492409255+491642610
3178+490549241+489238081+487840658+486418485+485241795+484631247+484438922
3168+484103483+483198924+481615955+479462360+477176052+475408004+474493402
3158+474330704+474648603+474848640+474065315+472177037+470205149+469095819
3148+468740186+468511240+468074222+467429923+466666649+465814601+464822165
3138+463793825+462973915+462255584+461254181+460045783+459305500+459486419
3128+460205575+460635563+460324622+459442875+458329097+457105312+455776289
3118+454466098+453443497+452936357+452851314+452720682+452081045+450880251
3108+449585088+448908794+449084118+449354815+448729884+447346916+446315061
3098+446148883+446174457+445560646+444369249+443400307+443216088+443525344
3088+443616233+443247652+442823870+442726954+442785240+442449299+441383836
3078+439835444+438376722+437367643+436786507+436466743+436345652+436478508
3068+436787440+436870188+436326642+435255511+434067307+432881936+431531393
3058+430048102+428711618+427653078+426750814+425879469+425081798+424586961
3048+424648331+425135026+425428965+425080757+424343775+423658621+422987923
3038+422160014+421443046+421124106+420810905+419811152+418142530+416633198
3028+415952959+415913576+415786997+415046607+413721960+412315391+411502475
3018+411577726+412039636+412068833+411499534+410858785+410434142+409953258
3008+409235393+408465016+407725236+406910132+406106470+405455141+404754851
2998+403743477+402619441+401844043+401550355+401422807+401099564+400593428
2988+400207272+399965305+399407950+398209344+396682975+395383615+394552981
2978+394164349+394104772+394118008+393881924+393271017+392381487+391340629
2968+390271328+389342343+388617770+387916907+387068446+386229920+385653160
2958+385243438+384732676+384155127+383742607+383500784+383218538+382726714
2948+381952034+380964727+380079824+379589219+379336672+378850228+377927591
2938+376845342+375967505+375409575+375151504+375223743+375593723+375986371
2928+376004198+375429124+374352433+373091812+372033952+371406762+371088468
2918+370744098+370195602+369533583+368891400+368305888+367761661+367195913
2908+366547094+365931309+365611688+365652434+365736832+365444399+364668894
2898+363739443+363092094+362794066+362517630+362006903+361331614+360649904
2888+359983545+359262380+358438345+357591570+356954588+356674601+356570727
2878+356282024+355617961+354706049+353877387+353408555+353316983+353423404
2868+353529179+353440764+353014938+352355896+351771640+351422930+351174328
2858+350825653+350343083+349807823+349231709+348579697+347991316+347730232
2848+347796409+347875104+347739020+347329262+346515270+345283988+344057047
2838+343335308+343148255+343172323+343157186+342988247+342582794+341926622
2828+341074969+340096234+339131776+338409606+338041456+337867531+337572982
2818+336920612+335948262+335026092+334569598+334591227+334682475+334462604
2808+333858656+333005711+332111231+331342900+330671699+329942786+329179620
2798+328596439+328254472+327955906+327535208+327039475+326573834+326149945
2788+325750158+325407689+325163104+324982508+324704602+324106823+323151296
2778+322119692+321336618+320822556+320354405+319744611+318960138+318131261
2768+317470139+317014112+316543163+315917874+315302268+314872855+314535802
2758+314089782+313503911+312909074+312390098+311897233+311370832+310840916
2748+310322944+309731873+309028499+308334952+307786636+307376806+307001159
2738+306545060+305917331+305145198+304447993+304069297+304001147+303966821
2728+303682602+303065921+302250243+301502464+301044858+300843459+300648982
2718+300299213+299839240+299322846+298707134+297976912+297193641+296425112
2708+295757714+295296754+295035903+294840260+294625858+294382601+293989504
2698+293252359+292224737+291292291+290824911+290849355+291101741+291295214
2688+291272312+290978875+290425411+289724548+289080965+288631573+288299739
2678+287893335+287357859+286857840+286584112+286533627+286496791+286235850
2668+285693003+285055053+284573953+284317783+284158636+283968158+283721457
2658+283425885+283054255+282585441+282085618+281711908+281567556+281531814
2648+281317197+280754551+279991779+279363889+279056643+278943299+278798230
2638+278561859+278267920+277876562+277396629+277015601+276867071+276806185
2628+276613519+276302076+276046157+275872986+275582167+275018050+274333883
2618+273850955+273677909+273619013+273462682+273210278+272991213+272857407
2608+272712015+272438987+272097845+271905287+271962012+272094097+272043630
2598+271727094+271263875+270841545+270563639+270365449+270107862+269777678
2588+269519284+269450166+269526798+269601422+269549825+269335710+268995286
2578+268617433+268351901+268336693+268540370+268745249+268748136+268525682
2568+268201811+267920210+267749908+267686547+267735632+267918506+268166947
2558+268316284+268242790+267938969+267489882+267051770+266774922+266662924
2548+266579297+266435035+266290756+266241688+266263496+266200942+265904474
2538+265395845+264876564+264525774+264322903+264122096+263850592+263551649
2528+263287282+263112497+263112407+263341031+263687732+263889275+263751739
2518+263337856+262883515+262565705+262409499+262358154+262352218+262376357
2508+262449295+262519040+262435414+262150979+261866384+261813801+261954458
2498+262044738+261960824+261801050+261672534+261541687+261337813+261059458
2488+260725794+260358110+260054378+259935852+259970142+259976724+259842326
2478+259614581+259366212+259095892+258805216+258553942+258377453+258230788
2468+258071336+257927792+257846425+257822124+257795313+257676876+257398988
2458+256993408+256598303+256347298+256251494+256191899+256031747+255751653
2448+255474267+255341842+255381673+255498532+255565515+255506996+255326544
2438+255091518+254897830+254835007+254924175+255036353+254944010+254573671
2428+254148114+253943862+253979103+254069957+254102095+254114039+254179660
2418+254302813+254410597+254445317+254456974+254552975+254764364+255014742
2408+255188021+255192989+255023386+254789777+254658500+254733195+254985509
2398+255301526+255612395+255980564+256577446+257665022+259653014+263121912
2388+268742505+277143256+288791312+303939526+322648173+344807337+370106290
2378+397995068+427658314+457988601+487720248+515724952+540986280+562404550
2368+579329331+592138170+601546207+607586511+609543046+606646693+598619832
2358+585318810+566354566+541668348+512724617+484100327+462435821+452427352
2348+455300032+469524766+490471515+510898677+525243426+532390693+534038440
2338+532979217+531645388+530852846+529975296+528134255+525157127+521428489
2328+517013694+511416577+504165723+495282832+485221601+474500001+463452540
2318+452344640+441520960+431239534+421381173+411447059+400951034+389833629
2308+378476374+367434328+357205521+348012981+339641534+331668833+323951191
2298+316704175+310106408+304067754+298407348+293078560+288167726+283765234
2288+279887367+276490348+273514099+270919020+268707067+266895242+265447334
2278+264252674+263195316+262231378+261376317+260606909+259821038+258967179
2268+258174224+257629835+257340827+257126390+256829294+256429902+255975793
2258+255510027+255076292+254715261+254415726+254103332+253724385+253337798
2248+253064662+252920580+252762240+252455209+252025921+251575991+251140659
2238+250741949+250490136+250487661+250677009+250898944+251077549+251256011
2228+251464297+251648606+251756210+251803951+251822315+251823445+251867940
2218+252051387+252365538+252681447+252926122+253174150+253518090+253939253
2208+254352096+254706832+255022131+255374248+255848425+256441702+257037024
2198+257527987+257935754+258368916+258912067+259566572+260264404+260928539
2188+261503613+261930659+262171873+262280427+262361669+262467570+262606630
2178+262804210+263064864+263312480+263425554+263335937+263096858+262835200
2168+262612889+262387081+262135161+261911219+261714087+261423466+260988152
2158+260575794+260397619+260468279+260666881+260935193+261305908+261841168
2148+262588535+263526361+264653482+266211039+268587608+271905143+275932491
2138+280434177+285360129+290698206+296379650+302391169+308862214+315920169
2128+323447961+331144333+338886581+346823449+355028109+363266019+371172327
2118+378517407+385237162+391279582+396561382+401108316+405047069+408422082
2108+411253263+413731788+416099193+418383098+420382747+421824037+422531429
2098+422569879+422236126+421879597+421579596+420871522+419035288+415759773
2088+411158320+405198110+397619313+388322827+377566435+365962515+354264871
2078+342955715+332198678+322220087+313421486+306088279+300194227+295505059
2068+291800704+288920079+286576292+284387905+282237197+280294847+278653789
2058+277279645+276191871+275367765+274685517+274140464+273868153+273938849
2048+274336807+275079259+276296606+278234437+281073060+284796353+289425533
2038+295182407+302202611+310320039+319184422+328317313+337166488+345382733
2028+352914256+359795668+366052221+371704216+376701116+380917883+384134037
2018+385977731+386121276+384540387+381451278+377152839+371957912+366064022
2008+359524720+352422503+344958306+337396618+330023561+323056747+316540724
1998+310490771+305171346+300971365+297831664+295032011+291881658+288448771
1988+285238070+282508862+280281952+278586070+277356941+276379516+275498558
1978+274721761+274127498+273749376+273485888+273219639+273085600+273300827
1968+273636373+273514171+272788056+271949082+271447107+271282741+271299384
1958+271449689+271666979+271792194+271761527+271686868+271714307+271951682
1948+272563754+273790337+275632131+277395104+277931997+276887749+275265845
1938+274210515+273906927+273934958+274041325+274253216+274593658+274992351
1928+275520527+276572468+278383523+280375138+281751560+282718816+283895902
1918+284795206+284477701+283458418+283224988+284333296+286077151+287493172
1908+288198017+288454403+288694701+289057777+289429514+289818074+290487840
1898+291662575+293099364+294183407+294805719+295666214+297003576+297751606
1888+296979616+295362554+294080286+293418214+293097445+292934245+292816167
1878+292643516+292428181+292323338+292840988+294846448+298525497+302100996
1868+302687871+299697615+295634202+292868588+291773480+291539566+291459705
1858+291316968+291144424+291015747+291021163+291343492+292208220+293777451
1848+296304057+299907426+303354731+303980164+301085461+297441939+295535636
1838+295403839+295821451+296215445+297407451+300384777+304366357+306907005
1828+307017910+306188279+305306461+303748851+301624846+300218474+300127961
1818+300676618+301111143+301641955+303005806+305197709+307046604+307429353
1808+306640971+306016435+306735591+309181512+312619116+315368912+316191261
1798+315758224+316112638+318798229+323311160+326510384+325388930+321457422
1788+318594319+318391162+319834389+321568111+323280744+324862350+325864685
1778+326619602+328657846+333308833+339929304+345158952+345774521+342658763
1768+338645368+335621611+335011099+337409351+341140033+343418342+343923366
1758+344285850+344946648+345954974+348761441+354459814+361174942+365038479
1748+364823808+362919820+361761350+362255864+364269933+366782927+368436377
1738+369764754+373340557+379847936+384806098+383493252+378544165+374003795
1728+370934486+369712888+370519168+372638833+375837267+381540733+390837292
1718+401082921+405863571+402755668+396443412+391526139+389787000+391655265
1708+396729030+403167972+408537470+413062130+419460721+428032706+434377064
1698+435612399+433343452+428367930+422371421+419176035+420312230+424402598
1688+430498247+439771813+451560957+458447355+455100031+447958719+443882734
1678+444806554+449772965+455697379+459952239+463671371+468502416+472077359
1668+471413655+469387104+470719821+475742582+480690485+482735293+483833396
1658+487754323+496915515+511954563+528437090+534745508+531555216+531114540
1648+536019437+540035845+537493475+531990906+529321527+531179354+537468690
1638+547693839+558936997+564582321+562425282+559150735+560053644+565207969
1628+572267323+579711076+587877106+596354113+603040079+608055379+614821547
1618+625177040+635543509+640563185+641584782+643227256+646734085+650550026
1608+653026937+654061733+654730961+655847536+657360455+659121079+661524890
1598+665001447+669340847+673804710+677781412+681232932+684391553+687305338
1588+690038706+692836207+695655802+698119514+700348504+703462792+708860087
1578+716589530+723590778+725892580+725681245+728580181+736041402+744957148
1568+752228984+759087333+767963911+779280384+793778936+814563237+841707248
1558+861574903+864537182+861602881+860081641+859672385+859385870+859262125
1548+859842041+862052739+866442929+872791591+880240330+884448812+877776188
1538+863641124+853334698+849171626+846265875+840445264+833895668+830963303
1528+832296666+835634556+839327325+843558834+847575493+849061367+848048379
1518+846248013+843090253+837942169+833243370+832405131+837162324+847366884
1508+859498425+863436030+853124583+839449851+831757496+830655339+833643084
1498+836738792+835845747+831252544+827902172+829247299+834144090+837862900
1488+836542378+831434539+826170816+822767503+821352289+821495188+823233717
1478+826869528+832178946+838166345+842670237+842376405+836838219+830858425
1468+828901745+831253548+834563030+835307510+834600692+836553713+842994556
1458+850563453+851492797+844360129+836697401+832858361+832428158+833495307
1448+834040575+833017974+831093504+829563369+829056193+829991348+832998031
1438+837219210+838865056+835544742+830951180+829109278+829519969+829493426
1428+828320179+827516804+827722185+828294928+829334459+831423850+832983469
1418+830738984+824863135+819107373+815824577+814695519+814240352+813722416
1408+813715171+814494083+814964100+814514672+814588201+816498898+819379397
1398+821606092+822728191+822564274+820545471+817581901+815974721+816563174
1388+817493665+816283474+813429230+812244218+814836409+820185211+825885521
1378+830743431+835081971+838992890+841574680+842453736+842863709+844184590
1368+846570252+849533320+852833262+856093031+858302724+858615064+857362118
1358+855749701+854756870+854379896+853967628+853316119+852869488+852909804
1348+853225300+853554140+854087212+855545468+858456598+861973470+864039045
1338+863657623+862261850+861878133+863017233+864818245+866534177+868437843
1328+871087639+874128182+876601793+878387166+880489829+883689483+887607935
1318+891334635+894442539+897105534+899606692+902132957+904827014+907695103
1308+910530839+913087592+915203311+916807621+918088975+919512295+921239490
1298+922609151+922716971+921502834+919691779+917818601+916102740+914964644
1288+914521529+913700507+911107742+906922790+902963161+900824774+900649379
1278+901430300+902035970+902076429+901975065+902254909+902931095+903673064
1268+904243439+904521632+904457859+904371919+904899539+906276948+908099050
1258+910058383+912310114+914724758+916520031+917288183+917736750+918634673
1248+919663085+919999887+919393356+917973623+915760271+913131351+911152075
1238+910700136+911469078+912155881+911669868+910138154+908546684+907454356
1228+906674080+906175082+906280606+906847682+907219419+907246105+907623940
1218+908996256+911082204+912674176+912615854+911329909+910866636+912537949
1208+915192192+916817664+917407911+918886468+922273282+926281332+929121301
1198+930838094+933031359+936662364+940811017+943541086+943860958+942675372
1188+941777449+942344453+944588651+948300574+952839832+956950322+959703202
1178+961445605+962869499+963728613+963639229+963373662+963919001+964915705
1168+965438089+965888234+967646993+970977925+974524065+977087849+978927311
1158+980723229+982242676+982911760+983374101+985400938+989721185+994669985
1148+997733556+998125666+997146609+996302560+995838139+995328811+995337420
1138+997285778+1001225535+1005097717+1007171972+1008130656+1009598381
1130+1011781532+1013734552+1015158661+1016961825+1020039097+1023766730
1121+1026255908+1026346439+1024894999+1023863933+1024533663+1026330873
1113+1027262655+1026698736+1026898594+1029704774+1033238719+1034497118
1104+1033833055+1033995824+1036233997+1039450724+1041940117+1042825845
1095+1042619890+1042431081+1042218167+1041168306+1039853165+1040378059
1087+1043698159+1047741719+1049572788+1049016042+1048611952+1049984626
1078+1051847115+1052152353+1051021502+1050553925+1052801352+1058265793
1070+1064871630+1069068920+1069265334+1066807792+1063931023+1062710430
1061+1064103047+1066079454+1065514100+1062803616+1061260855+1062246153
1053+1064102616+1065720987+1068020136+1071272588+1073489311+1072264127
1044+1067317981+1061128286+1057099791+1056961555+1059769959+1063253259
1035+1066099038+1068664686+1071410178+1073465280+1073741823+1072834287
1027+1071926895+1070495253+1067614252+1064873136+1064916321+1067320779
1018+1068798762+1067577164+1065008861+1063174134+1063339701+1065494085
1010+1067649187+1067467551+1065104270+1062538048+1060633951+1058978851
1001+1057768516+1057316291+1056791540+1055690029+1054847917+1054416207
993+1053395041+1051827101+1051072292+1051703499+1053024308+1054180984
984+1054181415+1051997259+1047870916+1043328860+1039722318+1037557101
975+1037138879+1038767221+1041446715+1042635170+1040265505+1034783848
967+1029032605+1025783811+1025335388+1025551673+1024293705+1021235874
958+1016838152+1011474715+1006396933+1003280565+1001804088+999745687+996273794
948+992890208+990575851+988486460+985993193+983940315+982999996+982180480
938+980247976+977793590+976326870+975922923+975216177+973342496+970993994
928+969913573+971447654+974889059+977698468+978202774+977333474+976990431
918+977557578+977845312+976853917+974880308+973039913+972094500+971900597
908+972049737+972805335+974616892+976387129+975556494+971308629+966412411
898+964447124+966349068+970182369+973134533+973314089+970663935+966895842
888+963992746+962534849+961785205+961396035+962138650+964110680+965405736
878+964161685+960785129+956840924+953516162+951883372+952483159+954144500
868+955123270+955445940+956402400+958221848+959753561+960087135+958903127
858+955870117+951270959+946762763+944708809+946370652+950687599+954864876
848+956536977+955437331+952710635+949510981+947002864+946352503+947315348
838+947810759+946351786+944302710+944597044+948476113+953955762+957589205
828+957736623+955616816+953567310+953055830+953642346+953642274+952762213
818+953035528+955698523+959171923+961692091+963811970+966518222+969247573
808+971502676+973949601+976411160+976897963+974018181+969200012+965092392
798+962742669+961657873+961659451+963135784+965836943+968498862+970307764
788+971990626+974199745+975523352+973960505+970441696+968402950+969586025
778+972076136+972666310+970163359+965913270+961952207+959636129+959656861
768+961917630+964931702+966817434+967565357+968959122+971481872+972903614
758+970810420+965910688+961733698+960665688+962165192+964912047+968508116
748+972208274+974195226+973958927+973221262+973067029+972740055+971802318
738+971389906+972169465+972494143+970586460+967715573+967144624+969625480
728+972040770+971870468+970521753+970268237+970800306+970764940+970425340
718+971243134+973315021+974865817+975075861+974433964+972581087+969581291
708+967522315+968216149+970857910+973227575+974256273+973761221+971099087
698+966225682+960561814+955536758+951957188+950722248+952069240+954379365
688+955599097+955220544+953396792+949848643+944890517+939924500+935934742
678+932670454+930157029+929434932+930771809+932211557+931165713+926710459
668+921231527+919623128+922026652+923913173+922486052+918226135+913625758
658+910941601+911143108+913720593+916744924+918880585+920798957+922804848
648+922716038+918328933+910523952+902160002+895438310+891397189+890055147
638+889928030+889242661+888218626+888877882+891085639+891532341+887863746
628+881496432+876127975+873571006+873061033+874626391+879696856+887349971
618+892465845+890695393+883973630+877770664+875829193+878712060+883425565
608+884675427+880731795+875764272+873676243+874251497+875038587+873725454
##END=
