##TITLE=<SNM>
##JCAMP-DX=4.24
##DATA TYPE=INFRARED SPECTRUM
##DATE=2/5/2025
##SAMPLING PROCEDURE=Instrument type and / or accessory
##ORIGIN=Admin
##XUNITS=1/CM
##YUNITS=ABSORBANCE
##RESOLUTION=4
##FIRSTX=4497.3318
##LASTX=599.83466
##DELTAX=-1.4281778
##MAXY=1.7217286
##MINY=0.19966403
##XFACTOR=1
##YFACTOR=1.6034847e-09
##NPOINTS=2730
##FIRSTY=0.22111428
##XYDATA=(X++(Y..Y))
4497+137896096+137732753+137638550+137614714+137548343+137544989+137842680
4487+138394814+138893977+139269758+139729314+140227437+140285695+139463451
4477+137924570+136553501+136352531+137533772+139351564+140857158+141539728
4467+141316148+140424393+139362883+138523076+137966240+137760354+138101062
4457+138856935+139521969+139855309+140027248+140020176+139527703+138565238
4447+137640985+137176197+137060973+136837978+136201539+135363906+134925537
4437+135259053+136042926+136598545+136650836+136439532+136104855+135482159
4427+134611100+133885476+133557740+133533680+133608043+133549646+133106045
4417+132229800+131232811+130640950+130889445+131937712+133090349+133485980
4407+132863136+131678447+130607217+130096651+130181821+130565621+130987244
4397+131439171+131888032+132088974+131934748+131649044+131391907+131043262
4387+130566170+130112337+129575788+128649603+127517903+126834673+126802064
4377+126913850+126790615+126671869+126954302+127749493+128871928+129872169
4367+130269761+130023171+129505189+128929740+128158729+127137364+126156880
4357+125586309+125553765+125937259+126541191+127187835+127622207+127479857
4347+126664574+125759335+125598483+126235127+126731475+126290039+125244569
4337+124518824+124520794+125015543+125712108+126442249+126970397+127159668
4327+127240386+127481632+127681794+127406406+126715416+126245572+126490350
4317+127334506+128375023+129254706+129520969+128771044+127399994+126608733
4307+127094589+128263795+129157372+129546515+129701634+129708148+129434804
4297+128769408+127770970+126867552+126715519+127540940+128768544+129529639
4287+129479123+129009743+128664899+128512736+128290903+127961401+127738110
4277+127732394+127888210+128074804+128104262+127949562+127955129+128522122
4267+129627662+130853193+131761090+132144899+132069440+131745728+131311365
4257+130778329+130224039+129876556+129879502+130072378+130195110+130261666
4247+130516685+131047742+131679414+132188372+132410391+132305334+132136201
4237+132281971+132628181+132567284+131871379+131090350+130816216+131007930
4227+131304470+131596260+131942600+132207757+132216595+132175037+132515039
4217+133281116+134031153+134370839+134290492+133933781+133268078+132141749
4207+130760300+129915958+130234540+131253851+131898440+131833529+131651953
4197+131849894+132281674+132480042+132123897+131452172+131278254+132145773
4187+133571912+134592663+134840906+134599456+134150075+133680891+133548196
4177+134027184+134871527+135502901+135657211+135652147+135922982+136388244
4167+136580070+136437153+136428985+136752566+137089493+137259155+137369900
4157+137353813+137079001+136778243+136793140+137094669+137335618+137194039
4147+136728089+136449448+136669125+136898810+136509546+135721361+135243915
4137+135311327+135677991+136122864+136486666+136646747+136772435+137183055
4127+137754824+137844046+137002418+135591631+134542862+134496118+135231630
4117+136067580+136729380+137455915+138294329+138830683+138736006+138168037
4107+137533345+137088322+136824606+136661690+136651106+136877158+137284878
4097+137774823+138263021+138539338+138444150+138224743+138268401+138576687
4087+138955878+139479305+140236972+140896727+141037906+140739536+140418482
4077+140212457+139881710+139298073+138719873+138475421+138589260+138864723
4067+139145464+139291029+139104686+138620931+138283298+138465896+138960143
4057+139263002+139196733+138948704+138746702+138739621+138950971+139239983
4047+139510511+139832959+140135344+140081556+139537916+138831222+138319745
4037+138036207+137928705+138147704+138843535+139782080+140392323+140338163
4027+139949856+139862613+140242371+140659645+140791828+140855578+141145761
4017+141504340+141531401+141133113+140587224+140180870+140014841+140103924
4007+140452560+141037284+141848710+142858086+143850122+144456898+144480149
3997+144037301+143372230+142715290+142281466+142176873+142307403+142484592
3987+142594872+142660090+142755817+142868978+142928044+143052607+143580616
3977+144598217+145619590+146000231+145601237+144897116+144422328+144262377
3967+144239637+144368736+144741152+145193312+145558377+145955820+146423155
3957+146690309+146630072+146485278+146535024+146916175+147621346+148345716
3947+148643026+148485538+148290144+148333179+148479748+148468411+148266697
3937+148152988+148540534+149621457+151032309+151948997+151825112+151019540
3927+150382227+150381781+150784948+151109431+151288163+151624913+152088141
3917+152039259+151019596+149572882+148747544+148957287+149712184+150513388
3907+151730398+154113045+157455082+160276693+161287862+160453315+158385960
3897+155993611+154533553+154843065+156342841+157136388+156227553+155317007
3887+156290299+158447220+159753702+160119734+160700732+160918912+159650141
3878+157980730+157713724+159028756+161129380+163405288+164908317+164593471
3868+163326539+162946772+163489687+163449430+162203965+160809125+160559887
3858+162292453+166535723+172465150+175782802+172670507+166414413+161528662
3848+159538867+160206977+162529833+165420119+168388039+171359787+173637739
3838+173960002+172462697+170910397+170201974+169666995+168786559+168216323
3828+168543622+169503234+171155583+174116235+177469758+178556368+177235742
3818+176006150+175248957+173443089+170885529+169559977+170584473+173541037
3808+176642664+178287336+179504104+182237116+185531870+186354058+184736279
3798+183155969+182198011+181210241+180596606+181381789+183694721+186743954
3788+189770475+192485198+194883811+197321343+200502369+204641409+208909288
3778+212574014+216237086+221158522+228209259+237402216+247592180+257233746
3768+266003017+274288476+281798473+288718383+296667307+306843628+318421686
3758+329866482+341421790+354772131+370941816+389051393+406266575+420726871
3748+434073867+448094716+461168238+469540475+474276181+480431111+490091431
3738+501306764+510255130+515017859+517445894+520237061+524017373+527658923
3728+529988860+530465219+529194347+527164090+525592460+524785717+524566514
3718+525378647+528018859+532681336+538215198+541793481+541314260+538951054
3708+538580970+541731366+548034130+556111928+563085831+565896699+564316929
3698+560855775+558504612+559422833+564352651+572405581+580822462+585605265
3688+585741314+584697489+584815510+585634593+586450295+587612698+589702059
3678+591963675+592097085+589548019+587414498+586752614+584503079+579106159
3668+573652960+570974796+570537245+570293025+568965875+567386551+567675749
3658+570712994+575169501+579697974+584691021+590068909+593405054+592140204
3648+587817553+584573111+584103741+585717338+587937024+589288893+589487577
3638+589635298+590661467+592453006+595085152+599757702+606806023+612805427
3628+613356018+610086671+607885757+609816468+616971026+628217399+639261555
3618+645421467+646359018+644446001+641752224+640373740+641962023+646023801
3608+650028260+652122900+652846637+653715569+655350391+657229730+658888045
3598+660583457+662243259+663289947+664392318+667680771+674334401+682470670
3588+687310606+685827892+681259534+678677645+679026987+679449632+677701212
3578+674774442+673210470+674626275+678841796+684305924+689204666+691960668
3568+691364579+688123557+685231356+684545757+684774142+683312541+679185711
3558+674471045+672754742+675767974+681379376+685451414+686129059+685006094
3548+684031223+683352835+682296483+681287562+681882239+684540256+687186898
3538+686994124+683816741+680684930+680492082+683188238+685806629+684903277
3528+679920378+674226602+672152779+674941939+679616534+682116942+681485614
3518+679666419+677980820+676226527+674702180+674537360+675434988+675234705
3508+673132632+671161329+670979484+671455657+670914433+670020150+670263627
3498+671387929+672344512+673134193+674101481+674945433+675503756+675941493
3488+675867149+674757492+673353656+673002158+673398932+672540854+669467255
3478+665716829+663381092+662856076+663321766+664411573+666023497+667332544
3468+667691031+667699655+667999186+668132410+667686570+667372021+667968705
3458+669074199+669657501+669319236+668235674+666296488+663487330+661105798
3448+661048776+663505990+666836968+669587915+671268533+671956586+672153374
3438+672186383+671664266+670499074+669485320+668830797+667881500+666745153
3428+666136500+665805000+665181999+664946626+665639883+665852135+664058960
3418+661206757+659581004+660050114+661681071+663011529+663131445+662341988
3408+661785449+662124011+662992794+663641222+663543088+662558403+661092639
3398+659964321+659738613+660181703+660562790+660561452+660683673+661453132
3388+662146612+661218354+658361244+655216423+653510900+653313145+653735939
3378+654593050+656214341+658136949+659313069+659201256+657776083+655232184
3368+652521978+651211890+652183564+654883957+657675942+658995397+658761140
3358+658317381+658451052+658370463+657354107+656230771+656288982+657434845
3348+658306601+658147431+657544874+657143342+656993242+657302141+658457296
3338+660381465+662629327+664483984+664889307+663639958+662344441+662358120
3328+662839720+662340278+660632970+658442130+657153453+658296268+661825521
3318+665569033+667198800+666457442+665159993+665032196+665719654+665471419
3308+663680475+661499523+660144308+659947520+660480788+660941646+661184082
3298+662005136+663655496+664981865+665025505+664585835+665218725+667133154
3288+668596391+667797342+665207424+663158730+663320874+665669174+669238424
3278+672483833+673522417+671608582+668258869+665925363+665655049+666299759
3268+665898599+663787307+661194267+659913916+660677800+662513202+663597879
3258+663057027+661686869+660698988+660267644+659688208+658636242+657885146
3248+658665980+661185643+663888712+664774669+663625386+662202519+661909158
3238+661890795+660292698+657204230+654826713+654493057+655322809+656216572
3228+657400572+659091375+660195234+659379755+656561081+652966405+650344742
3218+649915927+651472019+653638400+655139775+655518557+654913100+653801064
3208+652705012+651673268+650459455+649393587+649308686+650412024+651938081
3198+652952800+653182895+653084017+653209064+653710736+654519524+655497071
3188+656141856+655855855+654805301+653537366+651614982+648060378+643405558
3178+639781888+638517670+638994140+640149221+641653570+643205647+644025586
3168+643860171+643370022+642750365+641328167+639041051+636924332+635741595
3158+635159259+634442584+633216505+631494031+629663387+628343709+627646512
3148+627007823+626161493+625650973+625874674+626158891+625405415+623251041
3138+620325348+617876386+617078899+618127557+619886757+621004183+621356944
3128+621690339+622129489+621930322+620651941+618819364+617304087+616466306
3118+615890996+614887242+613459653+612547342+612859995+613711158+613691940
3108+612437164+610866241+609774389+609180716+609006082+609357394+609903116
3098+609931701+609258145+608261156+607100983+605625071+604005526+602821860
3088+602372563+602332826+602307549+602351077+602572994+602592918+601901371
3078+600580094+599208004+598306212+598037162+598056305+597671501+596574148
3068+595259451+594298965+593655704+593149497+592934717+593041698+593034227
3058+592666559+592325841+592233543+591977131+591424384+591151207+591329633
3048+591146375+590012185+588435499+587118609+586128609+585248488+584424089
3038+583613555+582593445+581254140+579988175+579343948+579189907+578794584
3028+577881343+576818449+575746521+574570996+573738642+573892794+574690801
3018+574888110+573792392+572012265+570599582+569981710+569929372+570084453
3008+570194259+570015797+569165451+567181845+564144377+561214038+559879305
2998+560336891+561218238+561394247+561223591+561428929+561758235+561456325
2988+560240690+558274555+555865738+553577248+552112115+551764112+552212591
2978+552903097+553450454+553763962+553882132+553626835+552609699+550865071
2968+549195716+548374030+548126019+547571637+546636465+546023537+545700958
2958+544739432+542997777+541616951+541327828+541514914+541391987+540954882
2948+540346154+539336675+537876375+536422618+535416113+534894033+534620596
2938+534286606+533727243+533037369+532330581+531572162+530820583+530229512
2928+529621453+528646284+527480646+526671971+526212042+525425149+523969236
2918+522409352+521459981+521121530+520984700+520940614+521021500+520936674
2908+520330288+519199815+517761521+516252897+514948459+513969127+513101051
2898+512032060+510705468+509448573+508736098+508620307+508485894+507658929
2888+506202049+504867428+504271115+504224316+504049162+503609343+503528569
2878+504091017+504568231+504148374+503047489+502131684+501742605+501395271
2868+500565481+499368693+498279295+497441217+496538979+495315056+494040355
2858+493260451+493060689+493003035+492865424+492722164+492287512+491202538
2848+489860482+488835391+487842937+486342826+484685961+483748708+483751087
2838+483960959+483481181+482140054+480520361+479252649+478556121+478266961
2828+477999620+477498059+476892417+476341677+475708007+474932526+474194625
2818+473422564+472347886+471127605+470173996+469523376+468997133+468621882
2808+468400448+468070845+467387550+466303245+464857479+463218456+461747637
2798+460778936+460343875+460072074+459355288+457889969+456140918+454914838
2788+454420600+454112110+453489592+452698015+452204223+452104974+451926474
2778+451177460+449985095+448898039+448160064+447554422+446832394+445889973
2768+444661924+443260207+442116872+441583306+441393134+440848528+439606874
2758+438067212+436908785+436367227+436039036+435423469+434594795+434058292
2748+433906630+433618027+432893769+432097323+431541751+430931871+429868642
2738+428482909+427217427+426223152+425255009+424107436+422964659+422195795
2728+421876860+421679551+421273336+420722113+420307014+419982280+419314932
2718+418120300+416810881+415840024+415201559+414758209+414585731+414631713
2708+414436858+413577219+412183643+410799137+409844635+409312370+408860025
2698+408119746+406973214+405620787+404409131+403549604+402979349+402500834
2688+401993846+401474480+401027785+400682085+400330141+399836424+399183722
2678+398405453+397524775+396686510+396073805+395599751+395037563+394437570
2668+393983552+393587560+393094436+392649451+392445898+392342560+392019758
2658+391357763+390539348+389830926+389281004+388728666+388086037+387354493
2648+386439432+385331559+384361148+383881853+383781080+383573623+382936347
2638+382012402+381158859+380460584+379699935+378866280+378329889+378315094
2628+378548162+378615146+378384568+377945642+377372711+376690494+375958430
2618+375267738+374655033+374091580+373572400+373120055+372672579+372086303
2608+371321862+370532776+369890779+369424048+369121877+369039541+369103440
2598+368973078+368357919+367353682+366293315+365441966+364922563+364701984
2588+364599910+364471035+364312831+364111954+363771868+363260382+362648792
2578+361995383+361329745+360717040+360234548+359900819+359660874+359419777
2568+359078873+358568242+357903496+357220164+356691021+356376881+356177528
2558+355960444+355744438+355641323+355532223+355073781+354250832+353557463
2548+353339301+353359857+353261129+353022336+352768638+352525384+352294398
2538+352110434+351961523+351767262+351453345+351035198+350610769+350271612
2528+350070214+350015646+350008137+349899224+349681730+349454387+349229348
2518+348980593+348753882+348537541+348239236+347927289+347816479+347912680
2508+347946098+347733995+347366513+346995351+346675672+346434389+346258640
2498+346026018+345639802+345158537+344661919+344169466+343753400+343495650
2488+343340234+343190691+343039364+342849415+342496654+341951601+341387257
2478+341044271+340988402+340994424+340777079+340352725+339993049+339839752
2468+339768976+339608208+339334585+339067542+338904543+338776857+338535277
2458+338169356+337827151+337599919+337396403+337114639+336863283+336813138
2448+336859677+336736192+336467401+336347596+336452421+336500633+336224929
2438+335679059+335168093+334943500+334977513+335067208+335091147+335054533
2428+334987735+334929226+334901050+334850831+334737754+334646905+334662257
2418+334687757+334563752+334313361+334115570+334069922+334124231+334192144
2408+334214707+334148169+333976212+333704039+333379193+333181736+333315406
2398+333680360+333891348+333766079+333532788+333441605+333431048+333247828
2388+332675231+331575053+329832915+327313661+323862878+319375406+313872509
2378+307535361+300723955+293907475+287414243+281251395+275298085+269634158
2368+264587751+260573050+257870222+256358328+255614722+255571472+256863904
2358+260234247+265827249+273496751+283514088+295774678+308122269+316965698
2348+319814370+316950680+311382249+306636005+303836808+301802221+299293244
2338+296121418+292837035+289905135+287335922+285175377+283818563+283466322
2328+283750688+284179447+284565366+284989870+285771224+287437996+290260220
2318+293712973+296791498+298997541+300696374+302454458+304475850+306753245
2308+309234825+311658120+313617360+314970233+315959899+316886968+317826600
2298+318683413+319391130+319999746+320597992+321210883+321817343+322435215
2288+323100407+323747831+324202778+324344366+324216420+323941199+323601187
2278+323264818+323039594+322978966+322991865+322973651+322952797+322958113
2268+322868974+322612785+322392430+322493649+322948039+323525914+323978557
2258+324221215+324336188+324424769+324493797+324516918+324516175+324526025
2248+324577434+324729728+325001789+325298310+325506807+325611781+325647280
2238+325647429+325736418+326122895+326829385+327543347+327975024+328279463
2228+328849680+329758311+330679544+331340944+331835257+332462273+333387594
2218+334535910+335778940+337096462+338515464+340031447+341647907+343384357
2208+345226524+347132999+349082556+351106754+353271054+355572071+357888961
2198+360106677+362190313+364093405+365784877+367428286+369321639+371551993
2188+373835391+375776064+377203095+378200456+378939248+379607860+380400738
2178+381427278+382638414+383825835+384646406+384791042+384254353+383350146
2168+382412855+381531248+380566710+379404827+378093178+376646334+374929696
2158+372898547+370690794+368373234+365857623+363058315+359980106+356762020
2148+353554861+350332314+347350826+345741021+346689872+350004123+354325547
2138+358628906+362761646+366882528+371149533+375662318+380324758+384988165
2128+389690267+394537489+399565812+404828281+410367124+416066699+421730737
2118+427303629+432912467+438721810+444838305+451278642+457859117+464242766
2108+470423420+477100505+485302160+495771713+508888800+524834747+543247127
2098+562521524+579984532+593495456+602774838+608893786+613117560+616200415
2088+617792043+616600534+611633767+602831376+590591844+575423720+557833695
2078+538426520+518316907+498835759+480768893+464526872+450485095+438495395
2068+427898455+418417936+410242301+403360175+397602613+392916271+389112764
2058+385872225+383053699+380568272+378268964+376221273+374643621+373564185
2048+372828589+372271568+371853197+371804837+372426686+373788109+376067195
2038+379951924+386239000+395348283+407452621+422685647+441080444+462384095
2028+485643473+508951063+530112197+547690438+561351871+571600995+579205891
2018+584577275+587795919+589005383+588362011+585879594+581509325+575155413
2008+566789718+556647836+545021604+532043168+517996559+503511098+489178637
1998+475300416+462134820+449992009+438880125+428410907+418343889+408966002
1988+400699259+393651941+387695583+382638749+378198523+374092547+370293351
1978+367027573+364452598+362422638+360618051+358869632+357283022+356001630
1968+354925391+353779566+352451078+351112479+349960817+349004941+348213550
1958+347678348+347439110+347302020+347025646+346588504+346158053+345880825
1948+345792690+345901269+346193404+346423126+346129951+345229461+344288676
1938+343817856+343682587+343481115+343156121+342967622+343034011+343150880
1928+343145750+343243252+343732918+344404913+344856775+345193478+345670283
1918+345925245+345448180+344538100+343931008+343857481+343973978+343889895
1908+343556686+343240316+343183294+343346293+343513975+343577279+343659169
1898+343968551+344488289+344915767+345118242+345381234+345838932+346081999
1888+345810830+345380453+345194742+345169391+345105715+345089397+345313358
1878+345794251+346337408+346744329+347189203+348238716+350102182+351872422
1868+352141919+350797930+349183998+348366550+348351235+348656231+348949555
1858+349144522+349237377+349224516+349165524+349277560+349813579+350869709
1848+352483045+354613890+356564637+356994716+355630691+353900263+353053523
1838+353146007+353614188+354163440+355140505+356950147+359100321+360357067
1828+360332534+359840712+359361491+358665074+357812127+357297890+357311198
1818+357593444+357932601+358471223+359446243+360713546+361716148+362096082
1808+362152249+362451743+363293279+364662991+366302794+367652136+368154143
1798+367997760+368215068+369733951+372315951+374275024+374081581+372525861
1788+371558535+371967873+373205067+374541249+375798405+376932000+377738409
1778+378414752+379786620+382527345+386122764+388655772+388723462+387262604
1768+385809739+385050651+385477793+387339104+389749222+391267696+391800072
1758+392295314+393070275+394144544+396125883+399393260+402905786+404881103
1748+405036890+404701971+404932251+405927642+407523396+409321812+410838873
1738+412475703+415541459+420244937+423947820+423947151+421804263+420093127
1728+419630819+420479492+422392434+424789319+427653343+432004876+438517476
1718+445632892+449914097+450278456+449177423+448788047+449833880+452519404
1708+456861682+462262766+467611920+472801086+479077532+486668527+493131836
1698+496684619+498419731+499056747+499117188+500335387+503836687+509169003
1688+515708403+523848390+533172935+539969193+541794670+542043722+544114125
1678+548689657+554934767+561205786+566483570+571680357+577730723+583350749
1668+586722951+588982596+592537758+597739080+602815355+606247924+608692983
1658+611902669+617252678+625098821+633000536+635759140+634572091+635113315
1648+638180967+640578780+639589635+636998378+635730964+636652605+639551868
1638+643802108+647374184+647012054+642930872+639252560+638146694+638958381
1628+640278803+641548819+643026478+644393960+644897119+645124240+646477448
1618+648834446+650133011+649145055+647497817+646908939+647543390+648739732
1608+649748430+650316269+650757574+651314187+651772145+651929159+652049522
1598+652450013+652904254+652928564+652520565+652130483+652020008+652120223
1588+652330245+652581750+652812216+653054726+653496329+654626207+657225790
1578+661442427+665276415+665797566+664107804+663849682+665866557+667969820
1568+668239912+667501156+667322211+668666794+672819421+681033603+691268898
1558+695969068+693328967+689808933+688538991+689380861+691585008+694567611
1548+698387028+703670574+710620762+718528052+726443818+732816204+734754498
1538+732748031+731328509+732608859+735426716+737704464+739245910+741637330
1528+745721486+750768618+755606175+759893662+763619109+766421873+768333626
1518+769655015+770154383+770021827+770515322+772766678+777035728+782955583
1508+788985913+791422460+788470784+784360608+782724076+783905029+786731360
1498+789274739+790109101+789928222+790569141+792747565+795629581+797559548
1488+797560068+796348189+795265444+794992974+795332502+795831647+796709872
1478+798783694+802427437+807065009+811222171+812856473+811464532+809446095
1468+809261797+811146191+813291013+813753506+813204476+814269601+818357177
1458+823483857+824731348+821061808+817030882+815316512+815585860+816549059
1448+816934384+816226481+815067534+814609799+815579764+817924050+821092214
1438+824340076+826531660+826847249+826236886+826185068+826712836+826777292
1428+826271976+826349591+827416352+828503483+828912523+829007385+828880109
1418+827795803+825745176+823774393+822473227+821566305+820625260+819793501
1408+819640353+820215849+820699827+820447950+820011700+820474491+822262462
1398+824784578+826801082+827242610+826104554+824693879+824488912+825676407
1388+826826507+826353680+824917431+824989396+827906129+832818625+838011323
1378+842490691+846307060+849677886+852510760+855083951+858083430+861310401
1368+863542130+864287130+864540122+865215016+865882104+865451653+863613128
1358+861212861+859380879+858541016+858317613+858138667+857509123+856078821
1348+854055998+852263344+851445264+851699594+852570905+853548304+854498344
1338+855588969+856797280+857856904+858809472+860070642+861623909+862639595
1328+862545773+862132793+862809099+865009158+867921728+870508598+872256349
1318+873193008+873698695+874237093+875031904+876041345+877307347+879151894
1308+881640853+883952948+885004096+884859497+884700029+885392543+886877711
1298+888581301+889608213+889010042+886665384+883559966+880777348+878496106
1288+876140669+873224901+869817498+866317908+863045959+860053097+857234274
1278+854654764+852698925+851724722+851630306+851901289+852061426+852069381
1268+852244981+852749033+853334268+853737955+853902478+853673201+852955932
1258+852308619+852648520+854289438+856633426+858697510+859927381+860589042
1248+861174574+861660040+861933402+862475890+863721224+865280587+866679665
1238+868353518+870999417+874366526+877568146+880374776+883315077+886487554
1228+889153600+890670439+891266231+891866557+893382950+895884547+898374473
1218+899809161+900179022+900290761+901060146+903164896+906618393+910576313
1208+914003417+916425839+918013081+919380934+921180874+923395504+925353053
1198+926834132+928575117+931135595+933840523+935676223+936931965+938779931
1188+941351635+943620462+945193504+946819480+949083549+951751825+954322116
1178+956509091+958478981+960915081+964262415+967681937+969463142+969085475
1168+968306648+969101533+971037299+972217137+972419278+973222638+975146584
1158+976847944+977443215+977997969+980145095+984319430+989623198+994657171
1148+998003464+998751884+997690551+997052160+998157430+1000237870+1002110964
1138+1003577992+1004497552+1004278311+1003218539+1003137356+1005738277
1130+1010466028+1014365885+1015121591+1014075870+1014301578+1016425731
1121+1018693889+1020146346+1021334361+1022578729+1023723476+1025052597
1113+1026973866+1029390042+1031789789+1033407289+1033792018+1033673588
1104+1034047315+1034351605+1033245888+1031013564+1029408777+1029519029
1095+1031114449+1033499401+1035899668+1037502894+1038297927+1038805696
1087+1038891489+1038660131+1039311606+1041273021+1043225291+1044478209
1078+1045873718+1047695738+1049706741+1052373084+1055475306+1057552103
1070+1058279632+1058245880+1056746066+1053564668+1051638567+1053925385
1061+1059166778+1063950287+1066937647+1068658336+1069772826+1071084995
1053+1072688296+1073154432+1071896236+1070897128+1071831259+1073534627
1044+1073741823+1071829921+1069460358+1068995486+1070764499+1072188853
1035+1070818547+1067533811+1064815352+1063028274+1061069238+1059581096
1027+1060418729+1063290187+1065234652+1063964412+1060734765+1058727405
1018+1059332193+1061089385+1061845908+1061211829+1060513517+1060873788
1010+1062189080+1063532994+1063916386+1063014520+1061703168+1061541247
1001+1062679229+1062730898+1059897801+1056011623+1053836767+1053105966
993+1051283798+1047320822+1043144034+1040961520+1040139574+1038364391
984+1035514938+1033779231+1034030885+1034668087+1034004047+1031756334
975+1028516873+1025419855+1023494423+1022237565+1020054977+1016719018
967+1013685713+1011756489+1009910902+1006486325+1000975064+994778872+989966443
957+987174384+985348424+983362624+981137363+978963102+976533246+973507970
947+970647068+969211116+969196619+969112462+967664020+965037524+962498160
937+961330218+961952402+963697773+965702605+967683052+969237583+969340623
927+967790999+966020499+965210969+964761783+963486265+961264498+958798213
917+956760522+955676067+955767064+956575777+957355719+958060573+959137147
907+960113282+959599046+957272156+954515113+952569385+951481213+951063549
897+951494670+952684990+953927499+954318474+953383525+951471697+949359885
887+947466346+945887579+944847954+944625889+945495415+947680456+950548421
877+952331559+951765876+949382039+946750786+945293423+945546712+946522922
867+946238482+944049872+941648639+941104367+942735621+945021473+946305986
857+946435270+946431628+946837768+947195734+946881557+945537122+943452965
847+941956423+942420923+944450883+946186664+946347470+944909957+942355203
837+939359442+937175590+937104294+939001253+941025340+941549910+941111653
827+941684101+944033442+946905719+948826244+949410885+949022512+948544035
817+949754130+954452887+961941176+968265462+969660228+966585290+962232306
807+958211491+954197888+951152911+951509464+955174395+958591017+958910993
797+957108079+956010615+957080423+959566632+961607446+961976117+961165769
787+960531095+960406049+959747734+957709150+955046003+953190677+952252531
777+951426496+951146666+952799925+955974261+957868840+956475785+952845870
767+949589087+948789593+950802602+954126518+956890326+958144062+957578453
757+955449393+953435566+953623953+955722904+956892631+955355720+952742011
747+951686179+952804460+954743795+956344568+958199373+961166735+964420396
737+966501802+967286799+967537932+967296835+965984740+963943851+962919913
727+964208218+966238401+965240706+960146514+954901255+953545000+955459950
717+957493032+958681419+960110606+961797915+962048900+959474074+954602319
707+949658822+946976568+947250674+949005562+949706848+947840890+944550355
697+942433785+942088904+941475566+939116114+935810488+932614890+929415278
687+925578687+920451263+913608726+905910044+900174636+899358563+903769906
677+910167421+914098652+913188311+906928332+894705379+878063945+865729178
667+866994809+875733859+880903882+881016290+879797793+880207800+883706572
657+890146388+895902241+896208984+891555503+887521529+887594237+889720324
647+890338419+889375071+888865146+888252850+885247721+880648436+877485327
637+876273149+875710069+876483617+879124832+880823144+879774078+878254786
627+877630966+875091007+869449049+864391063+861545253+858313375+853780926
617+850485038+849580570+849094287+849328247+854355307+864735721+872873403
607+871191224+862680930+856017487+855707622+859983362+863799062
##END=
