##TITLE=<SNM>
##JCAMP-DX=4.24
##DATA TYPE=INFRARED SPECTRUM
##DATE=2/5/2025
##SAMPLING PROCEDURE=Instrument type and / or accessory
##ORIGIN=Admin
##XUNITS=1/CM
##YUNITS=ABSORBANCE
##RESOLUTION=4
##FIRSTX=4497.3318
##LASTX=599.83466
##DELTAX=-1.4281778
##MAXY=1.7059757
##MINY=0.22040132
##XFACTOR=1
##YFACTOR=1.5888136e-09
##NPOINTS=2730
##FIRSTY=0.24849133
##XYDATA=(X++(Y..Y))
4497+156400553+155625358+154841422+153939238+152944204+152089458+151780586
4487+152127432+152679909+153081688+153525192+154134476+154587613+154624706
4477+154314268+153885300+153762344+154348454+155417946+156185563+156139035
4467+155518965+155040871+155214764+155765721+155873990+155158425+154113055
4457+153455667+153262792+152868808+151789299+150607823+150392627+151360481
4447+152708937+153562623+153556283+152775939+151631763+150661367+150238571
4437+150430508+150919903+151088534+150497913+149286435+148014398+147298515
4427+147464810+148279415+149170476+149740782+149803395+149213778+148112144
4417+146979214+146083191+145305567+144675209+144499516+144851127+145422643
4407+145900614+146064453+145647865+144611986+143471140+142902569+143054253
4397+143483783+143784570+144048761+144524539+145031538+145161077+144984765
4387+144957633+145108491+144987729+144492360+144107473+144102643+144006876
4377+143306261+142327002+141814310+141769123+141477405+140759533+140337750
4367+140698299+141338177+141550653+141505344+141966049+143015452+143703584
4357+143311325+142417376+142079449+142418004+142714055+142653919+142725648
4347+143243104+143586631+143031790+142031401+141755571+142420884+142979166
4337+142488570+141075326+139557134+138720685+138872856+139699719+140666711
4327+141565303+142326402+142554710+141929407+140885453+140229847+140202695
4317+140507384+141103557+142199488+143414361+143773597+142928896+141713432
4307+141056935+141050351+141443725+142272924+143479375+144459965+144524013
4297+143636338+142561275+142275447+143078919+144352419+145329239+145795169
4287+145907724+145818297+145603288+145242138+144635884+143781344+142873411
4277+142210939+142021919+142277069+142676953+142942607+143072813+143287494
4267+143778314+144427046+144785654+144528656+143881800+143355396+143109606
4257+142900121+142692278+142861406+143516111+144169832+144522513+144915597
4247+145547371+146028644+146129598+146154208+146371383+146755126+147165392
4237+147296058+146858265+146123670+145733287+145839024+145973028+145741897
4227+145229505+144795501+144720940+145009000+145441419+145749982+145731205
4217+145439778+145400040+146202884+147608503+148512056+148182907+147048317
4207+145966660+145330684+145095445+145137968+145420120+146060279+147170579
4197+148433687+149062939+148520638+147168262+145942463+145457288+145621464
4187+146050581+146538673+147038469+147479225+147811619+148080575+148351313
4177+148646614+148932920+149112777+149135690+149134536+149289249+149557126
4167+149774649+150009897+150438555+150866303+150890922+150582013+150437176
4157+150620091+150742578+150423755+149753349+149241820+149369653+150029527
4147+150531968+150395281+149911926+149693447+149938318+150354502+150625127
4137+150812722+151261150+152112164+153072299+153708051+153786570+153332814
4127+152622492+152087948+151929727+151917000+151821327+151753190+151792084
4117+151729631+151516901+151493763+151860737+152365110+152703806+152806457
4107+152642141+152225347+151940607+152381438+153535734+154459405+154261756
4097+153258825+152582717+152771034+153327450+153573399+153372383+153020997
4087+152869183+153131611+153802383+154595304+155070462+155000655+154606999
4077+154318685+154344327+154575308+154793825+154833497+154630699+154261128
4067+153933939+153856611+154043690+154309147+154434438+154305480+153996092
4057+153789224+153938694+154371929+154842257+155311722+155890647+156494660
4047+156838609+156752474+156422059+156281480+156503063+156651014+156211786
4037+155407207+155037739+155575238+156765220+158010114+158779157+158715738
4027+157812822+156618273+155901048+155922235+156292359+156608190+156911088
4017+157420863+158072221+158483462+158338710+157720928+157007511+156521324
4007+156422321+156807837+157712600+158994475+160267328+161076174+161303779
3997+161291230+161363954+161441235+161322706+161050214+160785413+160677557
3987+160932529+161611535+162313182+162421338+161778947+160975127+160863201
3977+161721623+162915282+163525316+163281130+162661904+162185424+161946321
3967+161902146+162259404+163200341+164368039+165129015+165312052+165199188
3957+164961154+164701324+164790535+165636577+167286383+169221754+170363660
3947+170047820+169228113+169434859+170520924+170796679+169510021+167697699
3937+166714332+167425620+170174077+174092914+176789299+176436112+174181093
3927+172655069+172782658+173336551+173284986+173407361+174888029+177292753
3917+178501717+176819574+173097579+169783844+168303307+168579756+170751586
3907+175887490+184235070+193293075+198918909+199342662+195954196+190290059
3897+183815425+179236152+178897653+182014058+184322818+182919450+180977476
3887+182627432+186779763+189347584+189993745+191048935+191220061+188171501
3878+184734041+185160776+189420194+194830091+199606675+202040436+200368609
3868+196914154+195908709+197199682+196652879+192494433+187931742+186841888
3858+191163281+201573747+216082652+224720769+217734728+203073829+191378975
3848+185845578+186133076+190453119+196414376+202573076+208779176+213815253
3838+214555540+210305913+204576537+200101651+196834772+194429935+193526138
3828+194196310+195765082+199222163+206547811+215449921+218853806+215752200
3818+212227591+209501663+204194501+197005822+192387477+192989784+198423821
3808+205261827+209583727+212486015+217325718+221991764+221090199+215912859
3798+211385619+207813067+203566066+199499438+197480577+197777172+199671314
3788+202804264+206829756+210798713+214374867+218598740+223660421+227309804
3778+227815509+227050837+228301200+233429113+242098817+251614958+258948202
3768+264162232+268987661+273634086+278556397+286054802+297200246+309344157
3758+319349702+328645403+341737679+361385809+384967032+403600527+412298761
3748+418116917+428297414+441115003+448497542+449526697+451963721+461299676
3738+478045294+497714545+512358974+517356410+515368443+512240914+512390450
3728+517099731+524173520+529668333+531791617+531543980+530265274+529345102
3718+530678317+535945899+546096759+560059163+572230741+576156143+573994743
3708+572320777+574079714+579976052+589344345+598137755+601232383+598662330
3698+594998034+594293274+598267708+606595930+617268326+626107280+627736077
3688+621683114+613849604+608594477+606613149+607875123+612681119+621411616
3678+632748519+639995853+635996359+626926387+622852350+622710842+619245902
3668+611259143+603818193+599746182+598602118+599329463+602091144+608101715
3658+616743901+624030214+627395289+630553430+638465984+650412696+658057316
3648+654417668+644498351+636635243+633866847+634815381+636405725+636796783
3638+637204648+640160170+646589973+655772416+666966799+678229609+683332800
3628+677722704+668030279+662896551+664617823+671634288+680444731+686686958
3618+689297415+691687958+695800523+699376696+699532084+696947513+694378998
3608+693431889+694946077+699183268+704613967+708702597+710505877+711339465
3598+712200363+711884035+709224283+706671900+708928063+717615306+728166078
3588+731999755+725880802+716642912+711631558+711981425+714521653+715994574
3578+715528036+713737361+711273288+709262174+709881024+715177419+724418910
3568+731953011+730804671+721952887+713402425+709765477+709223533+708371713
3558+707462495+709874572+716739251+724314168+727962895+727313657+725246646
3548+723636344+722304254+720683823+719069545+718123937+717967423+718192740
3538+718399973+718748039+719827877+722387163+726754156+731709387+734671587
3528+734073144+730745322+725995599+720474038+715925472+714649805+716373703
3518+717981454+717216669+715043564+713500415+713608984+715746599+719917913
3508+725162537+729986615+732988655+732702414+728782677+723471502+719527305
3498+717619883+717310532+718850981+722125907+725253623+726590065+726559377
3488+725646933+723284001+720288263+719016723+719927742+721024836+721250152
3478+721552900+722698614+724662984+726496877+725972865+722325038+718593027
3468+718192740+720723739+723625614+726392810+730411212+735426692+738463772
3458+736653364+730444525+723447942+719165733+718268295+718913631+719215479
3448+719179689+719909735+721373427+722010810+720962261+719585228+719502695
3438+720271081+720444701+719965482+719786085+719970284+719740241+718893898
3428+718174657+718140068+718364709+718144795+717573364+717012136+716365750
3418+715944529+716752982+718698369+720025281+719686069+718743763+718633993
3408+719391650+719770553+718475604+715745249+713547984+713490661+715108991
3398+716817358+717950091+719060166+720462033+721614350+722408922+723801861
3388+726385232+729386072+731456385+731691230+730028782+727187306+724418010
3378+722868408+722729001+723370811+724648879+727185956+730535312+732248781
3368+730467109+726724969+724227133+724297811+725852891+727321686+728029222
3358+727885164+726668771+724199972+720863371+717775421+716305876+716686580
3348+717306781+716883534+716762660+718757643+721943358+724103108+724767877
3338+724867742+725249797+726632832+729164657+731738274+733201516+733581095
3328+733127611+731729871+729962755+728840151+728147320+726685128+724331800
3318+722561308+722623133+724086076+725764355+727377208+729038606+730009574
3308+729872869+729906857+731252377+732700313+732205563+729626319+726227668
3298+722969399+720781963+720966012+724094404+728958173+732926305+733824043
3288+732265813+731381129+733159499+736197104+737797727+737140011+735236790
3278+732887814+730450678+728942492+729602009+732053252+733946043+733398096
3268+731187101+729574173+729747193+731345640+733457745+734985664+735016726
3258+733783152+732545151+731878656+730905287+728758292+726156989+725071750
3248+726946534+731145009+735048839+736718265+737198085+738381389+739666059
3238+738963549+736180973+733365533+731898839+731523762+731679900+732422026
3228+733833722+735346410+736276486+736229367+734771227+731900640+728755741
3218+726690905+725838635+725727290+726451333+727887265+728940241+728438063
3208+726312452+723573693+721318730+720354890+721523788+725089682+729182589
3198+730147930+726266083+720308671+716772940+717550479+720803947+723202143
3188+723079168+721536468+720604066+720901261+721245876+720103913+717326889
3178+714632023+713875491+714704802+715037037+713993364+712749886+712446688
3168+713141094+714514225+715979418+716647939+716302049+715632403+714935521
3158+713612885+711395587+709093355+707675506+707288575+707430457+707576691
3148+707328341+706471269+705390831+704810246+704657934+703971932+702456843
3138+701130006+700736772+700645085+700012428+699139300+698998693+699998098
3128+701588141+702798907+702927584+701753734+699433194+696590893+694401657
3118+693979761+695327156+697071688+697661577+696870306+695772237+695380878
3108+695746276+696131632+695695255+693968806+691158319+688456024+687630840
3098+689357965+691797052+691975775+689196799+685576433+682950370+681478274
3088+681059530+681576864+681996284+681642291+681844497+684017377+686924579
3078+688042532+687117933+686263187+686773468+687440563+686175176+682527874
3068+678039482+674668967+673630247+675015983+677340649+678032054+675703336
3058+671486329+667520373+665138683+664616622+665413970+666610704+667917734
3048+669687700+671481377+671969299+670828312+669149057+667543857+665658719
3038+663818974+663272903+664287839+665496653+665685580+664979769+663819874
3028+662263519+660705664+659828108+659435099+658459104+656519494+654618599
3018+653814648+653861617+653588882+652234209+650135009+648384625+647926564
3008+648680170+649586011+649803975+649418318+648664188+647418384+645827515
2998+644338537+642925114+641306334+639818256+639071329+638907238+638537563
2988+637550613+636191888+634931303+634120374+633788815+633639655+633451253
2978+633451329+633960635+634675524+634884034+634440679+633731867+632721958
2968+630967298+628684423+626966078+626532290+626823407+626787430+626257303
2958+625936811+626175745+626541143+626452307+625415800+622997383+619505207
2948+616328571+614778556+614830252+615251622+614665597+612721860+610526959
2938+609523765+609885449+610492445+610454142+609952789+609340316+608286890
2928+606423285+604309117+602895094+602176266+601262921+599635512+597781886
2918+596687831+596750519+597194548+596844832+595458908+593919735+593161553
2908+593256166+593438378+592831569+591195457+588862425+586227546+583951537
2898+583100692+583912708+584917065+584575602+583327959+582670093+582868098
2888+582914917+582205730+581042871+579745971+578319419+576914062+575748840
2878+574610029+573183664+571777295+570964566+570673373+570415568+570180611
2868+570282952+570545033+570335211+569335619+567800497+566120379+564534875
2858+563246903+562393470+561864469+561376996+560770451+560053798+559144767
2848+557873865+556306143+554798370+553702589+553149915+552965078+552639709
2838+551700028+550283267+549042752+548399554+548178065+547990564+547654428
2828+547107794+546214257+544940954+543547302+542231007+540786935+539034788
2818+537270673+535880886+534912806+534389807+534470540+534854095+534705047
2808+533670303+532368489+531455556+530742918+529573719+527786721+525962170
2798+524718616+524027249+523365181+522400590+521259903+520135836+518998300
2788+517867667+516994501+516442765+515821101+514771351+513448003+512244328
2778+511314101+510501635+509540758+508331569+507117502+506187501+505402420
2768+504361861+503001486+501650639+500541615+499581451+498588499+497523405
2758+496439891+495332443+494119202+492801256+491574359+490694553+490272432
2748+490232703+490315312+490043739+488994964+487303630+485606142+484336928
2738+483401712+482565499+481727109+480788179+479719146+478799499+478375802
2728+478318442+478027661+477050616+475475428+473683853+472037273+470911930
2718+470585773+470773762+470701770+470005226+469112964+468465002+467870499
2708+466932732+465666369+464341220+463021361+461632811+460352943+459566324
2698+459380474+459382762+458936332+457718551+456073397+454801520+454379061
2688+454419315+454175391+453462678+452673771+451954642+450910032+449273169
2678+447441152+446052302+445294721+444907339+444635804+444333732+443803154
2668+442967728+442074267+441385263+440830075+440202559+439491308+438776682
2658+438005669+437105155+436178192+435390298+434747850+434140742+433551003
2648+433074335+432734523+432397411+431897971+431200114+430408618+429658577
2638+429019281+428449388+427834176+427135418+426472525+425940822+425423713
2628+424737222+423899020+423103473+422461888+421889369+421257501+420562344
2618+419871840+419182498+418455566+417748968+417174310+416756391+416420180
2608+416042402+415523792+414920547+414393459+413923506+413301579+412493915
2598+411717350+411098650+410559032+410026391+409494350+408943065+408413913
2588+408029157+407756797+407334376+406621512+405843560+405260836+404807053
2578+404334436+403948405+403722563+403366769+402607537+401622538+400738155
2568+400041310+399548736+399336513+399277201+399033315+398466085+397768415
2558+397170836+396741137+396427210+396136805+395805696+395433245+395036447
2548+394620403+394223680+393930274+393767495+393619348+393310223+392783097
2538+392097582+391262681+390304168+389500180+389197920+389339915+389511547
2528+389453511+389202234+388851092+388493948+388232692+388052731+387896893
2518+387843172+387912275+387834018+387362902+386703610+386305799+386308913
2508+386409979+386253540+385794242+385227312+384683830+384133482+383541755
2498+383005738+382713645+382733190+382841759+382710831+382248794+381611036
2488+381005315+380643632+380616358+380668354+380424168+379900793+379452374
2478+379242627+379096092+378774812+378201843+377549379+377153819+377174339
2468+377400819+377554706+377603926+377626885+377598899+377452139+377154494
2458+376666271+376001127+375352489+374985103+374958430+375082492+375163750
2448+375159211+375066736+374825026+374405606+373891948+373402487+373036076
2438+372903310+373050407+373329182+373500289+373490798+373415505+373337098
2428+373174732+372884215+372555244+372273543+372025567+371795299+371636347
2418+371584951+371579624+371514723+371341890+371103932+370886756+370757741
2408+370757891+370898386+371097104+371162080+370953195+370575418+370314837
2398+370338734+370522258+370622462+370540716+370333370+370096874+369946963
2388+369925092+369804180+369200711+367966499+366260871+364248368+361981325
2378+359535110+356993906+354328789+351549702+349009998+347311198+346728962
2368+346817198+346773193+346195834+345354593+344853766+345234882+346743518
2358+349280858+352566701+356423037+361026789+366638836+372752687+377965497
2348+380954220+381483146+380719675+380124609+379665911+378190251+375317150
2338+371756696+368188439+364675404+361126542+357877576+355519522+354201013
2328+353401639+352465260+351151028+349756363+348905106+349056667+350062675
2318+351265674+352020180+352126535+351929055+352017741+352698604+353769250
2308+354828379+355637657+356168572+356547025+357018741+357766456+358686291
2298+359436070+359734353+359631636+359505398+359702615+360177445+360622863
2288+360903927+361124441+361341204+361481285+361486800+361360449+361151677
2278+360981546+360959374+361032379+361010770+360770410+360415591+360216798
2268+360335121+360659515+361002817+361328261+361651904+361891476+361971496
2258+361944223+361888850+361786134+361599383+361435404+361474270+361696735
2248+361876883+361945386+362115405+362521356+363006691+363388145+363664707
2238+363893887+364119466+364470346+365080343+365835261+366401853+366607886
2228+366663521+366924177+367547979+368458585+369515501+370605505+371647377
2218+372621684+373578621+374594607+375774010+377245581+379027815+380952457
2208+382863030+384776267+386721617+388636430+390563773+392687846+395049127
2198+397460378+399772364+402034793+404368688+406798359+409242361+411617710
2188+413869597+415902845+417621378+419051420+420310280+421490545+422662932
2178+423889679+425122503+426108327+426506551+426225600+425579063+424917258
2168+424210997+423224722+421971715+420754835+419790844+418925069+417785320
2158+416162450+414057173+411455832+408384989+405039684+401603781+398146906
2148+394656793+391038153+387634475+385765843+386674273+389907445+393822755
2138+397510086+401152323+404966867+408842036+412573672+415951990+419015631
2128+422169683+425696898+429434799+433116015+436700891+440277402+443835117
2118+447267457+450583912+453925653+457314250+460627366+463804565+466848660
2108+469751285+472535775+475266206+478158064+481725083+486429788+492137087
2098+498175419+503815303+508551370+512144162+514541270+515778746+515856028
2088+514474794+511134291+505769769+498798621+490428720+480695479+470133903
2078+459758439+450477257+442639958+435930967+429916607+424728331+420770216
2068+417993417+415918339+414020521+411962062+409847331+408041837+406570304
2058+405216268+404059825+403247509+402586078+401828159+400932221+399953713
2048+399042544+398365394+397913712+397603498+397352259+396993689+396563015
2038+396521710+397288258+398892333+401312963+404771451+409643848+416213096
2028+424257028+432886384+441045075+448016523+453500193+457651549+460828373
2018+462921007+463387171+462126736+459698190+456607426+452909291+448495141
2008+443456626+438061942+432499640+426874800+421431008+416462609+411990611
1998+407877596+404311439+401740711+400103661+398515493+396165541+393230428
1988+390415401+388089459+386286141+384982976+384045847+383274722+382604963
1978+382026516+381422484+380664190+379777781+379054863+378978182+379701325
1968+380558885+380556259+379504183+378181022+377300916+376876919+376647514
1958+376592779+376756007+376905918+376722732+376219278+375787140+375824468
1948+376469767+377779797+379751445+381655641+381969568+380088369+377381836
1938+375492383+374729287+374609651+374804092+375108228+375235742+375041226
1928+374816847+375264929+376747416+378488234+379424613+379825350+380508427
1918+380834321+379525266+377163122+375684086+375973553+377238978+378039890
1908+377556019+376181650+374939522+374367228+374226996+374179689+374336953
1898+374984090+375912628+376500154+376807216+377784374+379561168+380557497
1888+379534645+377444561+375872450+375218522+375101888+375179507+375228989
1878+375173767+375114680+375257426+376238936+379191081+384406555+389610212
1868+390937274+387432605+382357100+378976644+377900221+377980466+378065063
1858+377750535+377197149+376745053+376690056+377311495+378825533+381253741
1848+384741566+389498117+394141597+395134586+391188926+385868710+382742269
1838+382101772+382340519+382718822+384516737+389071869+394929416+398353052
1828+398123159+396596816+394926902+392105610+388413290+385823466+385230951
1818+385709833+386214074+386998780+388982358+391993552+394323245+394557228
1808+393302082+392327737+392987554+395735054+399847394+403334731+404420721
1798+403714460+403881703+407051099+412516987+416009726+413644281+407749144
1788+403614445+403275007+405251157+407573048+409653077+411257114+411910929
1778+412355109+414819256+421055556+430088164+437135767+437552148+432681364
1768+426714085+422268685+421079191+423782686+428171963+430780994+431438148
1758+432227767+433313682+434401773+437489460+444471112+453344505+458922563
1748+458899116+456135673+454261751+454891106+457732957+461047836+462999189
1738+464699377+469858691+479372881+486985238+486014608+480090997+474794865
1728+471509697+470777551+473002802+477238079+482943314+491983500+506197817
1718+522394738+531440738+529232631+522194557+516936315+516052757+520187907
1708+528850277+539613197+549012665+556999274+567374925+581272764+592941451
1698+597597912+597299666+593681926+588830199+587543391+592016589+600273908
1688+610467685+624304075+642126716+654660241+653522330+646835323+644234319
1678+648189096+656859231+666034096+673110661+680449157+690045468+697695715
1668+698252966+695543094+696635836+702645620+708909981+711392286+712246957
1658+716513109+727624208+746173894+765342355+769956798+763536824+762325458
1648+767987701+771183095+764860435+755098082+749553862+749738437+755195171
1638+765125217+774681086+773941362+761824556+749542308+743652198+743049404
1628+744001764+744468453+744920286+744521725+740907662+735796892+734118763
1618+736696807+737492804+731081383+721620727+715224388+712908200+712361078
1608+711200583+709080825+707091320+705870500+705022432+703903579+702498110
1598+701417597+701009807+700738272+699870471+698501467+697233979+696219793
1588+695212210+694252571+693656380+693429563+693503918+694844561+699279157
1578+706937732+713211323+712098997+706867954+705628377+709955904+714483088
1568+714257396+711411794+710047517+712177404+720394731+737791575+759478281
1558+765624844+752985377+739522526+731887434+728936415+728882093+730132174
1548+732524742+738050655+748471549+763318335+780227857+792737297+790170358
1538+776145154+766294866+765694097+769218950+769946219+768181805+769376888
1528+775340228+783479223+791651532+800400825+808731073+812730792+812260502
1518+811122216+809723800+806408807+802783940+802859570+809633313+823907467
1508+841406353+847545638+833472490+815279274+805952323+805843829+811290659
1498+817033409+817734043+813437953+810428635+813756157+822543715+829802379
1488+828411091+820103652+812189448+809016488+810177433+813108795+816503545
1478+821204048+828067377+836280052+842890228+843282112+836423210+828501878
1468+825977856+829968196+835995087+838285089+837780434+840763192+850727902
1458+863558322+867214027+857596483+845502636+838422544+836824097+838278186
1448+839142161+837016100+833147008+830445239+830284149+832728639+837855315
1438+844665222+849276514+848711685+846221952+846045181+847872095+848739672
1428+847651881+846593203+847107836+848904438+851813141+856442065+861223151
1418+861409302+855614930+848486969+844119601+842774006+842500295+842105110
1408+842367042+843930149+845372083+845390616+845749411+848913517+854181850
1398+858458207+859872154+858373798+854476344+850075513+847896555+848703357
1388+850321912+850000032+848161938+847813047+850324088+854462764+858933899
1378+863916592+869717565+875099870+877971132+878007897+877272524+877529353
1368+878777409+880746881+883838133+887424735+888993170+887018220+883260624
1358+880200660+878362941+876848603+875070383+873473436+872626718+872246239
1348+871635042+870734752+870191307+870694911+872649378+875917176+879334584
1338+881030871+880014360+877096878+873969687+871883843+871189511+871616734
1328+872750443+874268158+875910123+877465052+878910663+880513912+882478057
1318+884291766+884941755+884260554+883476411+883936948+885719970+887795985
1308+889200704+889782715+890047047+890462040+890959641+891190060+891005935
1298+890319857+888904784+886888043+884990824+883698351+882509570+880476622
1288+877309664+873567374+869885483+866440689+863232915+860525069+858654186
1278+857482812+856398998+854990378+853557522+852749145+852654757+852647329
1268+852306991+852024352+852369191+853199553+853747649+853542441+852909860
1258+852379395+852006044+851742312+852066894+853537414+856013192+858984020
1248+862197421+865287322+867405429+868033809+867819972+868070424+869552349
1238+871909128+874258629+876382664+878844186+881686111+883898457+884890059
1228+885742404+887973957+891526796+894847941+896758814+897561714+898352459
1218+899855318+901970424+904110591+906032344+908300737+911397691+914501248
1208+916218768+916685007+917644571+920143307+923386270+926228421+928646125
1198+931098118+933462700+935426771+937277995+939707479+943060136+946890662
1188+950183745+952312883+953798784+955610468+957897244+960135325+962249081
1178+964618915+967196359+969452897+970955156+971600492+971659316+971955686
1168+973560961+976649661+980015149+982183227+982827888+982996706+983998137
1158+985958906+987700511+988290775+988136062+988115804+988590446+989839552
1148+992161292+994920834+997050872+998883113+1001740570+1005618516+1009020318
1138+1011246994+1012986649+1014304933+1014178882+1012517184+1010968482
1130+1011289162+1013844771+1017577458+1020615738+1021487216+1020808191
1121+1020808716+1022416017+1024197538+1024834696+1025020021+1025961202
1113+1027677297+1029268241+1030111583+1030454171+1030922211+1031959881
1104+1033789197+1036607788+1040238283+1043780317+1046763375+1050092548
1095+1054460141+1058405388+1059497531+1057024154+1052113266+1046715130
1087+1043546297+1044750835+1049444285+1054077336+1056146674+1056311666
1078+1056326372+1056554464+1056220579+1055154997+1054296275+1054555355
1070+1055764169+1056766275+1056818646+1056658831+1057549892+1059668300
1061+1062030706+1063799247+1064997257+1065919831+1066393348+1065936038
1053+1064628183+1063314176+1063081357+1064799402+1068093536+1070661076
1044+1070591748+1069267011+1069075234+1069232272+1067648456+1065763092
1035+1066983612+1070995936+1073741823+1073284363+1071559714+1070636316
1027+1070739707+1071043205+1070783525+1069720120+1068350290+1067612216
1018+1068093986+1069730624+1072007496+1073641732+1072716308+1068811877
1010+1064190156+1061150075+1059788573+1059526192+1060265467+1060787828
1001+1058986349+1055019042+1051389298+1049515264+1048856722+1048992002
993+1050162176+1051799039+1052634352+1052267228+1051116412+1049360476
984+1047042413+1044555306+1042428645+1040741436+1038775716+1035729782
975+1031901282+1028382883+1025480032+1022304972+1018284994+1014035498
967+1010312266+1007099240+1004034099+1001044814+998238377+995402004+992439054
957+990080024+988738556+987455762+985190219+982219917+979332222+976785691
947+975004170+974826348+975775632+975503197+972667424+969101230+967468494
937+968186009+969598231+969897602+968205667+964992792+962040346+960947153
927+961643360+963004937+964353007+965462407+965896082+965323150+964093252
917+962837994+961655290+960440623+959752895+960230688+961419620+962261686
907+962347971+961627379+959779381+957113476+954957178+954243114+954679716
897+955394605+955573478+954874870+953750540+952720673+951230344+948157400
887+943780053+940335033+939781834+941522088+943210722+943623539+943560589
877+943965528+944536134+944563745+944184391+944051663+944250943+944315620
867+944295436+944810895+945641031+945292665+942833845+939282132+936244227
857+934229061+933059412+932921881+934074723+936036768+937817163+938753918
847+938968430+939237789+940059596+940927623+941250854+941383057+941593742
837+941048947+939308242+937610380+937285423+938216700+939832930+942045801
827+944245391+945059621+944072521+942459968+941678827+942627286+945451054
817+948976282+951344240+952316559+953606856+956365724+959597957+961151086
807+959610712+955562148+951292169+948914907+948878592+950294415+951846119
797+952314758+951538494+950837860+951390084+952851976+954360987+955432496
787+955521182+954220005+952360152+951850395+953901876+957585492+960208705
777+959688744+956474743+952522217+949509372+948561814+949934119+952551929
767+955098160+957217318+958616485+958488183+957094944+956084885+956230969
757+956468215+955772683+954791961+954909309+956429799+958393044+959559617
747+959168408+957222570+954454700+952085390+951454835+953281375+956848094
737+960275181+961952711+961480995+959389748+956634032+954481336+953823244
727+953778676+952702140+951484022+953216173+958157149+961926300+961482720
717+959426963+959134870+960009424+959808042+958486082+957791451+958588498
707+959539584+957756262+951359246+942333392+935168366+932890819+935711661
697+941583163+946680502+947464344+943541681+937818889+933620564+931866429
687+930933951+928662632+924854015+921938334+922472025+925818530+927890119
677+924971962+917690039+910204183+905365924+901697089+896311108+890972396
667+891667478+896965148+899750050+897718528+893251819+888960757+885901543
657+884993000+887098278+891353926+894902863+894636280+889558524+882119262
647+876384540+874284890+874537742+874760958+874015906+873004721+871630015
637+868231214+862490939+857572548+857167159+860910725+864455760+864515784
627+861944793+858405010+853144030+846052084+840609755+840043126+843384303
617+847594858+851410303+854770839+856675935+855481752+850964848+845734480
607+843452431+844848446+847200499+848571003+848866773+848200653
##END=
