##TITLE=<SNM>
##JCAMP-DX=4.24
##DATA TYPE=INFRARED SPECTRUM
##DATE=2/5/2025
##SAMPLING PROCEDURE=Instrument type and / or accessory
##ORIGIN=Admin
##XUNITS=1/CM
##YUNITS=ABSORBANCE
##RESOLUTION=4
##FIRSTX=4497.3318
##LASTX=599.83466
##DELTAX=-1.4281778
##MAXY=1.7746456
##MINY=0.20648915
##XFACTOR=1
##YFACTOR=1.6527675e-09
##NPOINTS=2730
##FIRSTY=0.22724763
##XYDATA=(X++(Y..Y))
4497+137495218+137580941+138141062+138674163+138743621+138402866+137791796
4487+136959467+136277470+136345828+137164074+137943723+138009629+137444234
4477+136696204+136073927+135804010+136086045+136761118+137219666+137059246
4467+136682896+136813356+137489160+137957201+137650382+136944140+136681183
4457+137145168+137771718+137798017+136966879+135685343+134784998+134928991
4447+135889057+136687720+136738686+136389961+136086883+135672793+134967390
4437+134488006+134927657+136102976+137006927+136940210+136192198+135516691
4427+135311454+135488309+135831481+136085305+135804587+134676880+133064181
4417+131740614+131089676+131013906+131442332+132339746+133328671+133805819
4407+133458176+132536193+131692397+131451970+131760863+132231285+132700940
4397+133184796+133465902+133206660+132413334+131502802+130977166+131112738
4387+131743120+132268980+132106000+131245542+130223898+129486065+128970961
4377+128438609+127963553+127837673+128106256+128478062+128708851+128876537
4367+129128829+129261353+128886770+128106743+127562878+127629686+127970693
4357+128116174+128144258+128449689+129056251+129552134+129746119+129980037
4347+130460367+130684565+130073315+128832468+127655047+126940656+126748545
4337+127029300+127456490+127522766+127176069+126939150+127185780+127723766
4327+128176499+128291749+127846968+126792263+125585045+124935388+125108186
4317+125788994+126588225+127270159+127611005+127538778+127395750+127649214
4307+128316173+128959502+129251715+129307947+129425208+129686615+129924427
4297+129928331+129552756+128783629+127889749+127340564+127369045+127786346
4287+128324522+128856405+129204364+129126395+128605222+127868958+127179577
4277+126844997+127174771+128089829+129002895+129388459+129289167+129077501
4267+129003283+129155327+129506748+129742243+129409295+128556347+127875305
4257+127913785+128510321+129235379+129980983+130854704+131839283+132749987
4247+133302498+133221301+132561375+131861057+131681073+132030429+132475588
4237+132716511+132798276+132832446+132794715+132606147+132252526+131881910
4227+131851797+132466095+133510594+134273311+134257876+133691038+133082583
4217+132562826+132100699+132027607+132647684+133489407+133623942+132763511
4207+131636787+131233082+131824407+132759363+133280932+133357784+133405893
4197+133559722+133758441+134180014+134962160+135781136+136224646+136301281
4187+136190034+135891130+135501770+135408059+135806687+136355773+136643542
4177+136751678+137043045+137601597+138164855+138509343+138634925+138527150
4167+138089455+137531372+137383097+137786504+138229120+138267402+138029328
4157+137793707+137572007+137306813+137092704+137056523+137194665+137377579
4147+137476033+137414698+137134718+136690695+136328617+136217622+136205000
4137+136078075+135873558+135737346+135749707+136032211+136691254+137520219
4127+138074732+138172302+138035874+137850994+137506551+136898331+136228568
4117+135860395+136008210+136580476+137229042+137620395+137732931+137791877
4107+137873309+137778461+137504388+137565659+138327448+139247338+139514001
4097+139205360+138967557+138879382+138586961+138225117+138293268+138851271
4087+139470824+139813725+139912584+139994701+140180212+140362279+140394312
4077+140322915+140299465+140316532+140223101+139957087+139614159+139376257
4067+139478893+140016691+140644242+140813749+140410000+139773487+139178493
4057+138748030+138615280+138693988+138640894+138415461+138458349+139058392
4047+139956149+140682983+140913203+140459073+139359090+138084289+137266170
4037+137068821+137157177+137361116+137903431+138826991+139636013+139730382
4027+139082510+138412197+138547075+139530482+140626778+141231987+141377197
4017+141355793+141256889+140907641+140131409+139102083+138352449+138275778
4007+138760165+139424014+140050555+140737989+141692555+142799083+143461877
3997+143161044+142129762+141168398+140828102+141074155+141665462+142476197
3987+143369212+144076968+144394011+144324995+144001910+143653726+143595853
3977+143970265+144515437+144768829+144483268+143833548+143288114+143232702
3967+143722129+144652749+145908121+147096423+147546641+147006382+146070821
3957+145562578+145713991+146222802+146998926+148388454+150276200+151497140
3947+151150813+150079040+149713032+150073775+150070674+149210495+147999193
3937+147273577+147935333+150411249+153626187+155281630+154305426+152392814
3927+151920652+153202873+154522907+154677800+154563064+155477635+157022561
3917+157468451+155815316+152981191+150740572+149980073+150438044+152032052
3907+155655266+161869789+169113548+174273321+175550907+173220914+168169801
3897+162193135+158239345+158448658+162099207+165403619+165296240+163885020
3887+164817947+167660349+169388839+169896974+170965356+171205792+168578058
3878+165621623+166043116+169870449+174861264+179464000+181988502+180511970
3868+176787580+174733509+174985846+174873274+172794048+170256095+169601235
3858+172603056+180601083+192487193+199857498+194329120+182319294+172657836
3848+168095041+168410489+172294099+178044539+184343757+190260666+194127200
3838+193860781+189956362+185481652+182268012+180030973+178332344+177495273
3828+177551478+178252157+180688393+186378264+193261694+195909028+193996109
3818+192198504+190730772+186301016+179941211+176138761+177301414+182681156
3808+188907851+192664193+195118371+199093060+202827241+202303742+199016280
3798+196768332+195228238+192737438+190264128+189686715+191213140+194178014
3788+198384916+203602607+208931464+214113055+220445866+228636870+236811915
3778+242883356+247978593+255013057+265882049+280549451+296447449+309599065
3768+318610982+324947671+329506715+333076681+337555700+343627610+349363336
3758+353298265+357516942+365593984+379464021+397705645+414798897+426551067
3748+436165318+448174296+461615934+470581619+474156417+478689351+488990036
3738+505626363+525136593+540930909+548639274+550756925+552702084+557208656
3728+563717259+570088316+574659947+577260669+577332688+573376265+566016598
3718+558580874+554169329+554447776+559316173+565014861+565457722+559647705
3708+552417867+548205898+548714430+552662306+556067678+555918302+553862500
3698+553402294+556057255+561512875+569293584+578652577+586363178+587502137
3688+582466982+577280468+575225676+575848313+578146065+581764248+587500803
3678+596148551+604162699+604662215+598634122+593010626+588728694+581738102
3668+572045917+564182371+560558237+560044909+560146067+559753732+559726071
3658+560561447+561718401+563977854+569607373+579411066+590194352+594529875
3648+588606655+578180217+569417174+563390524+558750661+555000305+553365220
3638+554908704+558630605+562543247+566759002+573905389+584972063+594765478
3628+596008985+590981042+587029993+587543790+592465814+599122458+602712115
3618+601325183+598766836+598599104+600884090+604976941+610982278+617268730
3608+620106642+618592262+616098612+615357362+616318239+618401269+622077586
3598+627050099+630756566+631104074+629682593+630099921+634038853+639512216
3588+642119393+640019702+636330979+633787634+632146166+630999706+631078829
3578+632600350+634871343+637500664+640218773+642721655+645786839+650121893
3568+653271538+651152156+644489273+638398718+636010879+636436429+636897249
3558+635818083+634272977+634229268+635731603+636747946+636218316+635555541
3548+635963852+636401736+635449586+633844109+633580341+635132371+636357450
3538+634349648+629028978+623919856+622317986+624075290+626561222+627734225
3528+627813637+628074664+628382719+626827371+622773829+618656743+617258127
3518+618648737+620721742+621865677+621976320+621224828+619550686+617769652
3508+617565244+619297592+620720083+619135162+614881756+611100061+609882628
3498+610282068+610153898+609166767+609064635+610799580+612576647+611743507
3488+608438572+606025777+607045870+609622827+609152270+604061793+597992804
3478+595001045+595201198+596188545+596774938+597482397+598266815+598035035
3468+596644352+595541962+595718565+596268570+595519098+592937525+589607382
3458+587176267+586429355+586734741+587120909+587545702+588246056+588489845
3448+587341402+585264106+583581201+582761008+582419811+582404592+582767716
3438+583115368+582979120+582477873+581788627+580535923+578536308+576509285
3428+575213342+574562395+574220260+574062194+573579519+572130811+570259257
3418+569325212+569516637+569675821+569258025+568984592+569144858+568695506
3408+566809455+564239387+562407323+561783388+561709386+561579737+561530547
3398+561812960+562090866+561749596+560740142+559889223+560112961+561085522
3388+561208824+559604393+557316486+555776933+555298010+555455896+555774625
3378+555804594+555380559+554926447+555144018+556374614+558085757+558940030
3368+557820726+554942639+551834431+550222066+550579528+551471596+550997577
3358+549281782+548357545+549309226+550977129+551796456+551672217+551440509
3348+551343823+550993826+550464522+550420488+551031260+551435857+550661933
3338+548837010+547090417+546335859+546511236+547085620+547663719+547710349
3328+546687876+545163867+544523378+545026609+545380969+544644660+543495279
3318+543093603+543680645+544629946+545249806+545350495+545087953+544438340
3308+543376485+542560945+542996809+544792917+546841254+547874150+547526966
3298+546498001+545896786+546146093+546386060+545457893+543569209+542166518
3288+542078595+542656405+542872966+542449292+541746630+541401935+541999940
3278+543629471+545847054+547947647+549109362+548758500+547286675+545942767
3268+545401345+544936738+543636431+541889153+541000115+541668985+543382977
3258+545092966+545903674+545450896+544270609+543478473+543618652+544264514
3248+544793891+544787147+543913255+542361694+541052479+540499264+539965416
3238+538647401+537030421+536124072+536010976+535992079+535654669+535069502
3228+534331173+533602293+533345592+533856721+534641427+534692385+533389265
3218+531007882+528670279+527722096+528432909+529423502+529123165+527486998
3208+525555579+524020102+523005238+522530209+522494975+522548421+522226121
3198+521211582+519601922+517792758+516006207+514275121+512901533+512318097
3188+512455607+512774914+512845093+512572092+512005750+511092189+509701723
3178+508002084+506469600+505184945+503623971+501642351+500109723+499941342
3168+500775132+501193937+500349690+498830008+497616723+496922391+496434235
3158+495892669+495064434+493920967+492992367+492752833+492766934+492181010
3148+490891666+489658798+489175366+489335092+489217813+487761423+484807459
3138+481482436+479296265+478779690+479111691+479209099+478938190+478835445
3128+478932924+478543330+477273389+475731780+474858033+474775448+474742485
3118+474151981+473094742+471959318+470965623+470134539+469364979+468555497
3108+467828095+467472328+467519211+467490324+466810779+465549132+464463475
3098+464122747+464258598+464131150+463290292+461923123+460621915+459809151
3088+459405744+459207214+459300943+459733598+460140719+460131234+459659776
3078+458783360+457573644+456312610+455244336+454330739+453647731+453558366
3068+454008619+454188360+453477439+452287775+451477896+451330721+451397475
3058+450983646+449704796+447872985+446281321+445394338+444914404+444240810
3048+443139718+441914278+441084925+440870455+440882645+440503509+439672533
3038+439034136+439146654+439760059+440024477+439366606+438033409+436659424
3028+435479605+434282368+432994647+431857203+431036145+430452997+429975804
3018+429484908+428844491+428013155+427087187+426188412+425386755+424629890
3008+423739986+422716070+421964686+421857036+422124988+422077024+421389941
2998+420374212+419473922+418810893+418250971+417628334+416758337+415480029
2988+413895036+412424437+411520541+411368713+411742620+412043859+411728231
2978+410807060+409744375+408962806+408604443+408509019+408307027+407791138
2968+407087791+406260205+405185403+404046408+403319187+403031616+402652192
2958+401894677+401071671+400510234+400117322+399662957+399102818+398468280
2948+397701209+396786421+395932941+395395487+395111919+394760299+394259088
2938+393901086+393823044+393731479+393379282+392892028+392397380+391734785
2928+390750972+389586660+388545470+387843457+387483651+387301314+387130950
2918+386862456+386368819+385588440+384654106+383767880+383074991+382744902
2908+382879960+383229019+383283511+382735417+381644531+380290814+379084885
2898+378360369+378006586+377572922+376882557+376212208+375794845+375527434
2888+375231785+374854380+374327924+373537556+372579636+371811988+371405407
2878+371034025+370331183+369474782+368904437+368641498+368357064+367941865
2868+367569978+367308697+366981926+366403430+365600476+364766651+364035318
2858+363404350+362830075+362237803+361547908+360882283+360545125+360563337
2848+360472385+359813323+358675519+357575328+356919765+356673307+356468611
2838+355967760+355124306+354168730+353419078+353077664+353094722+353166200
2828+352942209+352355384+351694663+351230634+350857809+350267088+349376463
2818+348415262+347638669+347066702+346529102+345958217+345523471+345354657
2808+345254581+344869026+344081650+343090264+342125925+341260796+340526759
2798+340038495+339799466+339510489+338875770+338022687+337318763+336896820
2788+336628399+336357165+335907236+335138614+334202332+333427615+332857487
2778+332234958+331424971+330505747+329564453+328705275+328038821+327446694
2768+326667108+325748317+325056258+324758950+324619637+324326909+323838392
2758+323394739+323219326+323177925+322856094+322019492+320851249+319756937
2748+319062750+318796421+318659668+318323195+317707807+316878310+315885733
2738+314859581+314001052+313382851+312945869+312642178+312401057+312093039
2728+311662656+311137138+310514790+309825003+309189383+308650125+308108342
2718+307560970+307172854+306962748+306636120+305934324+305020474+304298590
2708+303905750+303609524+303190357+302696070+302308405+302122624+302031437
2698+301740801+301017763+299994136+299087679+298565226+298280415+297889035
2688+297276784+296678833+296327249+296145561+295933616+295654214+295347331
2678+294986173+294593873+294264523+293957731+293523670+292976225+292484247
2668+292077035+291614646+291080924+290680709+290540891+290440273+289997828
2658+289157854+288334343+287944063+287928646+287913914+287708244+287394112
2648+287025471+286533186+285912117+285262613+284646179+284071290+283586506
2638+283238330+282987851+282780720+282609779+282431012+282154297+281785222
2628+281440545+281206042+281069199+280929705+280630648+280121124+279590864
2618+279270151+279162447+279122922+279055789+278895902+278582816+278173946
2608+277827934+277608704+277415457+277128752+276770659+276503717+276455590
2598+276550203+276577395+276417020+276091529+275617041+274986470+274349209
2588+273999321+274023718+274102372+273847024+273262218+272702728+272439140
2578+272428050+272468063+272426337+272282426+272055225+271763111+271429811
2568+271108089+270889868+270846069+270955179+271149093+271383975+271573002
2558+271546621+271225007+270736760+270267466+269920408+269759186+269782735
2548+269819845+269664159+269355094+269126289+269047634+268918581+268571686
2538+268101814+267713392+267497407+267436856+267492430+267590271+267599972
2528+267409574+267050616+266722798+266609992+266665079+266697590+266655377
2518+266647209+266712737+266771322+266781420+266771610+266737711+266657559
2508+266578111+266554057+266509050+266284915+265860573+265417659+265132324
2498+264988322+264869367+264758742+264730180+264759571+264674029+264355317
2488+263912655+263552092+263319644+263083194+262752293+262408391+262187862
2478+262100318+262009438+261777712+261394266+260967887+260638843+260489288
2468+260493651+260562316+260641872+260703974+260627501+260243929+259586743
2458+258959382+258635874+258595231+258639841+258650011+258611279+258519010
2448+258400487+258330686+258299167+258166183+257863970+257509538+257211671
2438+256941104+256698090+256597599+256656743+256686117+256523579+256240877
2428+256034737+255994400+256022313+255981345+255898471+255926330+256094999
2418+256267149+256354585+256393173+256416560+256431436+256458249+256481925
2408+256471701+256498136+256673332+256958487+257162588+257139688+256939499
2398+256784138+256877290+257228765+257740398+258475157+259777249+262153584
2388+266096447+271981115+280104409+290809961+304468557+321255341+340993746
2378+363207011+387201057+412114291+437133011+461771440+485633314+507686276
2368+526211539+539910851+548668449+552811645+552296766+547334423+538833345
2358+527209561+511825072+492075019+468583338+444655757+425930485+416929206
2348+419233125+431870727+450807367+469014117+480833617+485883486+487054506
2338+486841623+486038920+484803564+483493556+481954292+479250067+474760157
2328+468830121+462112205+454784382+446561066+437322813+427485293+417591188
2318+407877835+398414041+389284015+380459519+371697919+362736886+353612486
2308+344695704+336318829+328470285+321001093+313954386+307475211+301568688
2298+296171689+291320476+287077583+283393079+280114939+277046293+274014575
2288+271020761+268283376+266017125+264225470+262782748+261598837+260618593
2278+259793640+259134146+258659388+258261156+257773992+257202367+256714679
2268+256395733+256167361+255969066+255843691+255775404+255585854+255106408
2258+254394477+253703987+253277193+253187755+253315258+253431942+253356659
2248+253060830+252639247+252211894+251857047+251596199+251405099+251230966
2238+251035916+250876443+250889372+251104725+251347685+251458869+251530293
2228+251767681+252193429+252651382+253058810+253478806+253934866+254327363
2218+254604926+254876665+255276718+255835090+256514455+257263170+258040952
2208+258862011+259745135+260615690+261376361+262038938+262686242+263402482
2198+264276915+265319566+266388796+267360275+268287577+269252547+270180967
2188+270947714+271570513+272181177+272836470+273454653+273954169+274367331
2178+274769295+275175623+275554597+275871685+276081539+276106134+275859604
2168+275333960+274652648+273984030+273384365+272745283+271910556+270883160
2158+269881081+269112531+268575617+268162401+267801621+267436297+267061255
2148+266782105+266707796+266965885+267895909+269861516+272790958+276277581
2138+280128211+284443141+289219541+294236484+299344217+304657458+310403534
2128+316645520+323241433+330055783+337066607+344252880+351551527+358933806
2118+366379989+373818383+381196153+388578035+396231403+404796277+415302452
2108+428744379+445594130+465775863+488799801+513590527+538467120+561715552
2098+582122034+599134179+613071439+624815098+634660660+641867526+645440485
2088+644826178+640002175+631069453+617627778+599275260+576812724+551807780
2078+525396828+498499486+472277867+447692884+425302655+405526889+388573022
2068+374291536+362338096+352286755+343705868+336355614+330136276+324870206
2058+320397642+316700913+313731297+311370542+309618611+308614891+308570136
2048+309750820+312370800+316616344+322917762+331947027+344304631+360477145
2038+380905193+405638902+433972222+464550208+495621471+525285860+552007176
2028+575043086+594421901+610702497+624559046+636384930+646248019+653825113
2018+658421628+659673970+658026444+654091695+648002366+639506013+628279145
2008+614203690+597549223+578938164+559129075+538669328+517718107+496432108
1998+475533395+456177985+439051591+423699342+409052208+394724019+381342824
1988+369501505+359119858+349922970+341841960+334802790+328583092+322982785
1978+317931762+313436622+309480956+305978826+302925182+300513703+298791002
1968+297240703+295163389+292542832+290045197+288118268+286602752+285247719
1958+284105064+283238745+282449026+281529315+280565770+279801800+279342476
1948+279189513+279523570+280531329+281654149+281585232+279791233+277391475
1938+275745824+275092352+274931581+274891821+274888990+274917102+274968690
1928+275172648+275942731+277512108+279230373+280200500+280660455+281351035
1918+281780029+280884716+279160590+278230493+278792958+280172262+281282641
1908+281562386+281234334+280902856+280946384+281301791+281713221+282119874
1898+282772786+283780131+284735382+285394876+286307085+287769750+288783496
1888+288313156+286913421+285777925+285251992+285077409+285083431+285195715
1878+285347218+285534748+285855281+286800452+289304254+293600467+297742870
1868+298530281+295332112+290949797+287996103+286903756+286845604+287042457
1858+287163504+287170735+287130398+287133265+287394527+288259295+290046045
1848+293097345+297465739+301594618+302341494+298945787+294686268+292473680
1838+292346736+292825462+293234945+294653252+298276015+302987752+305726093
1828+305485549+304305298+303280696+301549935+299088220+297296727+296905943
1818+297320241+297831838+298616815+300320691+302838197+304882350+305268194
1808+304381211+303691568+304412875+306922176+310516485+313466771+314331466
1798+313707315+313891419+316728105+321664230+325067907+323538777+318917054
1788+315640176+315447705+317155025+319244691+321327649+323120908+323990328
1778+324416743+326376292+331491833+338920020+344607276+344897191+341156861
1768+336761113+333586403+332935456+335378040+339041699+340947873+341065332
1758+341357122+342040490+342842615+345429633+351342828+358759583+363322630
1748+363339616+361274330+359880834+360235988+362176784+364584530+366102588
1738+367500231+371685621+379336465+385112473+383333315+377156099+371566900
1728+367972447+366716209+367730352+370033947+373461930+379838649+390458316
1718+402176225+407523835+403874998+396774737+391376061+389547062+391733523
1708+397513390+404770744+410646793+415445552+422496659+432324659+439721543
1698+441073746+438388418+432818260+426115888+422450895+423716364+428553098
1688+435816439+446668859+460389233+468572771+465028302+457118739+452610472
1678+453507047+458584938+464537369+468922624+473377156+479667034+484738325
1668+484780916+483011494+485062139+491484947+497862460+500672603+502130327
1658+506697306+517140297+533995133+551727755+556833884+551288790+549719485
1648+554550232+557903023+552953843+544337687+539085285+539190915+544592404
1638+554640391+565536484+569147815+563363800+556723313+555406885+559222300
1628+565154463+571167445+577357319+582945256+585800695+587112975+591327180
1618+600108436+608733500+610973983+608827409+607904327+609808410+613002485
1608+615720955+617509274+618932774+620499302+622049168+623223686+624330692
1598+626224389+629326141+633137264+636779970+639865062+642636400+645328255
1588+647773579+649779722+651501684+653217010+655196970+658249893+663788964
1578+672094614+679653387+681348013+679416017+680782320+687596238+696120576
1568+701720090+704991269+709244026+716438053+728691001+749716621+779278698
1558+801806581+806460797+806475150+810623323+817637465+824145491+828450468
1548+831352068+835495913+842765601+852738973+863482662+869523089+862097750
1538+845474406+833036957+828042157+825687135+821301232+816379425+815095563
1528+818078811+822661693+826826599+830907549+834228713+834396480+832061655
1518+829681749+826554968+821773087+817950064+818280189+823715398+833879834
1508+846017595+850391742+840003856+825651144+817432119+816115800+819018843
1498+822207437+821833458+818146105+815966785+818831601+825293322+829523791
1488+827126215+820615159+814923035+812053964+811386716+811766537+813070451
1478+816192904+821655665+828492590+833827614+833765368+828007968+821924194
1468+820444218+823860878+828001044+828363339+826556772+828086082+835544094
1458+845379775+848320252+841454548+833146590+829125505+829270553+831030165
1448+831757495+830653013+828866858+827521039+827035912+828236106+832132844
1438+837680931+840731401+838612813+834642722+832629727+832198263+830808374
1428+827779398+824987791+823789039+823915262+825410240+828961056+832750901
1418+831874918+825187655+817290750+811880354+809299719+808220265+807625577
1408+807650533+808464271+808964905+808148571+807281531+808348868+811294249
1398+814398382+816319415+816318044+814135623+811332693+810422738+811940219
1388+813600080+812659254+809552452+807584537+808984668+813216291+818635920
1378+824558491+831017254+836997815+840448014+840919509+840539616+841321401
1368+843482905+846607595+850526187+854239505+855604005+853787196+850731893
1358+848791819+848524588+848956846+848901813+847942811+846495942+845272450
1348+844714908+844656773+844720750+845274542+847228969+850358491+852756356
1338+853034261+852265747+852459553+854241380+856812061+859203940+861041377
1328+862454058+863774633+865316854+867262410+869754472+872912773+876614479
1318+880395669+883706734+886194109+887776433+888733920+889706409+891279068
1308+893527052+896084029+898479730+900287235+901311007+901884706+902646295
1298+903786120+904858144+905415542+905466176+905277419+904882307+903766645
1288+901309131+897779809+894278761+891400097+888850188+886578330+885064743
1278+884207585+883141186+881583025+880462603+880745629+882260442+884126514
1268+885852371+887415941+888716104+889799597+891290392+893588288+895821992
1258+896671721+896275888+896111654+896774069+897171345+896524942+895765733
1248+895761117+895614626+894187592+892073115+890674571+890267702+889914928
1238+888869446+887535168+886911124+887253006+887854763+888344650+889261601
1228+890873497+892363787+892665711+891633067+890154246+889359694+889780267
1218+891071125+892501838+893682342+894739869+895956365+897522676+899628931
1208+902412531+905586628+908507630+910954902+913386089+916083714+918654612
1198+920767142+922779848+925025741+927058210+928303195+929076037+930280776
1188+932227485+934474244+936960681+940344595+944503803+947735817+948838135
1178+949054300+950206170+951993623+952893552+952762425+952827917+953838561
1168+955721222+958458156+961982935+965349466+967094148+966901641+966266922
1158+966821363+968436144+969979952+971548211+974398241+978568989+982016375
1148+983245925+983709919+985520164+988032639+989249134+989582001+991182356
1138+994187747+996392384+996297825+994926401+994676625+997083577+1001236654
1128+1004659734+1006425837+1007858353+1010151345+1012611816+1013822902
1120+1013621307+1013275241+1014140189+1015817720+1016450852+1015547100
1111+1015159994+1017528358+1022369600+1026844220+1028231512+1026650414
1103+1024433372+1023344181+1023741673+1025757769+1029655733+1034683784
1094+1038638295+1039738377+1038240514+1035706762+1034111960+1035083440
1085+1038429920+1042282155+1045611325+1048840310+1051572700+1052468590
1077+1051646991+1051037156+1052036044+1053714946+1054320597+1054241907
1068+1055238126+1057751033+1060995814+1064257978+1066607301+1066661396
1060+1064132621+1060687038+1058382290+1058577682+1061334018+1063921721
1051+1063391371+1061702732+1063031745+1066571237+1067588373+1065306994
1043+1063724526+1064452504+1064766401+1063053672+1061814817+1063742990
1034+1067939488+1071605852+1073510944+1073741823+1071982211+1068387325
1025+1064681652+1063226777+1064393649+1065735717+1065124368+1063530432
1017+1062745401+1061989581+1059812642+1057646161+1057797050+1059990940
1008+1062367599+1063878806+1064071890+1062404528+1059241107+1055935955
1000+1053310386+1051250653+1049334308+1046878742+1043229544+1039022011
991+1036318616+1036659056+1039547529+1043035595+1044908807+1043502401
983+1039098394+1034216040+1031296047+1030504164+1029764357+1026753051
974+1021310414+1016174966+1014426533+1016029125+1017707017+1016566544
965+1012955574+1008899796+1005238842+1001249205+996651825+992793170+991005933
955+990659651+990120285+988909704+987528182+985839326+983062578+979314639
945+975726533+973039439+971277302+970469623+970628447+971027093+970603058
935+969189151+967809937+967810153+969394930+970859903+970060807+967146801
925+964609803+964206324+965362810+966714976+967483851+966980836+964766679
915+962061914+960932115+961372163+961075792+958855432+956574558+956665726
905+959128361+961516705+961172154+957590900+952879704+949643650+948524671
895+948372988+948465815+948972003+949583496+949493410+948598457+947666503
885+947469380+948246693+949380170+949506681+948299634+947790273+949894508
875+953165832+953958220+950523312+944486348+938974541+936335050+936772790
865+938730463+940829794+942924725+945019656+946263631+945682359+943542926
855+941688683+941996810+944322331+946679300+947804121+947956742+947073835
845+944815752+942391994+941929371+943835834+946422094+948008241+948037236
835+946669418+944651591+943096459+942424018+942120508+942038499+943170678
825+946444526+950993797+954439813+955110667+953505695+951610556+951560283
815+954799438+960833229+966246150+967335990+964838951+963047675+963930438
805+964954570+963425837+960311317+958148948+957658123+957778719+957348481
795+956055243+954311859+952556647+951317576+951797293+954956387+959751034
785+963872448+966179144+966853171+965860486+963304663+960504834+958921789
776+958691343+958881542+958417044+956745643+954457917+952958034+953049852
766+954361122+955958016+957198529+958304598+960172473+963465507+967536648
756+970123413+968799665+963503518+957043744+952677532+951869564+954159743
746+958181044+962319407+965594193+968088275+969732052+969356269+966078238
736+961788552+959937555+961286331+963034980+962867140+961718373+960680031
726+958683337+955575165+953782879+954954079+957708179+960012783+961737558
716+963717158+965803217+966508981+964611606+961158089+958393819+956294777
706+952804836+948355894+946486504+948386764+950983339+951660684+950984781
696+951073353+953017972+955266750+955131295+952282420+949351464+948126313
686+946880895+942633836+934753592+925776872+919495037+917819236+918830530
676+918917587+917462207+917078130+919142912+922341315+924879395+925894223
666+924323079+918958555+910555318+902193121+896757841+895166501+897173076
656+901038438+903716589+904231288+905030889+907473112+908659963+906145685
646+901358178+896409034+891400530+886234067+882411981+881527775+883273467
636+884935708+883701253+879848801+876448731+876151567+877889181+877932240
626+875028621+871914390+870800820+870623315+870154633+869955418+870455692
616+871385482+872754959+873983355+873873578+872724088+870950844+868155992
606+865914499+865871150+867288447+868328015+868294764
##END=
