##TITLE=<SNM>
##JCAMP-DX=4.24
##DATA TYPE=INFRARED SPECTRUM
##DATE=2/5/2025
##SAMPLING PROCEDURE=Instrument type and / or accessory
##ORIGIN=Admin
##XUNITS=1/CM
##YUNITS=ABSORBANCE
##RESOLUTION=4
##FIRSTX=4497.3318
##LASTX=599.83466
##DELTAX=-1.4281778
##MAXY=1.8445467
##MINY=0.38963205
##XFACTOR=1
##YFACTOR=1.717868e-09
##NPOINTS=2730
##FIRSTY=0.40566081
##XYDATA=(X++(Y..Y))
4497+236142019+235728970+235384898+235306275+235531718+235683725+235474607
4487+235281710+235759867+236958575+238238404+239008414+239182662+239010010
4477+238734257+238455554+238277854+238433001+239048992+239940632+240740725
4467+241124385+241037435+240826773+240907339+241136564+240973402+240331527
4457+239665122+239200878+238683374+237977726+237419748+237343675+237724352
4447+238479963+239490180+240086186+239332674+237350094+235644327+235598648
4437+237115058+238837723+239375229+238391642+236767343+235688496+235567647
4427+235893537+235943032+235476325+234890121+234761274+235102969+235301851
4417+235025074+234678938+234642507+234777599+235044401+235756415+236902227
4407+237995196+238695344+238843031+238192153+236974102+236148767+236202617
4397+236345984+235777268+235091987+235387743+236444281+236893223+236125989
4387+234973758+234323851+234141085+234048409+233895709+233523897+232744223
4377+231780952+231220996+231364745+231850189+232053738+231864311+231841619
4367+232423260+233245489+233496556+232706109+231046228+229182121+227930189
4357+227766176+228530271+229595413+230245233+230085402+229361105+228766071
4347+228819730+229481642+230325314+230969305+231257410+231187045+230826770
4337+230262079+229649748+229300455+229485354+230037555+230394759+230253300
4327+229922153+229784441+229723809+229400052+228790584+228173691+227810745
4317+227835449+228250458+228820597+229106482+228834146+228197927+227629020
4307+227298428+227070712+226932827+227168748+227966672+228930690+229206617
4297+228375315+227162937+226811405+227648138+228757050+229208734+229026922
4287+228729674+228562140+228431003+228188698+227878629+227827815+228340306
4277+229249693+229949911+230005599+229610749+229306718+229381090+229667097
4267+229930064+230235189+230632364+230646867+229696988+228144528+227224419
4257+227607421+228593593+229062764+228831943+228677108+229267666+230394430
4247+231211125+231139077+230456208+229950605+230126917+230876092+231740894
4237+232268876+232272016+232006967+231944755+232181978+232309541+232029988
4227+231582329+231347883+231304668+231025948+230169178+229010389+228363171
4217+228731652+229794417+230975498+232073273+232921681+232984881+232035384
4207+230976505+231113019+232563175+234121481+234795173+234690631+234313372
4197+233933910+233653386+233361325+232760011+231909330+231393040+231608664
4187+232303643+232913874+233067043+232795974+232390124+232042809+231802776
4177+231789313+232058284+232366392+232498084+232618256+232852634+232820713
4167+232162634+231314001+231114945+231663902+232155886+231996298+231520152
4157+231366896+231658263+232058752+232201668+231843822+231007367+230138037
4147+229795475+230091543+230694610+231324445+231833084+231962971+231612949
4137+231195338+231170252+231384401+231290650+230735691+230266433+230528759
4127+231404404+232089008+232132049+231858031+231639943+231461359+231290216
4117+231225385+231280293+231415923+231606253+231759596+231869463+232043624
4107+232159685+231947392+231531377+231361900+231603165+232076361+232674812
4097+233346075+233730708+233318595+232187963+231202208+231080647+231563888
4087+231909330+231902044+231845401+231812491+231510663+230872362+230370229
4077+230587795+231537189+232490468+232705380+232294760+231984258+232035627
4067+231985906+231540051+231078722+231002978+231099453+230930202+230549282
4057+230423332+230730573+231114737+231218827+231182483+231427130+232139769
4047+233124796+233961581+234193494+233651373+232725192+232060417+231862402
4037+231741675+231423695+231318113+232012067+233346214+234387589+234432434
4027+233798974+233394096+233596552+233913439+233852060+233693894+234039544
4017+234921452+235772445+236070925+235680811+234756035+233686243+233071033
4007+233369357+234429884+235610549+236455939+237025557+237535358+237942543
3997+237983330+237536677+236924416+236716651+237072797+237489055+237517403
3987+237463588+237880696+238640506+239074095+238888710+238483155+238498179
3977+239333610+240752608+241783001+241535457+240241853+238922366+238146578
3967+237835157+238069760+239185490+240981434+242539307+243113956+242820924
3957+242196363+241552285+241091319+241299396+242744799+245192039+247154303
3947+247247360+246017269+245135465+245016559+244598601+243389779+242301442
3937+242370472+243952441+246879122+250228324+252160038+251512351+249594690
3927+248822442+249884097+251224020+251358401+250869991+251176659+252275318
3917+252629608+250980257+247768455+244665045+243136839+243634132+245966872
3907+250189568+256394982+263365670+268526257+270327840+269157983+265478502
3897+260001028+255178128+253729950+255765702+258109580+258009618+257256037
3887+258838648+261984544+263778737+264306823+265261663+265136529+262050138
3878+258870291+259454674+263555584+268329786+272198991+274400282+273692119
3868+271408214+270966905+272717154+273115179+269823591+265228285+263239460
3858+266097841+274321624+285727492+292220422+287190989+276561186+267680226
3848+263061257+262922123+266293930+271302215+276457876+281489668+285721767
3838+286926200+284281066+280211539+276809164+273949708+271335073+269780775
3828+269794602+271060135+274140576+280224655+287419797+290397066+288348945
3818+285691477+283358390+278980217+273221282+269420014+269528893+273364285
3808+278690116+282553093+285130428+288817630+292860301+293792780+291957628
3798+290195356+288295564+285169948+282294115+281518952+282630120+284894108
3788+288608443+293742296+298889369+303272659+308067559+313959747+319223575
3778+322287933+324637432+329085328+337378019+349767578+364585849+378478442
3768+389235582+397243516+403762226+410539254+419388344+429484335+436586404
3758+438085308+437272291+439331863+446710187+457699173+466518666+469814383
3748+472153785+478801047+489214827+497429103+501358004+505765929+514622097
3738+528304462+543963820+556842258+563437543+564007474+561991100+561580185
3728+565166627+571532601+576781787+578841081+578896943+578030458+576348319
3718+574882653+575699556+579911687+585747875+588484833+584993218+577956380
3708+571834602+569140425+570591830+574703340+577846981+577373681+574245445
3698+571292256+571083415+575208665+583583553+593950076+601757289+602092044
3688+595380281+587475571+582579634+581562322+583608119+587176969+592003304
3678+599679016+608897975+613203718+611332862+608747876+606225344+599875539
3668+590042376+581390052+576127473+573428022+571922386+571130672+571351761
3658+572435899+573548177+575288190+580253868+589815042+600437489+603582206
3648+595640161+583570993+574097949+568242088+564298477+561104074+559059457
3638+558863663+559951687+561119376+562799190+567086405+574353561+580039233
3628+578708261+573197981+569635272+570167487+574265847+580061647+584797111
3618+587364055+589179812+590665393+590411342+588749223+588435633+590499958
3608+592628056+592737906+591882143+592319323+594934288+599019983+603592060
3598+608319855+612598118+614836414+614196465+612761957+614082589+618853964
3588+622926961+621857465+617126130+613210726+612320752+614121242+617033003
3578+619470736+621421602+624202834+628009567+631342340+633443652+635184880
3568+636740827+636456312+633401600+629356153+626824946+626341272+626695249
3558+627187390+628155086+629178990+629043811+628327390+629492095+633387235
3548+637294311+637017430+631380507+624245095+620643768+621739009+624289438
3538+624644803+622669371+620922314+620919539+621797925+622050240+621045697
3528+618894005+616044281+613460891+612464882+613654361+616224011+618545440
3518+619071236+617290593+614621224+613100252+612777709+612282377+611533757
3508+611590591+612429283+612933221+612244835+610035199+606784380+604310701
3498+604257199+605805581+606549066+605604617+604374335+604426172+605832714
3488+607269303+607124062+605018170+602223823+600355813+600022445+600494739
3478+600405776+598927551+596328616+593572227+591636836+590908410+590800641
3468+590561649+590548950+591448016+592422165+591726909+589276894+586869416
3458+585744821+585442889+584982878+584216216+583636223+583418049+583332348
3448+583458506+584457984+586799745+589475915+589930236+586393028+580193044
3438+574374969+570746266+569381742+569655327+570629407+571577637+572711219
3428+574454320+576056206+576041425+574132542+571469210+569045737+567018642
3418+565097372+562951128+560697670+559082357+558707319+559457985+561142137
3408+563721259+566153614+566590378+564857200+562843880+561751171+561210663
3398+561199109+562162815+563125306+562325543+560014280+558427627+558741807
3388+559635807+559235787+557498341+555730396+554426835+553101969+551945974
3378+552011100+553481172+554847326+554425759+552402064+550672807+550504319
3368+551227159+551758541+552338326+553620306+555134269+555863910+555329335
3358+553483357+550756843+548358629+547272270+547106176+546905247+546537217
3348+546291112+545872494+544870102+543714071+543402771+544521745+546687385
3338+548656398+549157872+547982238+546168181+545055973+545189660+546067005
3328+546918917+547463068+547674962+547376881+546663861+546205168+546328411
3318+546307697+545469247+544497874+544589127+545756295+546885123+547096461
3308+546378132+545370570+545105867+546220539+548068425+549299227+549378162
3298+548931232+548724092+548873115+548878701+548242673+547099549+546124741
3288+545870343+546383024+547288856+548023041+548170746+547694566+546786792
3278+545807160+545331987+545615946+546094624+546127239+545962568+546203121
3268+546686795+546706226+546182962+545927003+546581352+547736515+548352731
3258+547865275+546597486+545260580+544421888+544308602+544682808+544905146
3248+544539926+543927839+543712267+543788427+543336118+542025340+540480080
3238+539389002+538875419+538751066+538675669+538187692+537108724+535831463
3228+535023546+535037008+535517109+535651386+535034788+534120872+533562391
3218+533462117+533460174+533187804+532558750+531847186+531504312+531636854
3208+531722381+531137566+529836468+528395923+527455291+527158216+527181324
3198+527112555+526588563+525372438+523704871+522287018+521562756+521337087
3188+521247847+521073391+520573860+519720560+518880618+518119959+516855986
3178+514797108+512604717+511241408+511222220+512394177+513777541+514103900
3168+513039087+511193769+508982919+506483495+504237671+503093472+503141631
3158+503475693+503172095+502170292+500971099+499768054+498403010+497081233
3148+496450895+496815455+497673855+498084597+497288859+495229912+492795753
3138+491291366+491291366+492090573+492453260+491739753+490298931+489045749
3128+488711445+489244562+489881146+489931213+489423147+488842530+488361839
3118+487651907+486508610+485263617+484315525+483594489+482825086+482003325
3108+481261818+480517293+479624855+478804170+478619652+479249226+479879252
3098+479435028+477956594+476470284+475573127+475095629+474930680+475121756
3088+475298328+474930645+474069816+473259158+472859069+472791167+472718512
3078+472253123+471231785+469941409+468812234+467953521+467385741+467428245
3068+468189182+468975587+469003309+468375921+467755610+467400418+466946722
3058+465972191+464573247+463353132+462823207+462903009+462999363+462485190
3048+461244985+459814502+458803574+458309976+458110018+458067168+458067653
3038+457952703+457759927+457680991+457661388+457388740+456745286+455940284
3028+455093507+454034871+452750219+451645922+451002121+450538536+449904035
3018+449188481+448569419+447914030+447119715+446432543+446059690+445739889
3008+445009590+443857792+442892976+442714981+443191369+443458466+442726362
2998+441092313+439378877+438165805+437339048+436676928+436347758+436465762
2988+436629879+436371560+435751354+435114285+434536165+433867800+433092602
2978+432289369+431440753+430609729+430127858+430241525+430607647+430497519
2968+429571945+428159644+426722464+425423587+424367345+423850847+424020793
2958+424476154+424566366+424093760+423533787+423473623+423888806+424092511
2948+423447357+422011497+420346706+418815707+417376480+416071011+415295015
2938+415290331+415653572+415747150+415467944+415221666+415213824+415156470
2928+414695418+413822237+412793093+411889760+411316637+411077610+410875397
2918+410348629+409425519+408296482+407219943+406512543+406384130+406593491
2908+406607924+406184831+405499810+404827663+404377471+404206346+404077829
2898+403633015+402797063+401816703+400917707+400153300+399542253+399146293
2888+398972427+398874547+398650683+398265721+397874375+397591803+397340667
2878+396953034+396381611+395773791+395280853+394863484+394467420+394251640
2868+394317390+394377242+394045054+393300182+392445043+391814705+391566275
2858+391494140+391164034+390455802+389682304+389041904+388406431+387735428
2848+387197974+386826197+386464725+386051346+385675891+385402029+385185520
2838+385002668+384966479+385089653+384955237+384061446+382590888+381327402
2828+380715627+380501824+380307626+380099549+380036470+380117938+380061139
2818+379531769+378521952+377373485+376394860+375650647+375120340+374809768
2808+374615674+374248303+373447048+372293481+371210731+370553815+370282659
2798+370135544+370016291+370067642+370369713+370679418+370590802+369958174
2788+369013517+368066396+367259520+366559199+365817692+364949750+364123895
2778+363571625+363219312+362795178+362236593+361676585+361141282+360611149
2768+360235381+360122825+360057525+359768604+359352624+359079872+358888865
2758+358394400+357415983+356289410+355502728+355075228+354551652+353712786
2748+352945118+352672712+352782632+352846891+352589683+351976832+351121277
2738+350197438+349320717+348548226+348000362+347793847+347817926+347740760
2728+347329013+346675046+346029962+345539348+345254417+345181207+345141132
2718+344855542+344306117+343697152+343092177+342447024+341823799+341253937
2708+340669642+340134616+339824738+339767037+339815058+339745803+339352202
2698+338693412+338146277+337947152+337859993+337486759+336737307+335872279
2688+335198778+334813261+334621457+334507408+334386108+334177545+333847751
2678+333438710+333039349+332741823+332530693+332225117+331688391+331056596
2668+330601651+330416751+330331952+330101426+329640790+329066487+328512552
2658+328022354+327630488+327367208+327178596+327026658+326999040+327125579
2648+327195840+326934573+326299863+325533791+324974651+324824101+324997516
2638+325164061+325008376+324488513+323791626+323093456+322490355+322087108
2628+321945440+321971289+321995647+321916121+321690696+321304624+320807417
2618+320311738+319917928+319627273+319349490+319060881+318889201+318899436
2608+318897389+318630050+318089854+317468572+316923450+316487934+316101238
2598+315670580+315182499+314743549+314446995+314281213+314239022+314374652
2588+314625823+314729740+314509380+314148949+313975707+314004645+313898507
2578+313417088+312731825+312186320+311897955+311764892+311728356+311776446
2568+311765864+311509280+311040838+310617258+310442317+310463829+310426009
2558+310132890+309690436+309395859+309359289+309390620+309279382+308991432
2548+308597449+308223521+308024743+307999310+307932900+307715247+307533817
2538+307549188+307594745+307433057+307128037+306936788+306964372+307091432
2528+307132686+306967772+306614731+306222761+305924853+305731800+305620493
2518+305604879+305656647+305712717+305810146+306028111+306256417+306223698
2508+305822394+305269048+304880200+304774062+304833012+304877841+304802097
2498+304595131+304346076+304192473+304171169+304168879+304092303+304007470
2488+304040570+304198996+304353987+304386151+304310998+304236434+304212702
2478+304172974+304000426+303619559+303102749+302714664+302688537+302904872
2468+302980997+302728890+302313985+301955358+301726636+301653703+301762860
2458+301995606+302200977+302196779+301846930+301233177+300723758+300640034
2448+300867854+301018959+300943875+300830520+300821117+300825628+300753389
2438+300671261+300631360+300553743+300402950+300307395+300376824+300531676
2428+300616510+300588613+300517207+300459888+300418217+300411833+300522516
2418+300801583+301154034+301386052+301398404+301295527+301245668+301274328
2408+301299552+301327934+301450900+301665431+301862266+301973643+302019859
2398+302051642+302092064+302102785+302040226+301945608+301897102+301898143
2388+301875902+301694576+301138732+299998350+298150360+295500317+291999507
2378+287810727+283292032+278727762+274181449+269636991+265184879+261037371
2368+257442949+254660503+252886729+252050083+251909318+252573087+254573119
2358+258211259+263256549+269550925+277422084+286732608+295719220+301762409
2348+303239732+300587364+296261393+293058455+291723424+291103182+290223599
2338+289133285+288243258+287554074+286736668+285784690+285141427+285088653
2328+285347197+285388105+284987269+284481146+284493723+285352419+286816002
2318+288352224+289562572+290407580+291154152+292088400+293278086+294626823
2308+296004810+297222809+298053868+298436401+298551317+298593335+298577166
2298+298487718+298492992+298797040+299316522+299726674+299854636+299830036
2288+299838987+299928956+300057959+300156256+300124022+299879132+299421549
2278+298834548+298268850+297887531+297729001+297641947+297439109+297098559
2268+296767655+296602047+296648332+296849852+297087421+297223398+297203760
2258+297118926+297061260+296980659+296834100+296766961+296921570+297166426
2248+297242169+297104180+296937600+296882051+296891870+296879899+296879240
2238+296965739+297099843+297187557+297233565+297274889+297250740+297112264
2228+296977987+297004565+297155635+297243627+297189916+297114485+297130931
2218+297183566+297159626+297051996+296941660+296907796+296984719+297122361
2208+297205946+297183913+297124096+297110460+297161985+297269025+297430712
2198+297641565+297861994+297992593+297923789+297671682+297400526+297251191
2188+297218437+297236132+297288733+297379049+297448338+297398479+297210526
2178+297014107+296979445+297127913+297310488+297382518+297341298+297281620
2168+297268261+297286165+297315172+297394211+297553504+297733304+297859739
2158+297955155+298084367+298226693+298277836+298183912+298041169+298014626
2148+298139084+298285400+298368950+298471722+298690174+298976701+299199975
2138+299279327+299232382+299159553+299189982+299386852+299683129+299924238
2128+300001577+299957338+299940129+300062539+300335257+300719421+301159932
2118+301546178+301751444+301782984+301806682+301946024+302155142+302353678
2108+302540451+302708280+302812371+302887559+303050738+303358812+303763932
2098+304164334+304429314+304488091+304460715+304560746+304820417+305054482
2088+305122558+305088555+305094523+305186053+305297638+305367587+305427994
2078+305552730+305742487+305939461+306132167+306339446+306540029+306751680
2068+307075853+307493291+307762400+307721458+307541068+307501618+307687940
2058+307988901+308221474+308243576+308111207+308071549+308288994+308690298
2048+309119880+309486314+309768573+310021999+310299851+310491760+310410396
2038+310097152+309836856+309823221+309974464+310097291+310100761+310032651
2028+310012839+310162382+310509178+310927795+311287359+311681620+312297420
2018+312978207+313219385+312798304+312113943+311678011+311568438+311583913
2008+311662606+311875089+312151936+312306476+312317856+312362580+312516877
1998+312686962+312997464+313895454+315457368+316866998+317169312+316391651
1988+315318893+314516875+314104988+314035386+314157762+314273407+314327985
1978+314408412+314575027+314792819+314953222+315037466+315337560+316206543
1968+317411253+318148804+318001308+317424507+317025424+316904852+316936704
1958+317164593+317590775+317941005+317967999+317789553+317741151+318038260
1948+318724044+319882260+321603398+323428627+324177455+323147236+321178847
1938+319663566+319108277+319180828+319480540+319823379+320127879+320358440
1928+320647361+321437478+323058099+324988113+326310897+327050009+327782460
1918+328062533+326959589+325033462+323945576+324459853+325868303+326884644
1908+326807895+325994079+325245807+324926040+324870421+324936692+325329600
1898+326349479+327829405+329054101+329689956+330355997+331467511+332195451
1888+331628886+330263252+329206351+328867640+329046086+329437466+329784990
1878+330007016+330213739+330578924+331592038+334169877+338575963+342962515
1868+344222879+341664922+337877550+335298670+334335936+334257625+334400680
1858+334530586+334718712+335077547+335535199+336054576+336963079+338789453
1848+341976916+346529111+350945780+352139630+349093869+344841177+342400530
1838+342068654+342553994+343191896+344840102+348442192+352932904+355558000
1828+355402662+354305374+353269256+351487537+348979924+347237031+347091755
1818+347837009+348481643+349111668+350549195+352837002+354682633+354871904
1808+353800187+352970585+353686798+356385521+360197909+363121918+363762388
1798+363018695+363179376+365792953+370289008+373441601+372022291+367454274
1788+363908809+363322223+364731957+366587962+368437583+370099390+370970559
1778+371335154+372970036+377488679+384258802+389640634+390192244+386886500
1768+382559071+378912222+377423032+378973948+382004615+383674090+383739112
1758+383837720+384063354+384266227+386340892+391953423+399168707+403341943
1748+402709141+399969407+397977147+397609776+398501660+399654151+400074399
1738+400688881+404249162+411342868+416738960+414806448+408633007+403134490
1728+399496141+397809006+398107954+399735446+402532916+408031051+417515303
1718+428350789+433447412+429660179+421997063+415718872+412896247+413966229
1708+418483345+424535382+429482844+433424547+439346540+447905217+454389889
1698+455206688+452098369+446318356+439484841+435271704+435401852+438775394
1688+444556726+453959162+466272561+473365157+469097095+460458337+455062488
1678+454973317+458972340+463624843+466322247+468645376+472450478+474935260
1668+472521607+468244870+467358955+470340839+473207876+472991784+471867571
1658+473915103+481720233+495860423+511218300+515079610+508924628+506277812
1648+509575090+511797460+506844169+498916350+494440037+495209579+500927450
1638+510725604+521027834+524325217+518516127+511405975+508837157+510807246
1628+514630147+518391253+522127447+525199023+525758961+524818571+526136671
1618+530904541+535066952+534105328+530358517+528374203+529152280+531172818
1608+532863804+533960017+535093078+536613357+538133669+539216489+540181583
1598+541752172+544032970+546315296+547942649+548960239+549699039+550198917
1588+550434300+550769750+551702089+553223304+554986738+557387207+561832709
1578+568919059+575653306+577049751+574517746+574086464+577426940+580849058
1568+580836810+579074799+578738447+581377630+588803420+603256333+621182610
1558+627564684+618970546+608832259+603031913+601235309+602097318+604054985
1548+606760509+612021318+621563304+634780870+649264454+660283834+660358293
1538+651410942+644722009+644794803+648334717+650232705+650624155+653822513
1528+661455894+671132297+680359028+689687421+699383947+706156013+707945747
1518+707271934+706218398+705207678+705571371+709198582+717080393+729187936
1508+742637762+747830426+738878356+726842774+721257549+722809540+728972746
1498+735758760+738823188+737646062+736707303+739915792+746767730+752628934
1488+753232035+749723349+746098914+744676272+745475064+747534184+750540252
1478+755316276+762643978+771836637+779773893+781760428+777141858+771596881
1468+770107900+773059355+777433450+780276373+782698978+788091011+797453129
1458+806757373+808106526+800612141+792019807+786853929+785534337+786974535
1448+788755942+788461504+786264151+784360820+784267069+786250897+790172546
1438+794969666+797605865+796102866+793291864+792516111+793509552+794047284
1428+793510107+793288880+793973380+794965641+796836427+801036830+805906536
1418+806239904+801018649+795257581+792351371+791664095+791267302+790667393
1408+790914226+792502580+794241448+795102555+796155119+798743437+802126104
1398+804634063+806001536+806524696+805580802+803440005+802337755+803807584
1388+806464948+807417516+806238863+805540276+807270054+811202806+816403867
1378+822419055+829133802+835879637+840943854+843171601+843734315+844451708
1368+845766442+847723623+850803387+854216587+855382610+853062847+849290603
1358+846681398+846010291+846513743+847091238+847194426+846985967+846870774
1348+846967578+846998528+846766753+846795759+848002100+850418113+852738154
1338+853602383+853070064+852429490+852750645+853764348+854285704+853952128
1328+853874615+855009966+856815938+858195833+858946673+859654628+860784289
1318+862387423+864296792+866077227+867081494+867118966+866997666+867932955
1308+870383664+873729692+876983009+879425947+880681071+880742068+880059928
1298+879386531+879312557+879738635+879790750+878687250+876752136+874896478
1288+873198968+871038672+868467495+866268268+864785046+863606185+862378888
1278+861271919+860492696+859892718+859434164+859600085+860688317+861980429
1268+862373059+861726240+861008569+861213628+862460287+864081394+865470726
1258+866697677+868127396+869802492+871526649+873221452+874883224+876403572
1248+877642527+878605504+879463628+880341736+881226645+882322789+884209743
1238+887135037+890414932+893141481+895052585+896160664+896314441+895911749
1228+896278911+898433240+902023950+905946709+909263452+911354633+912452442
1218+914067998+917257612+920660542+922095050+921802139+921984505+923797348
1208+926651720+929673887+932405711+934430551+935362093+935523641+936100026
1198+938196758+941858527+946131446+949868161+952232475+953007534+952944385
1188+953240350+954286322+955516881+956615870+958075775+960398384+963387311
1178+966302334+968347021+969007441+968472693+967840932+968491568+971054904
1168+974784332+978074775+980054925+981208249+982080251+982680507+983572564
1158+985677484+988291269+989355075+988689381+988654892+990752387+993686494
1148+995283035+994952097+993567206+992175445+991723969+993081866+996295560
1138+1000343782+1004280489+1008009917+1011046935+1011823659+1010006653
1130+1008077438+1008700246+1011373987+1013262399+1013077951+1012005054
1121+1011105642+1010430857+1010469856+1011939199+1013949397+1014747981
1113+1014825424+1016490041+1020386847+1025089245+1029105477+1031315806
1104+1030420905+1026372612+1022262699+1022396975+1027694563+1034407367
1095+1038623106+1040707972+1043257568+1046855911+1049926792+1050888798
1087+1049318209+1046275155+1043298371+1040255525+1036087528+1031911899
1078+1030541372+1033069039+1038017715+1043313360+1048073979+1052477220
1070+1056219347+1058051273+1057587306+1056307825+1055926436+1056555421
1061+1056949023+1056537379+1056557711+1058412051+1061396468+1063202648
1053+1062734726+1061411457+1061446639+1063129021+1064038288+1062400734
1044+1060559024+1062080135+1066911952+1071855909+1073741823+1070642629
1035+1063280924+1055921024+1052331702+1051400507+1049688910+1046955005
1027+1045803138+1047294271+1049521325+1049821314+1047544089+1045320366
1018+1046698040+1051707921+1056226703+1056975323+1055725333+1056198876
1010+1058794827+1060807176+1060704751+1059644761+1058736120+1057369479
1001+1054848752+1052101870+1050189933+1048635305+1046764380+1045639924
993+1046481809+1048390623+1049758165+1050343293+1050817253+1051061588
984+1050208670+1048325046+1046426641+1045039391+1044036096+1043214405
975+1042222352+1040522205+1037878997+1035027817+1032941077+1031503655
967+1029718362+1026824643+1023357315+1020626463+1019716920+1020334802
958+1020054034+1016427240+1009937051+1003254642+998160239+994573137+992089050
948+990617278+989543201+988088153+986429157+985274931+984676202+983875190
938+981980740+978655253+974561925+971143936+969501663+969303544+969096959
928+968155286+967534143+968610787+971244834+973961877+975393539+975108539
918+973564737+971593885+969607558+967470509+965266286+963475580+962301785
908+961682793+961752464+962425514+962928133+962524539+961435820+960614962
898+960748961+961631788+962315802+961931222+960591299+959196692+958127890
888+956764580+954701574+952792274+952434203+954111241+956767495+958148014
878+956424482+952340174+948723858+947406904+947630768+947777674+947618693
868+947958931+948729965+948752587+947591421+946386052+946185643+946694993
858+947015037+946646487+945812582+945510719+946701308+948669939+949182065
848+947149453+943932567+941563673+941150641+942806723+945616614+947972463
838+948892762+948585903+947401768+945287896+942834272+941735492+943186792
828+946268291+948880549+950214783+951163256+952530660+954213111+955594186
818+955636446+953861424+951739363+951200035+952030678+952554601+952416299
808+952683326+953660113+954750982+955925680+957194614+957061308+954012772
798+949656579+947828748+950380356+955389474+959351857+960368614+959260118
788+958058843+957544289+956331564+953044382+948935370+946922743+948602558
778+953254645+958709687+962498586+963161435+961585850+960206510+959887438
768+958748270+955270186+951393297+950286466+952303395+955347907+958047254
758+960475550+962826471+965442546+968964764+972560540+973405547+969884439
748+963797914+958159950+955046253+955542626+959083442+963281278+965742257
738+965810471+964811826+964546187+965210146+965356289+964098805+962460905
728+961234023+959546506+957286283+956451823+958424826+961822829+964174028
718+964504828+963714850+962781643+961513541+959621313+957881889+957396480
708+958053430+958961031+959949753+960817522+960207135+957492798+953545682
698+948866948+943203100+937530578+934580858+935711074+938730049+939798643
688+936904646+932003852+929131992+929540582+929813299+926375533+920457427
678+915808740+914248907+915665580+918976356+921181620+918131695+908422817
668+898098485+896288904+900882354+903516263+901712372+897984957+895077359
658+893851102+894278984+895851099+897808488+899853730+902324217+904227965
648+903279699+899510370+895804466+894224718+893333078+890324026+884862808
638+879041367+875368356+875910251+880094764+883056489+880380735+872541046
628+863342420+857021274+855148823+855530697+855534513+854657168+852939881
618+849977879+846491537+844058731+842551777+840886257+839735223+840783555
608+844741774+851018577+858189310+862841189+861794592+857245486+853713136
##END=
