##TITLE=<SNM>
##JCAMP-DX=4.24
##DATA TYPE=INFRARED SPECTRUM
##DATE=3/5/2025
##SAMPLING PROCEDURE=Instrument type and / or accessory
##ORIGIN=Admin
##XUNITS=1/CM
##YUNITS=ABSORBANCE
##RESOLUTION=4
##FIRSTX=4497.3318
##LASTX=599.83466
##DELTAX=-1.4281778
##MAXY=1.7685956
##MINY=0.206844
##XFACTOR=1
##YFACTOR=1.647133e-09
##NPOINTS=2730
##FIRSTY=0.22785704
##XYDATA=(X++(Y..Y))
4497+138335544+138756208+139371684+139918215+140244964+140078279+139254475
4487+138016512+136926779+136610107+137348691+138692003+139711370+139778361
4477+138984647+137988602+137563252+138005022+138898025+139569644+139664463
4467+139250395+138658395+138252079+138136354+138106336+137916446+137518299
4457+137108510+137033205+137469691+138086388+138249293+137703323+136887770
4447+136385930+136209518+135929549+135409761+135012175+135046453+135457591
4437+136128713+136963047+137537515+137293796+136290966+135282482+134902728
4427+135109536+135474454+135660391+135564975+135254863+134861529+134527370
4417+134367352+134357147+134355971+134396944+134757021+135480289+136051318
4407+135864793+134930130+133836653+133056119+132607827+132406664+132487324
4397+132725181+132819837+132818118+133094161+133595395+133742449+133272010
4387+132602498+132195242+132016089+131778794+131351047+130745658+129999601
4377+129322789+129099904+129391833+129743235+129839447+129930059+130245555
4367+130477920+130253561+129765119+129545501+129731131+129883224+129632006
4357+129170143+128891757+128878965+128988557+129094902+129107314+129091672
4347+129322327+129869157+130327002+130234382+129558781+128692784+128188076
4337+128374646+129036722+129605852+129673349+129097697+127875258+126403148
4327+125578204+125979064+127067747+127772849+127812908+127820923+128129869
4317+128295786+128039492+127747410+127774839+128025850+128387457+128895675
4307+129338729+129304152+128806854+128473581+128888093+129860255+130491219
4297+130074979+128932676+128155236+128495375+129657264+130663170+130829014
4287+130344942+129903308+129828781+129782851+129347839+128615063+128061277
4277+128039366+128498903+129097389+129493980+129554367+129406778+129376300
4267+129684296+130152799+130443922+130538922+130632347+130728270+130738330
4257+130722923+130766375+130863817+130996152+131168411+131481564+132099283
4247+132876126+133268491+132997894+132446596+132104105+132054855+132157933
4237+132252978+132124261+131676720+131184026+131018416+131127529+131107970
4227+130871896+130865084+131373808+132046631+132428503+132543079+132694458
4217+133042404+133543068+134064286+134492269+134796872+134967747+134966127
4207+134904745+135109192+135705688+136241345+136056032+135136197+134288645
4197+134220704+134733835+135113318+135018806+134697548+134573735+134835710
4187+135245445+135323907+134875787+134202557+133708524+133568444+133820993
4177+134439463+135306456+136372043+137672691+138947745+139545951+139101621
4167+138112524+137496062+137619559+137962611+137831506+137255528+136879184
4157+137064000+137530711+137909814+138101117+137966248+137286685+136296819
4147+135725383+135957974+136529619+136777282+136678184+136656490+136887055
4137+137225240+137533308+137682072+137549456+137387855+137782681+138841211
4127+139786449+139754198+138744502+137486265+136645489+136463134+136888584
4117+137655502+138358487+138790866+139060449+139157620+138792630+138000300
4107+137486952+137919811+139086206+140097123+140363042+140128994+139998432
4097+140148174+140262615+140111561+139793234+139396906+138853506+138235759
4087+137883805+138077233+138681129+139212263+139314418+139135637+139144485
4077+139630619+140428052+141015737+140914395+140124263+139111880+138321124
4067+137867295+137672564+137619795+137578406+137498523+137450820+137493991
4057+137605600+137715536+137703640+137481841+137165640+137009077+137177401
4047+137742857+138688466+139660383+140051274+139666254+138975356+138473995
4037+138153361+137783794+137440977+137550153+138401839+139652540+140499268
4027+140488991+139958274+139578022+139668552+140019203+140241699+140244105
4017+140264144+140348025+140124480+139347900+138325765+137588466+137424801
4007+137810300+138526991+139346380+140169026+140905710+141318648+141169621
3997+140476651+139572684+139000298+139228574+140226428+141366759+142022492
3987+142224741+142425723+142711446+142682388+142148396+141541632+141473139
3977+142102764+143051132+143800373+144102489+144022552+143700959+143243194
3967+142869999+142940844+143617521+144572783+145215824+145236930+144831881
3957+144462051+144515472+145065883+145921496+146992827+148285821+149413405
3947+149900581+150119303+150741374+151283364+150586341+148744391+147144088
3937+146893585+148301463+151112182+154269625+155946254+155056780+152710186
3927+151066378+151051270+151787619+152242000+152752923+154142319+156058940
3917+156925074+155534267+152470665+149499033+147897156+147913431+149597045
3907+153386031+159280462+165768557+170450292+171953821+170166966+165452971
3897+159483018+155267479+154926001+157782468+160449154+160397316+159692757
3887+161427358+164790823+166757400+167376811+168516029+168735467+165959840
3878+162808504+163002574+166405862+170650351+174344455+176247307+174968317
3868+172438183+172134448+173807242+173919983+171027744+167797321+167157193
3858+170295032+177644592+188028026+194437451+189527268+178718873+169951745
3848+165776916+166002849+169509324+174785809+180496591+185696124+188977155
3838+188582012+185056104+181277540+178678886+176548635+174488262+173391147
3828+173720538+175040781+177942211+183674724+190308019+192698345+190515550
3818+188321520+186578415+182330597+176275732+172283267+172759595+177630353
3808+184193481+188966479+192413137+197168766+201586445+201276143+197417008
3798+194312280+192277545+189883202+187929598+188095099+190465142+194156894
3788+198772678+204141693+209660775+215360122+222731558+232708052+243515561
3778+252646548+260451937+269289177+280749172+294500775+307826584+317231525
3768+322120593+324208252+324635004+325044459+327890016+333395274+338819511
3758+342618774+347403189+356754356+371529795+388343497+400882694+407940154
3748+415681908+428118913+442430942+451690592+455494270+460617323+471603558
3738+488809780+508470343+523812541+531640492+535784038+540919394+548143567
3728+556545189+564811364+571732652+576754707+579084818+577457276+572570487
3718+567362866+564376650+564447794+566241398+566048413+561092833+553285798
3708+546279724+542713287+544204188+549817573+555039054+555682348+552912132
3698+550783944+551820518+556516203+564207730+573690472+582615285+586538669
3688+583147124+577025421+573760530+574629667+577895499+581877434+586887438
3678+593166047+596917761+594322870+590271601+590449315+591781066+587191408
3668+577002442+567648055+562327639+559871706+557969976+556377788+556886829
3658+560030531+563903000+567625728+573361099+582451466+591609721+593734254
3648+586382993+575902795+568320335+564802317+563566027+562324057+560595662
3638+560108911+562532927+567551147+573971463+581724182+589936257+593430863
3628+588060039+579185707+574012897+574966169+581356921+590045325+596352304
3618+599086008+602034263+607218291+611973178+613603253+613454525+613930021
3608+614463271+613134705+610246990+608250269+609171805+612799831+617428281
3598+621960185+625575112+626413128+624076539+622526075+626319549+634302742
3588+638854475+635033790+627807844+623682609+623545388+625040920+626422681
3578+627419486+628099872+628299189+628401309+630021035+634802700+641936731
3568+647169719+646410880+641104070+635593963+631730721+629369381+628273135
3558+628185852+628555827+628843440+628679586+627777229+626365506+625534365
3548+625962384+626714782+626300587+624315301+621195338+617391081+613700523
3538+611358435+610723065+610464184+609109853+606871548+605153611+604882824
3528+605810258+606812165+606585671+604818013+602871411+602555572+603934872
3518+605272304+605283377+604164333+602465105+600533050+598877101+597743691
3508+596523613+594541656+592293436+591075783+591354603+592106458+591926935
3498+590115925+586648460+582289783+578943472+578369547+580032227+581361517
3488+580690069+579075445+578642433+579961988+581719044+582409200+581467183
3478+578959177+575541613+572663488+571448006+571532864+571818198+571628940
3468+570724991+569201704+567464189+565760582+564305000+563762739+564531784
3458+566023806+567541702+568660601+568496131+566561398+564018255+562373922
3448+561725923+561489008+561638604+562139648+562336288+561623514+559951462
3438+557634451+555017703+552176344+549240138+546904382+546003437+546702315
3428+548374584+549894579+550043850+548431723+546114024+544671650+544837133
3418+546325319+548273767+549480564+548976336+546835844+544150993+542023637
3408+540718774+539747734+538509093+536858789+535293922+534485471+534506423
3398+534898689+535564021+536580475+537114956+536132626+534281630+533331905
3388+533789669+534487678+534258579+532950531+531071634+529194475+527627871
3378+526339835+525220176+524449503+524474544+525490890+526938294+527810181
3368+527696445+527142098+526791302+526642430+526370014+526014659+525952056
3358+526221069+526324636+525893180+525144762+524521624+524190007+524082061
3348+524029880+523557713+522200415+520463335+519672542+520151838+520324992
3338+518732334+516371102+515585774+517067628+519032902+519383988+517988150
3328+516297932+515367567+515120157+515218079+515512894+515672731+515354974
3318+514780615+514467816+514672742+515494728+516828396+517814996+517040886
3308+514090821+510502744+508313690+508079886+508980723+510222368+511476027
3298+512496932+513137368+513402763+513191612+512359024+511066826+509827243
3288+509268554+509710142+510813228+511914649+512721002+513437647+514419072
3278+515808034+517163668+517645171+516975315+515639873+513938474+511948194
3268+510402470+510077041+510348190+509890860+508688731+507922003+508129969
3258+508688586+508781623+508031179+506570603+505093381+504369426+504442053
3248+504821762+505314917+505948514+506441452+506466963+506050959+505332938
3238+504394974+503382500+502377047+501322778+500247086+499211815+498128741
3228+496992363+496037210+495328815+494559481+493510278+492380704+491545112
3218+491131568+490918319+490580008+489964866+489199151+488490793+487800383
3208+486831117+485459778+483971519+482696039+481707449+481085034+481022793
3198+481313518+481212738+480329488+479219925+478619186+478519889+478299981
3188+477303249+475231730+472561136+470520810+469973049+470424734+470770536
3178+470658537+470357716+469735916+468288512+465962490+463333801+461155458
3168+459940989+459591858+459343254+458511245+457247851+456126419+455291913
3158+454554750+453913843+453426152+452936290+452346408+451813664+451465908
3148+451220741+450849898+449991617+448401601+446407919+444736229+443773042
3138+443336049+443052127+442568633+441647858+440506233+439745874+439506642
3128+439086006+437882212+436315790+435276140+435063940+435357054+435719429
3118+435627876+434568179+432723552+431120363+430595979+430909430+431112330
3108+430553387+429324190+427919016+426727924+425841309+425177098+424672906
3098+424302859+423951701+423435857+422763106+422268612+422310734+422789450
3088+423088861+422654220+421628900+420714348+420366230+420329320+420054372
3078+419411113+418774405+418419375+418050087+417115452+415527136+413787813
3068+412399792+411452491+410828846+410461693+410242328+409985763+409673687
3058+409502596+409522679+409434673+408892195+407841400+406521699+405324383
3048+404598474+404347120+404187897+403779058+403121759+402341388+401440841
3038+400406945+399357814+398444420+397696618+397073950+396594401+396238901
3028+395773103+394958789+393943602+393064875+392280415+391237075+389925842
3018+388837557+388394810+388505615+388648372+388230667+387037765+385504200
3008+384347486+383794441+383418387+382870011+382333938+382023852+381739858
2998+381247607+380670535+380218162+379814931+379227401+378429335+377646721
2988+377008963+376314608+375348345+374317670+373645245+373386147+373203186
2978+372894765+372573280+372298586+371902520+371268055+370490941+369632009
2968+368567824+367304720+366268834+365955853+366253853+366372654+365645442
2958+364273126+363047078+362447352+362277093+362120403+361853235+361567431
2948+361213921+360593786+359688137+358776227+358143643+357793318+357551843
2938+357354624+357205100+356894797+356089349+354766175+353295611+352088271
2928+351382410+351194925+351195504+350862042+350012808+348970372+348139339
2918+347709765+347682118+347842028+347817891+347394323+346639139+345699075
2908+344686240+343769445+343154376+342857499+342605023+342116753+341448851
2898+340849668+340341134+339733809+339016078+338411612+338034761+337751707
2888+337437967+337173477+337052866+336914125+336488857+335820304+335252965
2878+334942265+334665109+334208286+333666025+333238259+332971634+332811254
2868+332716589+332618595+332397927+332009026+331530491+331014466+330377033
2858+329549728+328696586+328135001+327982908+327988625+327775122+327157412
2848+326209496+325201872+324485009+324199965+324106024+323927441+323758846
2838+323804623+323886876+323620685+322950141+322137239+321355855+320618583
2828+319938269+319308002+318672162+318043957+317497643+317034885+316643271
2818+316396548+316314730+316290701+316265045+316214854+315935274+315193261
2808+314134360+313168278+312424927+311639345+310608634+309531530+308811447
2798+308633733+308810470+308995964+308957353+308629789+308049170+307333646
2788+306664080+306145449+305694741+305143217+304403665+303473408+302388036
2778+301293563+300431429+299910771+299593684+299271711+298806383+298110780
2768+297239888+296475874+296065080+295900448+295646235+295083601+294210483
2758+293154966+292125955+291336700+290867193+290629482+290496169+290423144
2748+290383972+290216933+289688079+288758999+287668886+286701429+285942698
2738+285272716+284570328+283919326+283487887+283175992+282657850+281875109
2728+281172052+280826938+280729124+280586856+280255293+279827835+279492690
2718+279298385+279066662+278551487+277655861+276523446+275459135+274698667
2708+274243418+273951715+273698859+273398454+273009064+272561143+272110869
2698+271723868+271496470+271429524+271323044+270988170+270496716+270069439
2688+269811246+269658247+269506480+269317331+269077267+268684928+268008704
2678+267120351+266325488+265853972+265622087+265390889+265062438+264711280
2668+264403836+264152935+264015623+264038964+264102888+263993405+263619666
2658+263019687+262241904+261383080+260648848+260218332+260079339+260046137
2648+259905768+259569574+259134064+258764071+258514020+258330208+258178440
2638+258028048+257767176+257329586+256871170+256616270+256541797+256405065
2628+256079292+255690066+255410667+255260129+255116160+254839438+254405033
2618+253963191+253716921+253708417+253793727+253816109+253700600+253404646
2608+252930362+252403806+252032004+251936525+252064102+252261375+252393294
2598+252378078+252182216+251848464+251495931+251236525+251100662+251042763
2588+250994001+250923925+250864904+250862027+250910644+250944714+250870260
2578+250642011+250321196+250001738+249711646+249467112+249343046+249372104
2568+249465068+249540880+249648807+249861061+250123959+250342655+250574975
2558+250962717+251447821+251768039+251780578+251551822+251123134+250489718
2548+249824151+249418857+249352364+249375560+249147763+248539136+247738808
2538+247075647+246715026+246568017+246493236+246462586+246478490+246468611
2528+246377818+246272008+246238083+246251056+246222197+246121253+245991396
2518+245880429+245801940+245767363+245815311+245940391+246019695+245930186
2508+245721623+245532764+245372492+245152186+244898443+244751923+244748358
2498+244757857+244663663+244471926+244229764+243980707+243818771+243828017
2488+243926499+243892610+243581674+243046705+242456280+241961767+241635814
2478+241467292+241372771+241236998+240993985+240672102+240330444+239981059
2468+239625089+239320250+239124099+238986354+238787977+238493198+238182461
2458+237934925+237760160+237630448+237491093+237270787+236963198+236656134
2448+236441148+236340331+236309391+236250479+236056137+235713845+235369400
2438+235231546+235346457+235483859+235359829+234968322+234552408+234283322
2428+234144980+234089958+234129600+234262099+234412021+234482260+234448968
2418+234367584+234288913+234236135+234254174+234378060+234556172+234697264
2408+234778540+234844310+234923903+235000275+235063313+235167947+235376547
2398+235633166+235799518+235859425+235971713+236293053+236883442+237786161
2388+239034066+240570562+242330711+244412652+247036293+250331654+254273910
2378+258817990+263966174+269614588+275427182+281074963+286567303+292016218
2368+297101383+301232190+304158318+305886713+306254119+305232635+303391825
2358+301477085+299638917+297433470+294733583+292458675+291875885+293422369
2348+296762438+301423420+306835063+311930433+315335259+316275503+315089405
2338+312755277+310007823+307143267+304471081+302284958+300347728+298044178
2328+295163972+292019366+288847982+285608241+282308538+279182967+276481053
2318+274181936+271981990+269606663+267067084+264546467+262188764+260100942
2308+258355431+256827728+255186308+253223024+251135926+249326581+247932317
2298+246739941+245579535+244552877+243761777+243059588+242246613+241358315
2288+240608522+240122478+239821131+239531075+239135172+238632952+238115516
2278+237683155+237362683+237111582+236895058+236724002+236615659+236529842
2268+236371832+236110327+235847755+235674745+235532494+235340396+235139649
2258+234985710+234828894+234594783+234281821+233944921+233644732+233408468
2248+233223191+233077792+232999013+233023457+233127513+233214488+233231894
2238+233264571+233404759+233602122+233777647+233987295+234340154+234835227
2228+235351686+235755912+236038279+236364178+236917928+237695422+238522980
2218+239279594+240037818+240936882+241959325+242959893+243914702+244967597
2208+246212643+247576039+248924019+250214824+251536985+252980734+254488027
2198+255918170+257245488+258590935+260055184+261567869+262933563+264039923
2188+264954149+265780350+266545269+267249665+267904250+268512697+269076416
2178+269566695+269908426+270040671+269944685+269650250+269260951+268846828
2168+268316871+267558285+266627142+265667628+264731545+263723161+262511406
2158+261144319+259849823+258747823+257754095+256797675+255954900+255403375
2148+255230076+255283235+255634121+257181853+260995066+267030698+274291764
2138+282036557+290047289+298139639+306197378+314354123+322784044+331568740
2128+340706621+350074651+359526671+368984444+378347914+387479897+396160122
2118+403927677+410305909+415249655+419117203+422390634+425630955+429530202
2108+434859484+442182772+451417779+461731228+471847132+480460412+486757766
2098+490666892+492441571+492416421+491110037+488790420+485161561+479837961
2088+472499800+462738418+450440588+435890919+419478819+401949665+384380163
2078+367519562+351795158+337675679+325417726+314978492+306336191+299350290
2068+293624455+288885381+284963173+281483585+278218007+275319779+272885142
2058+270888548+269420029+268441951+267797481+267658306+268340375+269899469
2048+272408669+276142579+281342438+288322820+297552724+309266063+323451547
2038+340156580+359107554+379243323+399080948+417213808+432543305+444636896
2028+453718796+460253644+464848440+468075842+470120655+470965294+470569409
2018+468591831+464611814+458724856+451409963+443028569+433717353+423483877
2008+412340481+400443928+388098440+375704750+363689106+352324572+341653343
1998+331718301+322825043+315355125+309189962+303559823+297801835+292036193
1988+286740565+282142096+278313287+275288351+272877597+270765693+268810008
1978+267038370+265512440+264243728+263111258+262045409+261319771+261211699
1968+261340325+260904255+259714430+258425235+257616476+257211888+256920366
1958+256740101+256747954+256790256+256715151+256646142+256781029+257113984
1948+257584450+258407811+259853532+261437741+261857274+260475983+258308351
1938+256741893+256139598+256088122+256222430+256455600+256773484+257091549
1928+257429082+258164997+259615350+261313475+262513632+263358542+264329708
1918+264850799+264001221+262350592+261455979+262001967+263355882+264425603
1908+264654033+264354767+264172801+264350443+264666372+264931098+265291519
1898+266009974+266985103+267721000+268121281+268860561+270218927+271151645
1888+270594602+269097676+267922742+267466497+267369245+267305773+267188256
1878+267055740+266996701+267154222+268023486+270474751+274670007+278716933
1868+279583393+276682813+272665596+270019121+269153820+269228419+269431555
1858+269465679+269419251+269470238+269694760+270185310+271173466+272948162
1848+275888348+280125834+284226842+285123825+281949238+277829576+275680165
1838+275650129+276333320+276972688+278423657+281748835+286037689+288646150
1828+288636777+287691105+286732568+285084182+282862958+281378516+281231453
1818+281759311+282218396+282801114+284228977+286487601+288395610+288851130
1808+288171649+287635974+288341800+290711572+294177662+297147883+298220011
1798+297855120+298156249+300916387+305734475+309222603+308000969+303605165
1788+300284256+299927870+301619300+303906783+306242249+308263071+309423368
1778+310204679+312363771+317292210+324196382+329470407+329862130+326516397
1768+322376941+319201033+318382268+320643733+324347390+326674027+327425991
1758+328320242+329525628+330752400+333542410+339356995+346535970+351080249
1748+351408754+349730297+348642880+349311650+351617263+354300992+355891877
1738+357182736+361027088+367964914+372903450+370827407+364901693+359545162
1728+355793159+353935396+354101928+355652284+358633940+364740046+375007175
1718+386250012+391175991+387161995+379582141+373581628+371119978+372636028
1708+377575143+383759630+388544154+392473943+398770103+407730523+414291137
1698+415161395+412224828+406358424+399264090+395150109+395868419+399961375
1688+406178901+415585759+427544808+434300324+430247644+422332554+417815596
1678+418472823+422966911+428163061+431969634+435897469+441173520+444553232
1668+442695396+439106487+439085789+443017134+446992121+448098499+448410141
1658+451938871+461275961+477080591+494491124+500693126+496425387+495349912
1648+500562129+505329573+503025697+497205577+494317283+496403639+503443113
1638+514955036+527856717+534778693+532819209+529218069+530192148+536143772
1628+544259337+552205691+560118139+568207939+575208730+581455169+589906801
1618+601939056+613529866+618708429+618732674+618800199+620742640+623343972
1608+625128927+626158734+627625027+630284910+633881092+638047218+643118378
1598+649628909+657423786+665561424+672986398+679271485+684671656+689631072
1588+694496184+699377942+703972738+707898221+711490857+716058875+723148758
1578+733040666+742682232+747303517+748596620+753199088+763727668+776619904
1568+786510509+793816355+802830369+815699735+832987667+856312660+884153779
1558+902418902+902851698+897192066+893289742+891826199+891106152+889117682
1548+886270279+885509702+888692124+895221906+903278703+907429920+898866072
1538+881463355+867968028+861552017+858018873+853243721+848170607+845996859
1528+847034772+849159667+851420770+854958836+859464395+861873140+860553476
1518+856931529+852293453+847622230+844504584+844410932+848528640+857460509
1508+868402777+871767508+861842019+848897240+841772183+841218234+844730317
1498+847797302+846112440+840732605+837175071+838687683+843736408+847229530
1488+845128301+839042966+833295979+830334226+830059784+831235135+833216368
1478+836327935+840730000+845638536+849072312+848234078+842995083+837566034
1468+835569241+836984076+838968277+839054763+838769755+841623165+848493538
1458+855115814+854037010+845625654+837589917+833068364+831145319+830347904
1448+829232986+826917386+824028585+821896598+821126034+821771101+823844828
1438+826382254+826661327+823281905+819098916+817127091+817139250+817077008
1428+816182902+815731941+816556351+818085899+820044697+822788388+824967563
1418+823587539+818629499+813294464+809677438+807845946+806821712+805563783
1408+804040893+803017817+802532768+801849631+801178075+801679191+803738153
1398+806564206+809060958+809916850+807990766+804357094+801948566+802102795
1388+802971063+801814023+799079813+798098135+800792033+806178236+812384363
1378+818712367+825302075+831404417+835238637+836260628+836268661+837245635
1368+839546616+842543543+845810497+848779849+849919592+847996330+844219431
1358+841322018+840759890+841724633+842482170+842128986+841039326+840175761
1348+840057575+840233298+840175037+840597049+842926328+847300094+851765486
1338+854054235+854010666+853415392+853956458+856250274+859975716+864075330
1328+867464379+870148723+872992073+876560464+880998136+886277154+891671319
1318+895917346+898778427+901395102+904698677+908586454+912578738+916317641
1308+919395844+921467110+922926962+925048600+928610984+932344604+933924380
1298+933015220+931915283+932554705+934245575+934993341+933932341+931522076
1288+928196065+924111577+919869820+916519564+914840564+914730339+915155318
1278+914908740+913675563+912273248+911845302+912850574+914624818+915874930
1268+915944771+915590501+916107178+917872954+920264257+922728803+925232357
1258+927663394+929463330+930153270+929946860+929575872+929657437+930246487
1248+930850881+930866659+929857478+927471169+923651569+919111560+915132086
1238+912622234+911499138+910844372+909468618+906690911+903020908+899870765
1228+898269278+897951774+897834962+897216094+896308092+895679815+895601217
1218+896228408+897883236+900556362+903507187+905835597+907208601+907826601
1208+908214669+909267419+911671242+914779842+916939983+917653155+918405915
1198+920702770+924277240+927543470+929149011+929102330+928662731+929077506
1188+930733780+933595079+937559571+941980815+945733759+948252657+949920367
1178+951307483+952429856+952878067+952848901+953825296+956972905+960848378
1168+962617773+961912562+961310629+962891852+966338583+970179171+973240945
1158+974894325+975032414+974197148+973401760+973525085+974518777+975389796
1148+975622261+976225786+978636992+982975585+987798430+991521991+994083879
1138+996827570+1000337483+1002955316+1002625002+1000069555+998360013+999559536
1128+1003317329+1007935647+1011728469+1013884267+1014648607+1014667352
1120+1014231662+1013607800+1013677206+1015332250+1018527482+1022330002
1111+1025489263+1027093067+1027494235+1028112090+1029560869+1030629179
1103+1029713433+1026919370+1024311597+1024480010+1028325303+1033699420
1094+1037488334+1039381995+1041343615+1043967817+1046329953+1048282164
1085+1049765972+1048934614+1044505409+1038473269+1034532009+1034781988
1077+1038608174+1043904272+1048729362+1052565174+1056352206+1060472953
1068+1063470604+1064355591+1064666364+1065787145+1066340081+1064800328
1060+1062048966+1059573854+1058288640+1059222262+1062259067+1065092646
1051+1065865598+1065555983+1066259746+1068748392+1071961644+1073741823
1043+1073080978+1071769999+1072019399+1073171156+1072897800+1071021581
1034+1069699384+1069945600+1070070589+1068394629+1065824852+1064192823
1025+1063581264+1062859118+1062218176+1063001477+1064678885+1064865754
1017+1062786020+1060189031+1058597820+1058000302+1058073979+1058882032
1008+1060419831+1062383043+1064450835+1066151475+1066256345+1063132619
1000+1056613186+1049236268+1044631846+1044429996+1047070771+1049137116
991+1048100144+1044448234+1040750584+1038849758+1038596088+1038861627
983+1038869661+1038992841+1040595776+1043822562+1045882032+1043851801
974+1038781365+1034023655+1030608263+1026933700+1022140599+1017692071
965+1015231795+1014236511+1012663321+1009503119+1005555779+1001645350+997499778
955+992893764+988905026+987067165+987276688+987399940+985515760+981613003
945+976761207+972114157+968923124+967941011+968467169+968982326+968772152
935+968162547+967444889+966273012+964374792+962788213+963342596+966218225
925+969135686+969967478+969037040+967742852+966408061+964667182+962838296
915+961762531+961672354+961834037+961452265+960793518+960975394+962384440
905+963618485+962848356+960210909+957616598+956273919+955408835+953379618
895+949730024+945876046+943440522+942764262+943546622+945725074+948505531
885+949853349+948794158+946862790+945943064+946562656+948628784+951691860
875+954369836+955078882+953615412+951290910+949642089+949166159+948852853
865+947120296+943884102+941408628+942068604+945295029+947708189+946968673
855+944369368+942594473+942484320+942852775+942321913+940663684+938891467
845+938342728+939451133+941352466+942605256+942348836+941034527+939853025
835+939175679+938389192+937537425+937426693+938081966+938796006+939623021
825+941606715+944963557+947898025+948238689+946132756+944259939+945184008
815+948810949+952440495+953261431+950906532+947479198+945174165+944756713
805+946573729+950980933+956421778+959360662+958106424+954560107+951431025
795+950196256+951193422+953059798+953322587+952052065+952527054+956287091
785+960554251+962248304+961833747+961228340+961009844+960930884+960942102
776+960926324+960505543+959829789+959937264+961556266+963738047+964642647
766+963773655+962327192+961317288+960609617+960107487+960645369+962712582
756+965070449+965859323+964931202+963977025+964315373+965737012+967431934
746+968981602+970063807+969605898+966182255+959858159+953115309+949255469
736+949531936+952603988+956522885+959579737+960258459+958589157+956799280
726+957127061+959866699+963479455+965354082+964119240+961159151+958521560
716+957470185+958913392+962645058+966057917+966159819+963278039+960262367
706+958525685+956806879+953314119+948299555+943826420+941200915+939353935
696+936890041+935118765+936158559+939421315+942101752+942169855+939398156
686+934670626+929576668+925134436+920983291+917170277+915328146+916516669
676+919368631+921909748+923438934+922851621+918258417+911700699+910179835
666+914281259+917808180+917822003+915819782+913054306+908192233+901123773
656+894762622+890570369+886628240+881454164+876875073+875787584+877800951
646+879214846+878148924+876914516+877955976+880248850+881211856+880038098
636+876736983+871680370+867151868+865852035+867654215+869495405+869322576
626+868767903+870416434+873821839+875762543+873626140+868033816+862940219
616+861700094+863919727+866956821+868688003+869283929+869721356+869258381
606+866210140+860129727+852546544+847836674+851349916
##END=
