##TITLE=<SNM>
##JCAMP-DX=4.24
##DATA TYPE=INFRARED SPECTRUM
##DATE=2/5/2025
##SAMPLING PROCEDURE=Instrument type and / or accessory
##ORIGIN=Admin
##XUNITS=1/CM
##YUNITS=ABSORBANCE
##RESOLUTION=4
##FIRSTX=4497.3318
##LASTX=599.83466
##DELTAX=-1.4281778
##MAXY=1.8228476
##MINY=0.29913417
##XFACTOR=1
##YFACTOR=1.6976591e-09
##NPOINTS=2730
##FIRSTY=0.31711203
##XYDATA=(X++(Y..Y))
4497+186793699+186611023+187374716+188517561+188910633+188159984+187021370
4487+186287081+186003147+186010292+186439686+187256641+187919551+187920464
4477+187420095+187083935+187396905+188313379+189370450+189922782+189542015
4467+188404226+187076246+186026285+185626559+186147853+187275758+188176994
4457+188396870+188150627+187704819+187132317+186650504+186548509+186795350
4447+187139304+187429189+187578546+187480783+187237296+187158386+187242948
4437+187074386+186525355+186011310+185738875+185295297+184415759+183676958
4427+183816310+184671920+185452554+185820172+185915127+185559481+184469389
4417+183150064+182582495+183109196+184300651+185616271+186708224+187346593
4407+187359232+186731379+185801248+185077879+184762346+184743931+184927082
4397+185107529+184888829+184205977+183499583+183143815+183156033+183410176
4387+183746599+183971425+183863058+183179223+181985030+180935876+180624188
4377+180833723+181054407+181193337+181162440+180656032+179929644+179781041
4367+180346187+180903715+181075315+181194811+181362461+181198252+180714315
4357+180538291+181070487+181973953+182543997+182409175+181933383+181781340
4347+182020210+182057602+181568626+180902451+180486539+180393954+180457556
4337+180383773+179895991+178978113+177839411+176765943+176203904+176591166
4327+177767190+178947655+179602121+179866095+179878067+179415231+178509975
4317+177777898+177711979+178035991+178115866+177815220+177574893+177696197
4307+177897008+177781901+177558338+177920778+179181100+180780479+181780444
4297+181684682+180735591+179605965+178901310+178795243+179035324+179338551
4287+179667074+180017734+180193582+180016523+179499530+178672095+177695372
4277+177151415+177578579+178714718+179760712+180298561+180433892+180314711
4267+180106597+180149747+180527354+180663581+179970722+178849400+178348416
4257+178731729+179232572+179455098+179957047+181008097+181849418+181787010
4247+181161246+180686016+180559199+180571137+180474461+180042645+179257535
4237+178477147+178069240+178102893+178565554+179328685+179811692+179454923
4227+178653908+178486012+179430082+180853122+181790029+181965983+181897747
4217+182026916+182191353+182168497+182142322+182249284+182293277+182231993
4207+182340798+182708768+183036905+182976656+182431242+181670796+181265733
4197+181655049+182613637+183276741+182955046+181980940+181331705+181315045
4187+181313535+180964543+180680205+180772650+181009852+181232923+181636494
4177+182358406+183299053+184240191+184879385+184994686+184700921+184307286
4167+183990946+183789047+183728254+183802792+183897712+183781428+183307356
4157+182680294+182244632+182035500+181923956+182003234+182334180+182626786
4147+182696918+182858617+183429802+184186526+184559358+184236996+183578177
4137+183341167+183766647+184173061+183829037+182879191+182053599+181836480
4127+182151995+182574244+182685244+182366516+181870449+181583899+181610600
4117+181665161+181597855+181796367+182654663+183878805+184738050+184766664
4107+184029111+183095416+182764154+183281919+183930417+183887758+183276846
4097+182820645+182753814+182689124+182379384+181966422+181578334+181307900
4087+181405646+181955625+182629999+183149625+183562465+183823209+183710875
4077+183345837+183180698+183379507+183665477+183740051+183550370+183231782
4067+182905190+182462524+181649625+180490261+179452518+179052826+179407296
4057+180225778+181116867+181851753+182440317+182973725+183356335+183377137
4047+183157121+183153470+183500443+183807462+183848400+183871274+183991613
4037+183881719+183307866+182551704+182159368+182476849+183346381+184162967
4027+184411124+184177327+183963596+184067012+184405524+184859337+185373697
4017+185683050+185371959+184411616+183313220+182593871+182363409+182510502
4007+182985838+183744475+184602719+185331372+185831337+186068171+185925572
3997+185396378+184812026+184523441+184496055+184547982+184687790+184991807
3987+185509783+186250040+186890462+186893148+186313168+185940880+186363322
3977+187438282+188673238+189547211+189639796+188978712+188105493+187526268
3967+187337376+187496810+188087464+189072402+190085569+190732697+190890358
3957+190566276+189857618+189256396+189576616+191149083+193130651+194073193
3947+193613693+193022670+193388463+194079320+193820806+192622294+191513506
3937+191181753+191894922+193762155+196194516+197723464+197444990+196417095
3927+196493301+198003448+199349931+199235402+198607426+199218690+201058852
3917+202102336+200593681+197158283+193924082+192332058+192651295+195042455
3907+200093400+207718270+215799130+221065510+221962375+219069372+213367682
3897+206694905+202103864+201692077+204603513+207229295+207004030+206198679
3887+208024920+211446626+213206053+213565596+214593123+214598670+211312805
3878+207701418+207948644+212171540+217960970+223437570+226576834+225520834
3868+222486934+221444802+222350761+221743359+218060225+213816386+212346598
3858+215657901+224582978+237189118+244372586+237847657+224991833+214965235
3848+210473801+211319581+216001170+222365121+228821129+234517606+237815514
3838+236601431+231733338+226751313+223479527+221297674+219571970+218731509
3828+218970643+220129656+223465131+230579381+238804630+241362702+237615229
3818+233478107+230454108+225872547+220176931+216897596+218307066+224059928
3808+230805752+234655482+236617581+240051382+243655115+243442139+240559089
3798+238450178+236557280+233341705+230242203+229526189+231402796+234733760
3788+238713414+243042342+247529318+252692913+259834320+268963298+277555937
3778+283622928+288863415+296454281+308118246+323450038+339372027+351426907
3768+358218285+361508680+362576723+363004397+365367539+369994111+373975995
3758+375517812+377035613+381959074+391599656+404330120+415438928+422086532
3748+427982292+437088220+447554517+453809627+456835995+463184462+475885434
3738+493474160+511516612+525055236+532265370+535337767+538119490+543765934
3728+553421403+564773593+572905046+575752319+575494928+574165843+572416667
3718+571126519+571872604+575948443+582337146+586081933+582462488+573735079
3708+565390474+560320639+559006932+560419860+562383486+563196245+563060124
3698+563230197+565012832+569351011+576180168+584055424+590126804+591497214
3688+588749442+585295436+582729815+580927167+580294171+582105842+587698147
3678+596655139+603795018+602745092+597055322+593923659+592636249+588003392
3668+579743226+571781248+566056684+562565215+561233918+562464064+566308317
3658+570882926+573146321+573843464+577919161+587621677+598177083+599982575
3648+590574736+578222265+569485447+565511357+564667772+564298170+562876500
3638+561435449+561791288+564516694+569699196+577982394+588446795+594697902
3628+590101665+579907997+573398270+573839005+580098924+588815941+595483381
3618+598093451+599409792+602010452+604571860+604782800+603045211+601068243
3608+599308886+597871697+597678452+599549670+603219356+607435704+611051954
3598+613827813+615630987+615926121+615370753+616664131+621832800+628921419
3588+632605361+630571234+626812297+625266479+625692292+626086857+625639486
3578+624793689+623775642+621941501+619073724+617159392+619220203+625636818
3568+632103992+633123302+628602060+622794601+618672277+616823671+616548620
3558+616686883+616731191+617158830+618230665+619335012+620090647+621073724
3548+622587944+623718272+623399896+621272657+617208124+611802885+607186073
3538+605368153+605728240+605795791+604765105+604121400+604868679+606310853
3528+607623542+608888974+609552902+608199204+604969164+601557394+598736103
3518+596044367+593561957+592256290+592444689+593076597+592681190+590772194
3508+588583302+588031726+589717563+592457399+594642007+595283676+594033342
3498+591391814+588551423+586061288+583458205+580634421+578501705+578095062
3488+579539027+581890337+583676729+583633087+581482044+578111142+574838092
3478+572463785+570896444+569769451+569353083+569802454+569821343+568204006
3468+566609630+567959184+571788025+573923374+571691262+566925409+562886927
3458+560910099+560371513+559994012+558814495+556997136+555757862+555989201
3448+557096462+557529332+556476035+554555312+552719556+551197542+549916522
3438+549075429+548615946+547976981+547033121+546292092+545841878+545243429
3428+544527538+544334890+544957284+545812666+545941239+544903425+543156075
3418+541446329+540108396+539109343+538330395+537543512+536497342+535368173
3408+534847107+535317017+536033014+535680510+534024130+532385025+532087187
3398+532930036+533453665+532456895+530226187+528244690+527386463+526903562
3388+525928173+525147926+525667588+526871541+526880951+525029851+522718145
3378+521669272+522154350+523079286+523329795+522768563+522037786+521511242
3368+520660705+518973323+517365255+517537925+519742757+522181982+523002606
3358+522238053+521318945+521094944+521034099+520530869+520161828+520755396
3348+521828531+522080023+521219093+520346507+520398048+520862727+520494249
3338+519061168+517678575+517298476+517572543+517413074+516199149+514326071
3328+512886741+512786537+513940073+515386671+516161968+515943865+515076475
3318+514092450+513086376+511681102+509905068+508765190+509231309+510716457
3308+511374593+510307532+508679170+508216808+509277864+510581144+510645571
3298+509363638+507897589+507160562+506907595+506474549+505791802+505352402
3288+505668777+506827860+508300826+509435402+510291768+511419814+512709401
3278+513298966+512813677+511784150+510693180+509515629+508298228+507505832
3268+507555478+508332039+509345381+510198832+510681558+510470969+509304794
3258+507580757+506167794+505459206+505098417+504681557+504262696+504018998
3248+503878242+503726848+503711470+504094414+504797490+505205081+504573278
3238+502800017+500692826+499252443+498752583+498668881+498339304+497455974
3228+496037815+494351557+492933117+492264449+492280915+492439401+492365881
3218+492199039+492070150+491581350+490313532+488595991+487067200+485671336
3208+484046204+482629098+482122111+482197843+481962642+481318972+480812441
3198+480584964+480367669+480098798+479857944+479510707+478875498+477991923
3188+477045395+476202230+475481846+474723542+473798712+472846567+472076501
3178+471280244+469937606+467920437+465643981+463520674+461673543+460065088
3168+458577762+457258824+456599284+456911832+457559540+457553009+456687445
3158+455441816+454253205+453449785+453191447+453063577+452424436+451310785
3148+450337503+449803131+449485140+449016002+448065752+446592190+445112974
3138+444221534+443854741+443482611+442738246+441554094+440126772+438887884
3128+438113254+437661073+437280026+436881282+436530113+436413022+436491949
3118+436171185+434987349+433440266+432338202+431747302+431265138+430726306
3108+430121643+429376190+428532218+427802073+427321137+427006061+426716158
3098+426484995+426401258+426257974+425676028+424686350+423791293+423356632
3088+423197374+422833144+422148746+421613215+421546822+421442125+420607527
3078+419286973+418387458+418259377+418416915+418305160+417785885+416941492
3068+415846765+414637931+413600574+412989732+412769242+412631892+412269803
3058+411567359+410592814+409507497+408489239+407746068+407513851+407794520
3048+408109877+407867057+407023225+406041517+405216048+404421090+403457077
3038+402329699+401304841+400806982+400953320+401205128+400930709+400199019
3028+399528666+399090564+398642246+398025892+397320955+396576836+395684131
3018+394611805+393641789+393124269+392967889+392609909+391574377+389950720
3008+388370107+387521044+387491306+387612330+387166188+386137995+385086173
2998+384477542+384323621+384283946+383978771+383307891+382520973+381911851
2988+381433549+380706774+379514301+378185673+377275308+376960302+376996570
2978+377103094+377083573+376736476+375973959+374961425+373951173+373041124
2968+372182511+371346966+370578726+369899034+369303183+368907811+368899841
2958+369172013+369205894+368575987+367474660+366488317+365893907+365405423
2948+364655826+363693394+362822352+362183176+361766457+361603547+361640061
2938+361618785+361331586+360812416+360120540+359169904+357963563+356842223
2928+356250235+356202345+356149013+355498075+354196867+352730397+351663126
2918+351267016+351464088+351980028+352509872+352772248+352575176+351934736
2908+351070401+350280393+349804338+349607547+349310552+348667233+348035185
2898+347903102+348076474+347890462+347121309+346159860+345400433+344886599
2888+344422622+343757360+342775862+341659613+340822874+340603893+340898711
2878+341119061+340749354+339933540+339192019+338691176+338235239+337788676
2868+337485256+337254760+336889863+336421953+336102242+336007059+335883753
2858+335464822+334783585+334083528+333554422+333235519+333032233+332781723
2848+332396006+331886772+331249106+330518890+329912016+329664561+329741733
2838+329828735+329592200+328987431+328333053+327946002+327757497+327505407
2828+327130609+326709712+326239099+325734604+325295099+324897163+324336739
2818+323479671+322467593+321631872+321199880+321076644+320948774+320599887
2808+320055192+319458323+318938170+318610454+318523803+318497506+318224596
2798+317694613+317233900+316948211+316524786+315788180+314982478+314317216
2788+313709042+313086613+312526084+312053259+311633941+311288881+310978369
2778+310524398+309839896+309087350+308475665+308032578+307666066+307298957
2768+306840176+306177231+305331398+304485530+303752787+303074569+302442731
2758+302018779+301886309+301832240+301525344+300858326+300034437+299330870
2748+298831958+298441185+298096090+297803624+297479209+296976997+296300429
2738+295576182+294845826+294094316+293437691+293063349+292967657+292888045
2728+292555273+291972765+291365557+290875967+290443325+289975187+289463689
2718+288951154+288516353+288211705+287916360+287400069+286635007+285933809
2708+285670626+285837029+285940831+285518284+284712248+284048531+283702540
2698+283384690+282894644+282369680+281978205+281690620+281398593+281084482
2688+280801532+280532818+280179279+279738000+279352142+279097912+278872418
2678+278563240+278179208+277773373+277364834+276960982+276580830+276252043
2668+276007117+275867063+275827038+275847226+275827459+275646714+275302092
2658+274921729+274542472+273998637+273177978+272274899+271635706+271418305
2648+271488543+271574667+271469460+271149240+270764524+270515103+270486910
2638+270555128+270479519+270173993+269819962+269609759+269477851+269227553
2628+268831618+268444830+268132598+267731678+267086551+266357845+265915636
2618+265910720+266130368+266302371+266355194+266332794+266240402+266071717
2608+265876681+265708435+265553319+265358740+265097996+264789995+264492140
2598+264278180+264197357+264235241+264272896+264112268+263691897+263255657
2588+263087796+263124890+263090184+262920199+262776565+262749618+262778461
2578+262742982+262534745+262189668+261938386+261945829+262081424+262113426
2568+262030760+262017787+262188667+262469880+262722847+262884019+262946602
2558+262891093+262732993+262571031+262469687+262362479+262190159+262036588
2548+261989313+261953659+261747265+261338288+260888688+260558058+260326297
2538+260059041+259716754+259389267+259129260+258908665+258748564+258716105
2528+258773474+258787044+258703799+258619394+258640987+258708187+258601243
2518+258178432+257566168+257045821+256814271+256894954+257151169+257332511
2508+257242138+256915932+256568643+256389529+256443019+256673288+256909841
2498+256961768+256802633+256585706+256411403+256195266+255844360+255430151
2488+255084863+254855701+254760290+254836232+255010325+255054300+254818291
2478+254425640+254111230+253953850+253875415+253786569+253610089+253288079
2468+252898411+252635070+252564060+252534673+252408102+252217069+252034462
2458+251847432+251636702+251445072+251299331+251171829+251069870+251041975
2448+251062093+251043608+250982552+250932696+250863389+250709063+250498123
2438+250284409+250061479+249866584+249813638+249909102+249975108+249845096
2428+249545170+249233499+249018083+248878380+248768048+248747736+248924813
2418+249265923+249581000+249734974+249788078+249865390+249957905+249953832
2408+249852276+249826945+250016784+250328016+250519242+250462469+250284865
2398+250270751+250637562+251413140+252574417+254330720+257230183+261971653
2388+269192302+279464178+293353093+311281719+333274350+358903736+387482353
2378+418177852+449927771+481430376+511396185+538912166+563658292+585703167
2368+604700222+619287262+628127163+631613787+631488094+628793409+622640118
2358+610765387+591813062+566723527+537863152+509354228+487205463+476254439
2348+478200370+491796083+512232573+531557239+543821338+548866209+549776082
2338+549516304+549443241+549482634+549109170+547786685+545106606+541119455
2328+536361432+531267617+525536312+518377227+509574438+499768137+489535883
2318+479003579+468361522+457942168+447751799+437385004+426428995+414793187
2308+402693437+390495976+378656883+367633918+357622084+348434946+339776178
2298+331508709+323613299+316111332+309089527+302635379+296728840+291278063
2288+286227978+281619312+277574072+274201783+271511540+269418919+267759695
2278+266292523+264825473+263354877+261978973+260734731+259619254+258657173
2268+257839586+257108668+256471809+256016926+255757674+255553299+255220826
2258+254670040+253918021+253053720+252231376+251621377+251282250+251094500
2248+250857684+250455342+249937102+249462241+249150956+248975547+248808705
2238+248568307+248289482+248071713+247980269+247992645+248029072+248023138
2228+247962732+247883594+247833124+247819185+247789464+247686382+247529388
2218+247420705+247437049+247533934+247631242+247765186+248009042+248276667
2208+248422513+248503020+248694089+249004285+249299963+249534690+249763448
2198+250011552+250257392+250479023+250659418+250792871+250905872+251045188
2188+251242769+251505198+251823504+252149710+252378943+252435329+252374361
2178+252324066+252356947+252469895+252601066+252633349+252480972+252176885
2168+251819835+251510780+251367743+251458168+251675323+251791677+251669565
2158+251368392+251056283+250862318+250801947+250803737+250814270+250893109
2148+251161437+251672777+252467666+253722178+255628909+258162509+261163458
2138+264549158+268279849+272289294+276574089+281197870+286203471+291641696
2128+297588822+304054275+310949439+318132538+325452602+332825154+340211014
2118+347428030+354094382+359791279+364178121+367053517+368448328+368537050
2108+367385094+364896575+361043649+356067979+350395097+344369044+338144094
2098+331778598+325309529+318792288+312352922+306133729+300212620+294656162
2088+289559872+284994040+281000517+277577407+274592907+271867378+269372785
2078+267203800+265413125+263980659+262821312+261793171+260845713+260125135
2068+259789011+259734818+259615129+259185893+258581037+258105614+257857615
2058+257739646+257675061+257598662+257427255+257197250+257064078+257118762
2048+257316782+257553107+257786710+258094765+258488101+258757446+258756832
2038+258693230+258858651+259260519+259716087+260135475+260587234+261166144
2028+261851981+262538888+263177572+263780339+264376997+265086094+265996055
2018+266828827+267052687+266515032+265655068+264991210+264681856+264584461
2008+264495967+264293137+263986838+263709681+263593397+263591009+263457521
1998+263057953+262741806+263139092+264335690+265497020+265717493+265022668
1988+264045770+263179047+262543628+262264662+262334935+262540837+262728411
1978+262915775+263139689+263355229+263462876+263482572+263741999+264570926
1968+265651012+266137144+265728219+265077475+264857915+265048017+265355089
1958+265752059+266286466+266787818+267064361+267163371+267297105+267655384
1948+268401978+269776373+271849086+273899610+274557710+273334797+271407158
1938+270151961+269819453+269927978+270105212+270288521+270561395+270991544
1928+271672518+272924625+274921694+276999007+278292947+279116555+280221727
1918+280982646+280188250+278372401+277335535+277901085+279394450+280666903
1908+281141852+281085483+281058378+281260875+281551795+281912216+282618311
1898+283921907+285546652+286743707+287341313+288208229+289756119+290793775
1888+290136149+288467375+287152843+286523269+286221079+286049233+285972939
1878+285951944+285962424+286077128+286854549+289376423+293936163+298431425
1868+299404776+296163641+291653019+288583501+287393855+287268407+287438479
1858+287531292+287496516+287486843+287646892+288123860+289194448+291167010
1848+294355077+298812823+303077061+304004735+300667399+296309698+293963198
1838+293712636+294061664+294393171+295871000+299685761+304629937+307512425
1828+307257176+305926721+304642226+302588367+299886133+298064947+297797445
1818+298288246+298712058+299357729+301078746+303819882+306118738+306586577
1808+305591597+304742605+305422298+308125620+312107223+315414400+316421738
1798+315773048+315908642+318756547+323791974+327298294+325673127+320746119
1788+317191909+316916928+318680112+320789831+322779053+324433642+325244716
1778+325805175+328107191+333664878+341492034+347434104+347747600+343719300
1768+338758798+334969948+333939297+336363214+340298543+342555828+342908402
1758+343270807+343892849+344585251+347151434+353233487+360966513+365773480
1748+365733490+363286084+361389833+361458192+363529606+366294721+367996568
1738+369363151+373670715+381796410+388037967+386224225+379651160+373464409
1728+368944430+366510858+366464091+368107270+371297882+377808030+388949350
1718+401391281+406948652+402529614+394134100+387455319+384590807+386025292
1708+391277347+398170369+403832367+408538709+415512554+425076912+431863832
1698+432341502+428499461+421417793+413303965+408773454+409547241+413898657
1688+420615216+430978887+444063434+450960213+445679297+436313485+430877911
1678+431386021+436494898+442464494+446379740+449845859+454679194+457648017
1668+455128179+450937075+450841717+455153704+459404319+460277608+460138994
1658+463551641+473483460+490686188+509535536+515535853+510116078+508679556
1648+514113446+518510926+514813467+507690089+504392883+506932066+515060290
1638+528005100+542026098+548855255+545914134+541723521+542907954+549746028
1628+559486779+569980883+581212119+592531902+601365764+607792140+615987493
1618+628455371+641292534+647971420+649664630+651877958+656365144+661454816
1608+665182926+667340921+669034271+670958013+672895728+674759011+677156666
1598+680651295+685063627+689648488+693891239+698084625+702622510+706942783
1588+710126549+712261933+714182234+716317197+718797360+722409818+728570272
1578+737577366+746098679+749314676+749656296+753992158+764074879+775230207
1568+782106482+786032401+791501961+800798993+815573240+838753569+868329378
1558+885978002+882401567+873843669+869375091+868388924+868615875+868579782
1548+868637011+870819442+876252419+883878430+891646355+894626062+885155798
1538+867809330+855249605+850564189+849143572+845818313+841135706+838964790
1528+840008257+841937827+843951660+847869504+853154878+855440814+853340399
1518+849914586+846047230+841068716+836911423+836791487+842403875+853480207
1508+865860660+868142944+855072019+840037538+832502251+831865007+834825895
1498+837677451+836973427+832752795+829443055+830649853+835475779+838856652
1488+836355212+829438280+822679554+818816973+817948776+819070537+821732570
1478+826047998+831649853+837552108+842040488+842179032+836918936+830183874
1468+826458924+826713963+828436244+828517277+827865497+830494597+838328388
1458+847555481+849090346+840762277+830843379+824715647+822919214+823926026
1448+824858053+823394111+819956079+816555825+814720420+815488484+819463838
1438+825354648+828892953+826836426+822138721+819186821+818571415+818354014
1428+817496490+816890704+817268556+818462644+820810443+824877223+828795629
1418+828427747+822987889+816100310+810854048+808302400+808070254+808845691
1408+809454146+809407730+808424513+806842109+806207603+807687205+810535741
1398+813195246+815007128+815539253+814014992+811326627+809960641+810645846
1388+811026999+808655395+804960078+803653007+806319112+811829752+818274244
1378+824340884+829516435+833387442+835178258+835054741+834984030+836540662
1368+839164566+841783554+844634969+847858971+849854618+849167868+846815435
1358+844753290+843588484+842740930+841839940+841367993+841980942+843531676
1348+844929963+845083884+844263647+844369258+847053339+851446079+854633988
1338+854977784+853794159+853153685+853906511+855941902+858734895+861533927
1328+863861713+865877724+867930389+870190554+872916767+876344547+880136206
1318+883584560+886488921+889291113+892324327+895435205+898395672+901277844
1308+904230937+907164931+909834759+912062903+913870431+915642709+917971549
1298+920861304+923213035+923693269+922176591+919756606+917493773+915662932
1288+913978148+912207345+910471442+909074208+908190281+907638564+907006235
1278+906119569+905345536+905168934+905329877+904796347+903060092+901183819
1268+900888194+902716367+905726479+908838129+911640882+913790802+914813132
1258+915021615+915550159+917045139+919095768+920964597+922148714+922371240
1248+921913197+921798528+922576493+923196955+922343644+920511118+919218442
1238+918499110+916875488+913898730+911084390+909881876+910066554+910609634
1228+911085163+911448550+911263310+910209803+908864602+908060164+907940790
1218+908347995+909284376+910460557+911328685+911942266+912967896+914744597
1208+917005113+919428469+921877595+924120767+925842908+927172309+928725711
1198+930754291+932757522+934384374+936019232+937886798+939293300+939660760
1188+939762439+940956105+943728945+947311559+950336277+952107431+953342738
1178+955020429+956795165+957669893+957792988+958394421+960150548+962568286
1168+964826976+966528683+967559018+967807807+967568357+967680217+968841091
1158+970946491+973425602+976240503+979671162+983111230+985434663+986825647
1148+988412193+990286359+991566115+991938631+991890671+991433540+989770244
1138+986859633+984503688+984981253+988758447+994282779+999770527+1003889340
1128+1005651787+1005491896+1005431507+1006827898+1008666533+1009344646
1120+1009416691+1010783801+1014073809+1017852477+1019764211+1018612466
1111+1015933932+1014988633+1017455735+1021377231+1023204841+1021960266
1103+1020350898+1021628407+1025879443+1030016232+1031709372+1031783946
1094+1032161939+1033667943+1036184410+1039376532+1042932252+1046444015
1085+1048730161+1048373445+1046351536+1045919684+1048202600+1049942225
1077+1047714783+1042817654+1039361295+1039571673+1042825869+1047162293
1068+1050140947+1050049802+1048021643+1047588457+1051180692+1057420494
1060+1062157803+1062387000+1059049523+1055871515+1055547170+1057094393
1051+1057535022+1056526174+1057348097+1062380189+1069447812+1073741823
1043+1072908384+1068972915+1065402379+1064253864+1065222195+1066233500
1034+1065864917+1064476039+1062387772+1059226828+1056089056+1055358981
1025+1057504196+1060317763+1061470210+1060414455+1058262640+1056685573
1017+1056214890+1055674970+1054353363+1053656712+1055179078+1058309898
1008+1061015397+1062044819+1061158785+1058440507+1055050716+1053109700
1000+1053263762+1053679253+1052364317+1049309123+1046037793+1044242133
991+1044356099+1045609453+1047179427+1047880150+1046468171+1043309895
983+1040623566+1040193189+1041262215+1041429689+1039466554+1036597654
974+1034853113+1034536632+1033794198+1030964621+1026760281+1023253644
965+1021299287+1020039824+1018551445+1016759717+1014860131+1012992284
957+1011345910+1009737245+1007430173+1003918200+999531077+995129841+991395200
947+988329755+985516328+982904994+980762026+978743277+976160733+973596938
937+972547573+973173513+974183273+974892212+975652904+976344147+976135173
927+974790675+973001614+971488799+970693981+970915525+971838985+972514359
917+972540762+972500666+972807808+973156941+973021416+971790955+969205883
907+966261075+964485638+963938766+963511689+962879009+962524609+962309596
897+961585138+960649038+960409589+960840879+961005123+960241342+958456987
887+955925984+953684428+953349409+955385221+957927529+958307138+955665609
877+951765391+949594124+950951192+954658166+957291057+956416750+952664415
867+948140855+944148648+941150263+939759911+940567158+942967060+945117260
857+946164167+947442519+950006525+952585066+953733862+954321251+955608871
847+956476718+954930337+951490269+948868964+948407480+948642365+948071056
837+947741164+949441958+952650792+955164942+955910465+955262337+953676984
827+951415766+948873247+946621018+945562454+946618349+949449331+952308892
817+953632676+953267743+952398492+952287053+952752260+952668698+952005402
807+951758649+952743552+955389154+959086577+961588439+960550450+956551011
797+952719256+950848320+950030751+949522851+950749661+954708302+959100621
787+960459936+958368580+955350392+953711954+954451790+956916434+958524749
777+957431286+955199139+954775433+956921912+959848673+961400320+960977035
767+959481353+957795305+955981809+954066002+953004208+953845933+956171683
757+958166838+958066424+956328133+955857801+958208689+960628604+959256720
747+954571444+950801202+951266479+956012635+962176389+966164734+966932306
737+966631414+967434097+969489360+971956042+973672284+973051049+969762445
727+966163399+964576081+964568848+965090511+966543569+968540761+968776980
717+966560141+964052171+962993677+963856538+966614632+969680428+970625798
707+969268379+967611051+966210728+963512883+958897054+953636467+949685761
697+948618771+949999854+951392945+950714200+948656479+948070916+949259667
687+949794391+948860819+947669891+946383043+943018671+936937777+931510980
677+930701977+934544897+939683161+943066000+942964391+938016494+930749235
667+929191409+934373209+937863063+933861096+925109953+918476569+916394482
657+916510274+916631333+915531340+911581406+904645515+898135929+895209589
647+894524033+892815093+889861087+887648952+886319832+884383521+881990009
637+880495520+879429163+876700000+872159868+868869930+870058962+876549940
627+886284160+894449951+896350450+891465609+883193084+875479509+870623950
617+869622476+870821549+869032208+860645435+849386041+843912688+848253747
607+857164148+862523745+862840928+861880251+861070406+859278958
##END=
