##TITLE=<SNM>
##JCAMP-DX=4.24
##DATA TYPE=INFRARED SPECTRUM
##DATE=3/5/2025
##SAMPLING PROCEDURE=Instrument type and / or accessory
##ORIGIN=Admin
##XUNITS=1/CM
##YUNITS=ABSORBANCE
##RESOLUTION=4
##FIRSTX=4497.3318
##LASTX=599.83466
##DELTAX=-1.4281778
##MAXY=1.7131085
##MINY=0.17715526
##XFACTOR=1
##YFACTOR=1.5954567e-09
##NPOINTS=2730
##FIRSTY=0.1985008
##XYDATA=(X++(Y..Y))
4497+124416289+125054026+125837238+126153417+125970218+125519678+125016751
4487+124789814+125197466+126197678+127263436+127847357+127722980+126955953
4477+125900310+125122075+125046956+125714439+126779908+127579858+127453108
4467+126355875+125057771+124518074+125087210+126307738+127377223+127726893
4457+127253630+126296978+125433360+124957406+124654640+124376297+124445635
4447+125063478+125710629+125546436+124196815+122106785+120338257+119833500
4437+120609315+121784554+122399661+122093522+121239673+120594007+120566110
4427+120794812+120648636+120036565+119424512+119110818+118806996+118109719
4417+117259746+117063667+117934776+119283594+120034248+119660640+118610535
4407+117696986+117219155+116922749+116708486+116831602+117272028+117477511
4397+117045212+116336082+116148774+116866393+118000621+118606743+118237449
4387+117417812+116953962+116868336+116416572+115192103+113662374+112393103
4377+111481702+111037336+111348994+112202973+112841579+112924179+112880329
4367+113154880+113663756+114081785+114251525+114238889+114245006+114498431
4357+115033907+115569747+115805809+115822592+115920090+116117850+116153023
4347+115896815+115479814+115160404+115179448+115473585+115589939+115244154
4337+114723229+114346688+113996410+113578998+113359654+113450782+113595548
4327+113729658+114104041+114660420+114960188+114883172+114743879+114654638
4317+114467152+114352367+114635800+115012126+114765043+113934712+113477018
4307+114031705+115200304+116241592+116928334+117487953+118078926+118533033
4297+118480871+117773329+116817471+116269798+116321606+116560208+116629434
4287+116667690+116910084+117191407+117139702+116681064+116103635+115783907
4277+116015038+116857016+117970865+118794369+119062616+119058245+119181193
4267+119397109+119390095+119165101+119093147+119368810+119875631+120484181
4257+121030416+121304370+121378032+121456524+121371158+120933526+120557059
4247+120649121+120806645+120568883+120414703+121045444+122160330+122796871
4237+122607433+122152755+122037577+122244060+122389107+122322804+122223420
4227+122223420+122243145+122170678+121986573+121787151+121798741+122163841
4217+122685158+123106194+123532450+124159334+124772675+124935299+124461522
4207+123556155+122798832+122881788+123901800+125059499+125451031+124995410
4197+124334118+124080105+124397787+125036663+125488184+125302417+124587011
4187+124075940+124382209+125294683+126047859+126146505+125740170+125373716
4177+125539926+126342014+127456069+128383832+128778988+128677941+128415606
4167+128231473+128114063+128027493+127963282+127842146+127708896+127822215
4157+128215670+128478341+128287353+127834721+127479652+127322828+127369685
4147+127765448+128497824+129141024+129316173+129145694+128889542+128543271
4137+128170018+128165553+128776326+129637992+130085600+129874475+129482691
4127+129604612+130344003+131041999+130954019+130021081+128926649+128432250
4117+128746672+129615138+130785716+132052308+133022427+133307672+132910275
4107+132183849+131595799+131624295+132456345+133562918+134032960+133641400
4097+133144862+133227136+133661705+133853749+133643100+133207018+132764090
4087+132660204+133159152+133974512+134475841+134360299+133824328+133247674
4077+132931589+132944618+133109558+133263140+133432535+133671306+133946109
4067+134244757+134541425+134664140+134454911+134036836+133757325+133875874
4057+134325537+134775899+134997307+135102585+135297720+135563548+135771199
4047+135914928+136041902+136127902+136113295+135951334+135687963+135547876
4037+135764782+136273845+136716502+136783674+136488790+136096437+135837016
4027+135758936+135838772+136066241+136362750+136608666+136839908+137278522
4017+138063275+138922999+139216958+138508557+137130795+135968015+135654629
4007+136140530+136962493+137790583+138665997+139657981+140389031+140307327
3997+139547426+138993224+139191283+139697012+139866033+139783302+139941797
3987+140423429+140851199+140881301+140466784+139868396+139539030+139809247
3977+140626176+141616825+142323386+142491315+142280311+142053112+141929286
3967+141819665+141792627+141989770+142297683+142458672+142386140+142201614
3957+142087679+142097579+142092788+142078927+142419567+143247563+143926824
3947+143760343+142989525+142431531+142462062+142818486+143171342+143526495
3937+144017691+144576067+144998971+145252760+145468135+145634662+145586516
3927+145343683+145157719+145123180+145005799+144623672+144148886+143902158
3917+144057403+144536747+145060147+145352228+145380350+145299795+145196852
3907+145128570+145335380+146042454+147029880+147803865+148113067+147990053
3897+147625261+147352195+147444210+147821405+148032166+147818809+147663386
3887+148148091+149111803+149919066+150409449+150774381+150706238+149992868
3878+149391958+149642366+150489136+151288114+151890191+152377670+152685536
3868+152969474+153361939+153421060+152733757+151767850+151215656+151194903
3858+151742773+153182756+155429003+157169689+157195149+156286933+155574152
3848+155301375+155223482+155048259+154864611+155323249+156938997+159185318
3838+160706371+160809463+160060322+159160624+158424764+158072562+158176233
3828+158459041+158689714+159206949+160474633+162100402+163100241+163489354
3818+163914181+164134730+163691783+163189828+163452144+164572615+166213216
3808+167814310+168763938+169105306+169356153+169557406+169505589+169639820
3798+170410143+171593004+172856634+174233555+175746800+177108610+178048095
3788+178684767+179440502+180701666+182659931+185360071+188636528+192053008
3778+195289529+198496219+201983195+205899089+210206804+214655326+219054776
3768+223759057+229273356+235495458+241942181+248481535+255353142+262682172
3758+270309308+278156208+286520082+295981619+306961706+318862654+330306982
3748+341203739+352895720+365360733+375699197+382754181+389292788+397631986
3738+408109763+420098560+432537646+444133726+454071665+462094695+468178792
3728+472669754+476136369+479035837+481709321+484222236+486400638+488609862
3718+491715814+496145768+501866325+508727303+515857527+521996580+527530903
3708+533770937+540959965+548738965+556789864+564434596+571061446+576606416
3698+580699018+582889264+583853013+585135136+587851994+591849443+595434710
3688+596683958+595980861+595441061+596707680+600124048+604586840+608058723
3678+608490892+605576592+602949359+604553815+608878155+611575549+610646842
3668+608605210+608592097+610767511+613208062+614294648+614546597+616032476
3658+620280342+626807368+633045497+636666330+637609570+637467008+638316775
3648+641296977+645296181+648280567+649701777+650830392+652967326+656179975
3638+659677524+662272554+663114476+663017118+663985463+667363463+672798523
3628+678086912+680984624+681460951+681689812+683499258+685927741+686667673
3618+686171695+686968114+689419163+691563120+692311645+692962737+694869689
3608+697100544+697518217+695658935+693683915+694336203+698308958+703883367
3598+709224208+713550005+715835404+715448738+714227548+714873709+717567665
3588+719614041+718658025+715377382+712110414+710539095+711042470+712840334
3578+714567365+715216290+714637002+713377257+712131260+711423233+711544051
3568+712391054+713660812+715558872+718371406+721162945+722200478+721051316
3558+719149968+717561688+715490804+712438575+710403332+711802650+716279004
3548+721038091+723671974+723975703+723427049+723486823+724205236+724480199
3538+723761113+722690404+721729456+720580518+719674563+720212308+721604827
3528+721103096+717834558+714810721+714827010+717003171+718869327+719848207
3518+721201051+723829704+726929603+728178738+726167779+722874136+721725720
3508+723323490+725204515+725509962+724614168+723486076+722448841+721541914
3498+721317611+722094528+722430236+720664501+717707537+716141971+717186753
3488+719560468+720703952+719043943+715902725+714719042+717488464+722384808
3478+725870401+726777702+726669435+726629386+726184964+725247179+724624778
3468+724858570+725969627+727633222+728721938+727454796+723490858+718824496
3458+715570528+714077514+713398552+712925288+713196514+714848080+717208421
3448+718865740+719728584+720819092+722050669+722310239+721854161+722605898
3438+725192186+727056997+725433973+721796254+720342317+722339827+725287825
3428+727358933+728705948+729344787+729379232+730036152+731997798+733518533
3418+732682215+730570909+729553848+729788911+729669960+728488220+726718898
3408+724602138+722179856+720204687+719794859+721449637+724487446+726892319
3398+726692971+724235273+721909975+721015227+720510657+719629582+719347298
3388+720081103+720235844+718700987+716827359+716638024+718386201+720735931
3378+722727091+724444633+725754738+725723356+724328820+723740864+726243617
3368+730812397+733450241+731897751+727891149+724105563+721742980+721293552
3358+723379229+727786095+732392458+734910678+735272911+734756685+733640099
3348+731248452+728105141+726499601+727874786+730983128+733764505+735883805
3338+738013566+739284295+737948935+734520800+731489940+730259783+730096300
3328+729484360+727684703+725568839+725146160+727231538+729879170+730699797
3318+730037423+729750954+730047584+729798923+728906566+728404685+728815858
3308+729568866+729888211+729939766+730331288+730452780+729018419+726235697
3298+723955230+723531430+724587718+725982926+727026587+727713245+728415669
3288+729431161+730606176+731403641+731312858+730281302+728800765+727399056
3278+726196097+725381596+725861659+728634891+733310369+737569293+738669366
3268+735903381+731020861+726116970+722432029+721270613+723726892+728371511
3258+731287529+730198963+727155476+725569960+726254003+727660345+728428446
3248+728469018+728457212+728745474+728910974+728649312+728635415+729997598
3238+733231242+737307780+739654597+738045321+733392185+729444386+728703707
3228+729906068+730092639+728056126+724975056+722371134+720421742+718625149
3218+717600167+718748807+721882778+724537507+724568142+722806815+721997395
3208+723480323+725700418+725997721+723522239+720001678+717575735+716886088
3198+717436685+718475787+719295444+719303364+718416910+717644550+718541838
3188+721372603+724274724+725112088+723647317+720906587+717745419+714984665
3178+713508536+713353571+713522434+712978637+711379821+709148593+707311129
3168+706940079+708216188+709948524+710459371+709205752+707047897+705004211
3158+703779509+704180147+706280618+708247494+707788352+704906630+701786631
3148+700392992+701250380+703478246+705028719+704033401+700740355+697265745
3138+695416401+695604092+697334934+699580060+700844139+700086200+697564767
3128+694053396+690256452+687545609+687432785+689827048+693134066+695928443
3118+697198499+695815619+691749616+686897879+683402274+682037625+682343894
3108+683352511+684251817+684698705+684291492+682418910+679313482+676164493
3098+673870427+672868832+673553025+675309346+676299434+675807939+675215276
3088+675536040+676003700+675770953+675099463+674430737+673714565+672878023
3078+672172237+672006662+672631080+673739820+674584955+674768911+674446428
3068+673616909+672036474+670023647+668417210+667529486+667011167+666776030
3058+667082673+667569460+667259306+665910198+664446249+663567864+662596531
3048+660322937+656851391+653985807+653478323+655100599+656784967+656809773
3038+655397977+653782201+652554136+651580860+650617446+649364650+647631417
3028+645842968+644737291+644326641+643827450+642848719+641949638+641625736
3018+641400685+640611663+639450621+638268283+636680153+634731956+633927393
3008+635359587+637775518+639165123+639350797+639309329+639094664+637915390
2998+635366760+631960891+629021561+627797680+628132417+628475522+627681344
2988+626284305+625614795+626109017+626807219+626444949+624834328+622870291
2978+621260194+619935407+618820988+618287464+618450387+618527272+617470311
2968+615185211+612671176+610986808+610521278+611172819+612518751+613691412
2958+613797101+612720490+611243203+610168497+609567428+608957506+607726602
2948+605540802+603039767+601692976+601996144+602391589+601155604+598737544
2938+596891113+596238452+595957699+595348859+594606574+594089376+593695575
2928+593171839+592453090+591512652+590331361+589030334+587714438+586334808
2918+584841980+583314147+581868317+580591499+579518773+578514862+577454502
2908+576646091+576529344+576811367+576577762+575504625+574319037+573768104
2898+573685504+573323009+572278265+570760444+569091282+567414648+565929852
2888+565026139+564987136+565626385+566208551+565858385+564257627+561944732
2878+559770551+558117117+556793563+555616717+554856462+554831207+555145471
2868+554865802+553647039+552173302+551263162+550998399+550800882+550062258
2858+548759849+547501934+546709550+545998534+544903729+543711716+542861612
2848+542112639+541022989+539680531+538346143+537003237+535747938+535000011
2838+534871122+534772009+533969650+532259953+530088238+528326351+527652731
2828+527751471+527534340+526517503+525323398+524494439+523750697+522768716
2818+521773547+521001113+520296074+519432596+518368350+517163523+515899220
2808+514711428+513734229+512950214+512224889+511449428+510524308+509328148
2798+507958268+506863986+506381682+506243902+505912191+505309516+504783091
2788+504364483+503573444+502119021+500405402+499031936+498024103+496936508
2778+495626776+494460616+493674060+493027301+492293757+491624807+491138019
2768+490533140+489437252+487880204+486195911+484612973+483144616+481815047
2758+480765222+480036647+479399489+478561303+477412888+475971466+474401604
2748+473116829+472355826+471690276+470504315+468835377+467211344+465883718
2738+464771354+463964250+463660036+463625554+463272960+462396443+461390627
2728+460546463+459631878+458418944+457099761+455943089+454993760+454210790
2718+453560520+452985453+452424507+451716741+450554018+448871855+447152295
2708+445939660+445180039+444400395+443430406+442558634+441956519+441330831
2698+440351540+439152839+438131295+437401263+436685540+435715514+434604084
2688+433716285+433148316+432541980+431614543+430605103+429835956+429101441
2678+427958331+426448243+425087704+424208086+423636344+422989324+422054266
2668+420912725+419849301+419125957+418757933+418481140+417944180+416994626
2658+415868477+415013330+414586466+414262452+413677858+412865748+412073364
2648+411375087+410680098+409988434+409430216+409038955+408638467+408028955
2638+407187220+406242747+405371648+404695375+404142462+403507098+402769407
2628+402131914+401620955+400944384+399894484+398697726+397855767+397646108
2618+397771186+397628138+396976299+396086594+395212021+394321905+393413297
2608+392646803+392068785+391532459+390954553+390394206+389878539+389402810
2598+389094636+389115594+389321592+389244819+388569331+387490516+386496767
2588+385882660+385511573+385008123+384197508+383334814+382808986+382679201
2578+382685477+382642851+382542206+382300605+381779447+381127533+380770792
2568+380910440+381238078+381268152+380844838+380232075+379770692+379543998
2558+379384475+379124344+378749409+378356393+378061257+377885595+377653969
2548+377155787+376493748+376046038+375988244+376121952+376275273+376571829
2538+377127058+377687891+377801163+377344114+376703781+376312856+376187442
2528+376102674+375992503+375908632+375794089+375565490+375288772+375104554
2518+375038877+374934197+374599610+374086858+373707926+373656184+373743977
2508+373645574+373281735+372869852+372663556+372691874+372759419+372671849
2498+372363339+371828806+371141550+370523297+370146195+369899775+369589284
2488+369253763+369025799+368843412+368607714+368447071+368508788+368656505
2478+368657252+368489137+368242717+367940744+367649830+367539621+367640565
2468+367711809+367505400+367063406+366654213+366474516+366477617+366443620
2458+366215245+365908901+365785168+365844868+365801233+365576929+365455811
2448+365553580+365574613+365303910+364915414+364614823+364362912+364066916
2438+363704123+363208893+362553093+361961028+361746363+361893146+362037427
2428+361901627+361554039+361207833+360935411+360667547+360402635+360279948
2418+360372113+360550091+360702740+360905636+361193973+361395711+361359100
2408+361145033+360924204+360848290+360965149+361139429+361215604+361279413
2398+361493181+361710386+361592892+361113539+360655817+360570227+360786648
2388+360855613+360242029+358579404+355731304+351649462+346231250+339436286
2378+331554772+323186919+314841370+306678095+298761277+291352374+284667002
2368+278554660+272904506+268207211+265134995+263804622+264097984+266366571
2358+271066631+277994948+286822653+298085752+311939828+325840267+335429385
2348+337856860+333797918+327102179+321773218+318569124+315875840+312784347
2338+309553822+306391888+303135716+299798307+296839213+294888813+294337226
2328+295046337+296345627+297579314+298816251+300699144+303531516+306948705
2318+310444311+313731733+316691910+319392479+322075303+324877563+327684157
2308+330350468+332845637+335085757+336905065+338331319+339615422+340825666
2298+341714026+342176343+342534691+343132696+343905915+344559847+345005240
2288+345447309+346097841+346876664+347427560+347461893+347052924+346522725
2278+346087455+345742520+345457097+345270228+345160728+345037033+344906239
2268+344842990+344780339+344579086+344304236+344198622+344377385+344713504
2258+345019848+345235671+345413836+345572200+345642884+345608252+345574703
2248+345618600+345670492+345663879+345697428+345929016+346358532+346798472
2238+347049188+347082774+347054269+347118862+347258398+347380039+347566124
2228+348009874+348641503+349098142+349200916+349161876+349204540+349322370
2218+349490000+349766755+350147032+350571057+351046973+351586250+352114133
2208+352558705+352928110+353252237+353527871+353756546+353994448+354320554
2198+354753732+355256135+355802287+356364315+356898362+357441898+358094933
2188+358818614+359407989+359720609+359823907+359939608+360288727+360904852
2178+361615943+362275217+362879349+363425425+363885651+364358429+365012024
2168+365859849+366764646+367668584+368721211+370159532+372092598+374454994
2158+377170133+380253407+383710272+387430330+391212629+394827895+398074690
2148+400857337+403243979+405476589+407896368+410738565+413951102+417250461
2138+420366424+423271198+426206082+429426016+432937798+436597373+440368912
2128+444282228+448226441+452003771+455511369+458674517+461260020+462944499
2118+463590137+463343680+462417514+460846755+458533598+455548279+452342766
2108+449547455+447516769+446194187+445388802+444905974+444409548+443502359
2098+441979047+439766349+436710309+432656859+427685311+422165633+416574412
2088+411199575+406075753+401251773+396893810+393030330+389506369+386295999
2078+383570362+381408398+379683459+378250816+377073186+376128004+375280403
2068+374341422+373266567+372198884+371293863+370616283+370189606+370013122
2058+370036210+370165024+370251659+370136071+369803538+369423784+369172022
2048+369138586+369426661+370151313+371276827+372608937+374061155+375852145
2038+378337153+381701890+385887516+390693862+395828369+400906240+405477037
2028+409079677+411393319+412380082+412168667+410855611+408548282+405465269
2018+401898084+398206194+394763414+391704273+388846535+386003441+383194008
2008+380486602+377891199+375498729+373492776+371906139+370505887+369014890
1998+367380659+365766974+364340347+363146839+362180624+361451451+360905935
1988+360371814+359725428+359072356+358620761+358397877+358216462+357892335
1978+357412048+356912484+356512817+356162427+355730072+355231665+354827329
1968+354616176+354566937+354574446+354481908+354183895+353792336+353552603
1958+353541246+353579277+353462792+353163995+352785436+352404748+352036239
1948+351726795+351583299+351650545+351831362+351969217+351962530+351783767
1938+351448470+351014807+350612600+350441010+350652537+351157145+351619724
1928+351785897+351735537+351669710+351602837+351470587+351355073+351331723
1918+351288574+351145563+351045367+351117694+351296270+351463862+351575416
1908+351601418+351499540+351282559+351043573+350885022+350825920+350816319
1898+350833130+350867799+350856181+350774589+350735324+350828423+350968482
1888+351026538+350997659+350945170+350912294+350925220+350991121+351097146
1878+351236346+351389555+351507796+351600596+351792397+352152089+352472854
1868+352432992+352066463+351740916+351671952+351778948+351865023+351772223
1858+351524869+351385670+351580198+351988457+352298686+352395483+352472816
1848+352822011+353493875+354114818+354225775+353932656+353762598+353969716
1838+354433864+354889756+355126425+355179961+355305150+355682476+356233671
1828+356745190+357054410+357116538+357069429+357157446+357473989+357912546
1818+358360144+358831652+359412435+360102343+360745777+361161994+361383981
1808+361695293+362341043+363283125+364320957+365384381+366540343+367712556
1798+368692258+369502313+370403187+371460746+372359304+372896041+373443013
1788+374456040+375931757+377536737+379047683+380562105+382235040+383985159
1778+385611844+387120400+388714135+390439223+392010243+393213800+394282641
1768+395525873+397021765+398765832+400755870+402874610+404891734+406676933
1758+408233533+409581520+410865997+412397005+414355401+416535111+418501015
1748+420088324+421492873+422944755+424587915+426458704+428394161+430173233
1738+431930563+434141916+437054310+440153313+442537900+444158234+445573953
1728+447152258+449025101+451171711+453488305+455987210+458863852+462239274
1718+465815612+468875724+471105197+473085596+475506534+478489611+481665499
1708+484688065+487539789+490407913+493579317+497444254+502178796+507160019
1698+511451782+514883280+517714904+520446145+523789550+528069582+532954569
1688+537910537+542920079+548307207+553782951+558603531+562848334+567050622
1678+571522456+576403893+581579981+586633381+591433040+596396816+601821304
1668+607366723+612693703+618052140+623651468+629101733+633974690+638536596
1658+643298970+648543873+654498597+661015722+666674563+670671003+674272036
1648+678393330+682937080+687323174+691155982+694416600+697214414+699694603
1638+701966627+703939256+705221715+705660534+705903592+706710172+708117859
1628+709325824+709590102+708962022+707649302+705834328+704231104+703272174
1618+702174343+699923539+697039948+694573433+692189929+689148609+685547800
1608+682157547+679615492+678001360+676945296+676065940+675305236+674735287
1598+674257466+673792272+673533150+673597407+673581717+672876080+671291760
1588+669155349+667038365+665511279+664834633+664832914+665249392+665993509
1578+666859565+667383263+667489064+667896277+669105438+670928930+672956776
1568+675074806+677543787+680588469+684304643+688910034+694895243+702550622
1558+710617474+717745046+725187329+734334976+744913921+755704168+765718244
1548+774430509+781755635+788100462+793924504+799151399+803038453+805079299
1538+806312818+807885183+809701577+811371674+812845560+814234119+815637397
1528+817306522+819523106+822304706+825533345+829155074+832983325+836723034
1518+840207731+843242476+845712503+847977429+850582247+853546832+856215608
1508+857826752+858560856+859972503+862772185+865969592+868431923+869651544
1498+869991212+870277008+870993479+872173575+873552570+874496108+874538025
1488+874348690+875017938+876447816+877739989+878555984+879380497+880693665
1478+882301222+883641140+884505552+885225011+886155325+887231936+888213432
1468+889042951+889894138+891240182+893622191+896743759+899174708+899230447
1458+896388549+892815461+891392756+892152713+893879893+895684108+896753995
1448+896795762+896501971+896582667+896866445+896921288+896900517+897332910
1438+898369099+899646627+900905998+902117326+902819226+902374356+901169080
1428+900549519+901083603+902159317+903079245+903363547+902425388+900364890
1418+898997552+899855538+901888838+903215456+903103229+901728269+899640948
1408+897953891+897644110+898246785+898426333+897814392+896958722+896098345
1398+895086290+893891624+892654668+891616985+890949604+890378684+889101604
1388+886291909+882332006+879404780+879568861+882620119+886563808+889747690
1378+892141953+894639850+897641943+900466731+902102756+902460505+902563542
1368+903766277+906570143+909824485+911827300+912465466+913210479+914837388
1358+916794476+918516651+919946977+921253795+922610225+923881626+924685218
1348+925176563+926089766+927598621+928950941+929575434+929895601+930712866
1338+932304508+934488664+937044467+939405779+940509588+939959888+938875132
1328+938641638+939429241+940526624+941409043+942060808+942724154+943478656
1318+944071842+944481147+945228103+946474847+947542417+947964648+948095853
1308+948292361+948531085+948858126+949232388+949162378+948403392+947636487
1298+947614669+948066340+948111469+947326482+945824800+943758550+941398956
1288+939216668+937216094+934740239+931539023+928452871+926455062+925539393
1278+924981997+924054897+922130311+918944934+915211651+912195062+910264798
1268+908561602+906468079+904504715+903150675+901641596+898771007+894650236
1258+890813617+888394100+886811274+884621739+881528340+878908503+877987754
1248+878303138+878620017+878606045+878645272+878695856+878443160+878149070
1238+878511751+879942750+882145884+884057020+884545900+883702932+882944992
1228+883372977+884536485+885225011+885301224+885936177+887773567+890041108
1218+892060511+894387079+897384092+900090601+901730810+903035311+905038201
1208+907631363+910046696+912043758+914018928+916225648+918491770+920702451
1198+922981648+925292450+927381565+929219777+931108871+933279802+935474418
1188+937131588+938287027+940030646+943437636+948155105+952521623+954958550
1178+955138396+954089729+953316697+953748791+955396098+957813374+960630690
1168+963385392+965141564+965186245+964370250+964748472+967351572+971033524
1158+973901648+975367989+976404177+978273322+981345725+984564352+986018438
1148+984669704+981591174+979323857+979906134+983200076+987040505+989551627
1138+991080357+992985964+995428719+997740343+1000210370+1003964425+1008927492
1128+1013078075+1014675023+1014444742+1014416723+1015479959+1016847373
1120+1017591116+1017907771+1018566858+1019753454+1020891409+1021347188
1111+1021174216+1021154864+1021901446+1023033274+1023653583+1023700057
1103+1024171827+1025748525+1027941124+1029837392+1030836371+1030606763
1094+1029564746+1029335287+1031166102+1034252851+1037133303+1039872240
1085+1043263241+1046704975+1048164964+1046358582+1042655933+1040113355
1077+1040376586+1042549759+1045339130+1048451657+1051150320+1052063972
1068+1051245810+1050017148+1049107830+1049056274+1051024570+1055089153
1060+1059158892+1061258990+1061764831+1061809437+1061602693+1061479707
1051+1062420107+1064910756+1068341731+1071658088+1073741823+1073540757
1043+1070993845+1067502349+1064937804+1064263848+1064980094+1065505586
1034+1064264296+1061329972+1059059666+1059867069+1063376423+1066798655
1025+1068056009+1067458340+1066761222+1067070330+1067286115+1065211870
1017+1060736861+1057555594+1059431089+1065141560+1069760849+1070525887
1008+1068735046+1066125222+1063278916+1061117773+1060365512+1060102281
1000+1059218666+1058256523+1058069055+1057942931+1056318189+1052488893
991+1047139385+1041803177+1037753985+1035388265+1034634659+1035090887
983+1035624000+1034999433+1033190959+1031118207+1029333419+1027597870
974+1024949118+1020287688+1013926274+1007631583+1002459381+998099886+994718225
964+993265260+993369043+992821584+989927010+984997043+979216039+973843443
954+970286718+968933650+968270229+966647280+964267214+962192595+960579583
944+959164574+958199068+957701820+956790933+954724309+951973791+949687496
934+948789983+949811303+952613676+955952523+958073243+958000617+956012447
924+953321255+951389795+950807817+950889334+950815064+950426755+949650286
914+948372160+946947812+945720419+944429517+943040286+942255597+942351311
904+942615290+942544756+942534296+942968855+943678527+944189448+943672026
894+941631179+939129248+938123245+939034804+939950996+939303640+937932789
884+937340201+937620842+937964694+937965740+937748759+937483211+937192558
874+936759343+936062299+934978141+933150241+930613267+928708556+929090589
864+931486048+933629034+933852142+932449984+930332327+928195617+927123937
854+927913781+929666740+930705319+930771445+931108348+932641785+934852690
844+936556932+937159607+936375517+933511652+928827358+924690597+923130486
834+923524399+924441562+925977315+928458849+931069719+933187451+934719991
824+934700639+932391704+929648882+929655532+933334570+938213579+941166658
814+941773592+941815583+942236918+942457784+942180805+941790104+941154703
804+940050969+939301847+939775334+940700716+940643258+939656981+938806093
794+938374596+938220677+938833365+940662536+943457959+946767816+949937801
784+951675890+951067536+948737755+945852745+943091169+941177567+941138713
774+943473799+947228975+949910902+949194730+945453452+941417710+938879989
764+937127030+935061527+933565748+934647664+938588813+942888085+945117221
754+945903777+947425484+949670609+950293682+948114682+944754017+942724901
744+942973562+944220381+944667643+944161877+943995480+945123572+947491310
734+950164644+951556790+950912198+949315998+947684605+945297217+941732347
724+938419353+936871719+936997096+938139310+940144740+942682461+944921012
714+946473427+947520077+948058793+948123574+948308127+949108880+949656936
704+947629090+941951047+935361071+931477306+929777770+926373769+919883990
694+913149958+908667477+906125945+904635695+904034514+903778306+902746675
684+900631409+898465111+897255427+896360829+894340679+891250941+888452305
674+886061255+881357161+870967178+856200067+847086940+853615124+868364452
664+878274521+880530406+878280648+874783772+872403183+872248367+872729551
654+871307817+868244754+865871039+865049589+864836120+864377576+862825833
644+859340239+854778707+851731260+851595497+852893722+853661001+853818880
634+854054391+854173043+853625062+851855815+848103777+843110748+839419381
624+837406255+834216769+828013384+820861603+816856272+818667361+825676355
614+833405556+836507771+835261401+834686072+837106412+840064571+840486429
604+838783008+837863529+839100485+840507499
##END=
