##TITLE=<SNM>
##JCAMP-DX=4.24
##DATA TYPE=INFRARED SPECTRUM
##DATE=2/5/2025
##SAMPLING PROCEDURE=Instrument type and / or accessory
##ORIGIN=Admin
##XUNITS=1/CM
##YUNITS=ABSORBANCE
##RESOLUTION=4
##FIRSTX=4497.3318
##LASTX=599.83466
##DELTAX=-1.4281778
##MAXY=1.8524985
##MINY=0.37374929
##XFACTOR=1
##YFACTOR=1.7252737e-09
##NPOINTS=2730
##FIRSTY=0.39560446
##XYDATA=(X++(Y..Y))
4497+229299537+230348844+231732869+232923356+233416096+233072258+232105607
4487+231037471+230558585+231061724+232238824+233289271+233547275+233010970
4477+232312117+232016974+232031087+231974290+231879300+231989215+232226663
4467+232345197+232200303+231619966+230584340+229587131+229181159+229396979
4457+230031176+230794893+230881418+229556125+227483058+226215909+226319138
4447+227098212+227901244+228538809+228803481+228619064+228358227+228427910
4437+228916798+229775573+230756147+231238264+230828750+230028775+229532857
4427+229088864+227980894+226413869+225361660+225176258+225342641+225531290
4417+226005961+226952419+228088269+228975996+229297430+228873734+227784886
4407+226491187+225589883+225346096+225538649+225777945+225791091+225354802
4397+224341390+223167261+222766609+223514641+224409830+224166439+223067867
4387+222649906+223599370+225043007+225853415+225752708+225067847+224102042
4377+223040988+222280139+222350358+223091964+223492426+223089580+222786457
4367+223413847+224374642+224517256+223561816+222101354+220884195+220394168
4357+220570293+220825948+220688913+220369103+220453711+221099187+221741554
4347+221782632+221417495+221367538+221834488+222258720+222166390+221656532
4337+220974383+220252089+219695436+219463222+219418050+219412246+219628050
4327+220314742+221311847+221935575+221497715+220212912+219183418+218960463
4317+218863487+218339394+217936773+218245320+218929922+219380427+219474415
4307+219394575+219310209+219318794+219335791+219107136+218548703+217972478
4297+217783691+218019135+218361902+218588502+218845660+219443702+220469275
4287+221588490+222185616+221869675+220822406+219559178+218620476+218450466
4277+219099173+219972614+220303410+219996745+219629483+219533734+219387130
4267+218827764+218001688+217286995+216916711+217047457+217739850+218696257
4257+219376714+219556760+219520640+219631850+219989577+220556042+221233112
4247+221699872+221632573+221273689+221238208+221575033+221639292+221035032
4237+220100769+219421056+219287718+219615094+220174892+220872207+221659244
4227+222285252+222465264+222146732+221389822+220363817+219562253+219414440
4217+219679630+219865480+220041088+220570535+221272670+221508701+221032700
4207+220311857+219977588+220201096+220690243+221109932+221343648+221431003
4197+221380632+221060010+220392129+219763720+219860177+220763260+221625611
4187+221631795+220859027+219852801+218935761+218300718+218253854+218961931
4177+220113414+221054292+221334148+221127050+221038763+221430174+221999299
4167+222142207+221676155+220987407+220451932+220081267+219882996+220140672
4157+221040663+222305031+223402878+223900075+223549361+222448440+221293364
4147+220938453+221417719+221827285+221461146+220634725+220042349+219868918
4137+219971024+220316625+220735898+220803595+220460137+220262246+220623825
4127+221249350+221613036+221533645+221018501+220047427+218847284+217941886
4117+217660804+217995383+218901230+220148964+220997685+220698414+219324840
4107+217688770+216631880+216673614+217861769+219539158+220605653+220482818
4097+219694244+219187944+219220350+219304301+219177337+219192038+219563842
4087+219915506+219945010+219910185+220011152+219916335+219376385+218816726
4077+218842412+219479701+220297312+221016756+221591202+221800493+221222903
4067+219810567+218214504+217217450+216987655+217162191+217494266+218004055
4057+218545110+218719629+218366670+217793071+217455503+217607030+218145667
4047+218676030+218848717+218702856+218525902+218423536+218303413+218141884
4037+217955619+217722627+217546381+217594748+217800654+218025026+218462869
4027+219407876+220701696+221808491+222327954+222190781+221596937+220941787
4017+220520371+220204240+219659488+218859980+218151609+217886177+218121984
4007+218571747+218879776+219097877+219674085+220784421+221924261+222377012
3997+221941518+221067265+220371832+220081146+219933747+219624630+219254155
3987+219262083+219955806+221097063+221922603+221753301+220747023+219886555
3977+220106072+221472529+223136945+224053761+223832568+222887008+221885930
3967+221323783+221503070+222451273+223684841+224447919+224423562+223948805
3957+223436562+222949454+222515048+222558164+223606815+225411996+226783808
3947+226987555+226844509+227420561+228201189+227793230+226211003+224906283
3937+224863582+226066662+228168576+230500648+231832557+231547260+230826314
3927+231239887+232582213+233137554+232141312+230945280+231144552+232561139
3917+233397630+232141174+229311853+226936735+226434390+227609504+229833752
3907+233571441+239677098+247140920+252714193+253950042+251137926+245719722
3897+239526745+235137896+234536089+237055307+239128027+238220660+236880460
3887+238523559+241904835+243181312+242417198+242333903+242230242+240028675
3878+237657063+238371255+242080511+246631787+250761958+253375302+253200611
3868+251700850+251486722+251996011+250421091+246345471+242534868+241553517
3858+244671814+252574930+263744036+270190975+264468662+252981732+244048189
3848+240079149+240614556+244210754+249335388+255121666+260970061+265134711
3838+265186827+261391667+256881607+253642963+251458721+249754834+248632614
3828+248237523+248872584+252014908+258705807+265675870+266841310+262833163
3818+259446359+257322577+253358288+248054385+244827435+245621450+250221767
3808+256130414+260033709+262438677+266330951+270654746+271216875+268468432
3798+265981930+263953552+261057623+258245991+257424770+258972223+262183558
3788+266488282+271402692+276286871+281283228+287569381+295356002+302697162
3778+308160710+313425367+321049232+331842111+344839494+357798182+368191894
3768+375162597+379285547+381282625+382817866+385738169+389294292+390694278
3758+389640289+389762520+394607799+404878313+417556334+426577318+430028899
3748+433444999+441224434+451364045+457646864+459679561+463569106+472977268
3738+487650295+504476176+518584240+526801916+530318723+532976875+538419972
3728+548315572+560793733+571124464+576644741+579111152+581013292+582937405
3718+584356773+585307877+587147140+590817306+593673867+590686023+581496618
3708+571067909+564321976+563188596+565569191+566986209+565453870+563204488
3698+562654139+564354658+568456500+575543352+585504317+595349373+599186543
3688+594996846+587996259+583084579+581556041+582950395+586381765+591504119
3678+597817547+601589421+598394290+592183884+589964248+590973670+588360049
3668+580224425+571911812+567294273+565932669+565609888+565468103+566279358
3658+568109466+569855138+571927324+577167105+587281117+598497864+601149695
3648+591247497+577175846+566673377+560982710+557945636+554817735+550706323
3638+547752578+548725690+553867736+561499340+570713966+580510482+585862372
3628+581638679+572507798+565899538+564509225+567945605+573683361+578008555
3618+579632550+580447466+581334588+581190454+580339193+581344607+584622861
3608+586464888+584058278+579655904+577513794+579575511+584490749+589518096
3598+593008681+594877103+595831386+597029715+599672909+604044812+608868464
3588+611657726+610766942+607063611+602369652+598249810+596150816+596805361
3578+599521313+602776143+605232363+606201640+606326427+607651824+611569629
3568+616303525+617658979+613980453+607930487+602301316+597974187+595528469
3558+595890946+598704254+601725885+603175724+603790332+605266220+607259981
3548+607176513+603335405+597761786+594098669+593469896+593956538+593107005
3538+590316775+587234892+586134955+588012566+592139179+596489455+598443901
3528+596778759+593033141+589203710+585298480+580809391+576667646+574129444
3518+573399929+573937875+574844448+575231212+575040127+574922664+575177524
3508+575453977+575126635+573532490+570588073+567297451+564922350+563830808
3498+563548931+563596469+563864699+564294925+564520592+563963506+562382178
3488+560337493+558892698+558642019+559092075+559073902+557847623+555715843
3478+553414536+551237809+549091311+547076994+545508103+544500547+544073811
3468+544374896+545238318+545924509+545861770+545118160+543974934+542780198
3458+542002420+541791125+541658564+541012138+539613050+537567398+535577679
3448+534708245+535120506+535654721+535191536+533683968+531777820+530328914
3438+530172205+531229683+531862325+530478472+527731566+525945818+526263486
3428+527133610+526220198+523510119+521368113+521480532+523000226+524094014
3418+524250896+523958448+523233252+521865879+520326389+519213323+518080186
3408+515949476+513215733+511849915+513055707+515524018+516880785+516380600
3398+514994675+513563285+512183475+510821457+509410450+507705993+505770687
3388+504277525+503892178+504533698+505354004+505384372+504316875+502845755
3378+502156109+502721901+503603495+503458152+502351063+501848598+502967226
3368+504832745+505934479+505900346+505308401+504500256+503511287+502602020
3358+502011561+501589592+501120362+500632476+500370327+500695561+501690300
3348+502853114+503525831+503430963+502651147+501630601+501156258+501619753
3338+502434220+502621746+501723569+500045127+498455404+497889198+498586651
3328+499779833+500292214+499517960+497832953+496132746+495058789+494565133
3318+494119258+493374646+492622710+492341248+492440193+492476020+492348745
3308+492084522+491452572+490650576+490614128+491751411+493085583+493290867
3298+492061064+490189465+488752858+488391694+489106007+490425669+491671329
3288+492365259+492687799+493171124+493793609+494038899+493994471+494427080
3278+495420057+495895643+495017193+493411992+492371201+492291154+492484726
3268+492191206+491247253+489868756+488334793+487033200+486351431+486191647
3258+485871491+484948059+483913314+483564380+483949900+484425591+484446838
3248+483940399+483214893+482770157+482863540+483023428+482462957+481218437
3238+480193710+479819349+479495358+478728532+477926468+477509647+477114833
3228+476232306+474919622+473502293+472177760+471162396+470748858+470975699
3218+471419537+471542493+471263345+470896930+470471161+469560236+467997875
3208+466301847+465199664+464921554+464958658+464534237+463485569+462452654
3198+461982250+461874737+461652662+461227516+460809693+460343883+459264433
3188+457089882+454399185+452718463+452986347+454444443+455407190+454961073
3178+453593976+452234412+451077298+449675308+447902342+446197471+444908384
3168+444006095+443374006+442876585+442332420+441746280+441281403+440819325
3158+439932341+438503922+437033562+436082492+435556499+434774058+433393384
3148+431940332+431026850+430512777+430000224+429675266+429889740+430231108
3138+429855295+428649814+427351261+426514303+425904981+424937949+423387542
3128+421622350+420302964+419844616+420076675+420423743+420371783+419722489
3118+418595639+417335227+416285730+415601024+415278830+415182822+414949761
3108+414162276+412813559+411482358+410917326+411426563+412621852+413703237
3098+414003735+413319271+411894411+410286688+409030076+408238272+407714974
3088+407394922+407369979+407589047+407833128+407845635+407364278+406313537
3078+405040411+404071307+403633792+403592887+403691729+403645262+403229098
3068+402473742+401588174+400717739+400010232+399633556+399376139+398668252
3058+397360958+396044889+395303076+395031909+394668879+393792778+392490805
3048+391306916+390692308+390486955+390170358+389566702+388988093+388689323
3038+388504111+388118625+387471128+386715530+385952712+385192346+384457546
3028+383790805+383302056+383187564+383404801+383399446+382570952+381023930
3018+379498604+378547845+378098688+377831425+377612564+377385134+376970248
3008+376289585+375568189+375025200+374529955+373772664+372645469+371368646
2998+370340672+369847328+369812607+369822764+369423874+368465790+367280520
2988+366451404+366219587+366230297+366042425+365647853+365255803+364878056
2978+364423544+363941393+363518802+363127651+362705648+362204288+361515920
2968+360574351+359554876+358774334+358382699+358282441+358263198+358102999
2958+357673706+357060273+356486225+356115767+356008703+356116803+356165620
2948+355727897+354639706+353256062+352130559+351492528+351180214+351003744
2938+350897785+350719932+350260825+349571213+348984037+348666714+348397067
2928+347878468+347083244+346228459+345523750+344942792+344233108+343211353
2918+342040213+341145732+340827511+340972440+341189401+341209300+341048583
2908+340800322+340480062+340090742+339620199+339006006+338293662+337689142
2898+337254322+336749058+335995878+335213402+334761792+334668927+334620283
2888+334407986+334185152+334159207+334178968+333863442+333110815+332219236
2878+331505303+331057597+330845783+330786395+330689696+330396176+329986611
2868+329680101+329534136+329355731+328909060+328185178+327437353+326893258
2858+326524666+326224133+326035501+325991107+325900972+325543021+324950731
2848+324357474+323901786+323487626+322949576+322276410+321642282+321252927
2838+321167144+321220832+321139230+320800936+320362523+320043162+319839744
2828+319527016+318914481+318095660+317422148+317154747+317166252+317072800
2818+316621914+315926637+315383682+315308506+315542706+315529612+314907991
2808+313892040+312972236+312434117+312242549+312165507+311924190+311419790
2798+310869165+310537747+310351360+309981836+309303660+308568376+308127994
2788+308101910+308276170+308277517+307887298+307186942+306400182+305679823
2778+305071849+304559537+304072999+303539440+302999422+302584915+302297131
2768+301925879+301298039+300488201+299693841+299015492+298395909+297707611
2758+296945898+296307106+295916611+295615008+295242201+294910506+294759359
2748+294687948+294508403+294153423+293661011+293098951+292505141+291853498
2738+291140152+290489510+290083987+289963622+289938816+289775405+289435816
2728+289013744+288519501+287944070+287404639+286995039+286650302+286301212
2718+285953453+285565981+285065208+284460239+283810462+283201606+282838110
2708+282947040+283434667+283790562+283558072+282855989+282188091+281756518
2698+281277390+280529876+279770167+279412561+279461481+279481657+279145385
2688+278599873+278147088+277795994+277378120+276909270+276565483+276404784
2678+276305147+276135120+275883524+275609594+275335387+275069558+274879354
2668+274797268+274696423+274403370+273923274+273446720+273115993+272852047
2658+272492783+272058135+271713070+271485987+271243512+270937262+270643812
2648+270385013+270123727+269905211+269822296+269861595+269901774+269833697
2638+269608255+269233928+268823239+268555752+268455424+268275119+267776229
2628+267076426+266551160+266406559+266486399+266501652+266337550+266106908
2618+265979063+266000154+266052132+265982155+265777597+265568824+265454021
2608+265397189+265313652+265186723+265073648+265002462+264874704+264556414
2598+264099448+263734691+263572868+263463973+263238790+262953718+262792897
2588+262813021+262886280+262885382+262844840+262887126+263023314+263104260
2578+262994830+262744012+262524909+262430610+262422059+262463534+262573086
2568+262721763+262830831+262906594+263042989+263255632+263437095+263522670
2558+263600092+263779292+264004320+264068044+263820059+263325298+262797630
2548+262409916+262188515+262043051+261863851+261636491+261471784+261444577
2538+261408941+261108961+260507655+259874736+259498112+259408737+259418375
2528+259343303+259162807+259007238+259003921+259099947+259067489+258768874
2518+258380538+258205708+258275962+258332171+258221825+258084842+258081768
2508+258167947+258231654+258254663+258239652+258143332+257967310+257792947
2498+257687248+257663081+257694053+257682756+257513109+257224392+257013856
2488+256997446+257079428+257076889+256880208+256517195+256127218+255841766
2478+255693970+255669182+255733009+255763169+255616513+255317726+255019231
2468+254767653+254485638+254171546+253939937+253857453+253865382+253860131
2458+253768475+253565126+253282403+252986863+252708061+252430969+252173121
2448+251995181+251908501+251854969+251795114+251730510+251635227+251452537
2438+251176810+250888542+250700964+250668696+250717858+250704419+250594971
2428+250522938+250588286+250683863+250649868+250543408+250580029+250797508
2418+250962215+250881874+250650990+250499757+250535186+250684519+250777643
2408+250685124+250464000+250301158+250273174+250317620+250449887+250775968
2398+251278502+251842445+252549866+253772828+255959281+259511586+264938306
2388+272978509+284432705+299863505+319434082+342898971+369681532+399020641
2378+430036603+461585605+492250353+520929423+547460545+572092186+594203832
2368+612172697+624818278+632390149+635609810+634354752+628508274+619139358
2358+606903999+590605112+568852039+542398927+515421377+494230571+483646638
2348+485466485+498793075+518953005+537386781+547707770+550805579+551077748
2338+551304452+551787605+552149252+552470617+552714422+552230025+550293717
2328+546766580+542082191+536555558+529853189+521626428+512331444+502605682
2318+492467590+482009032+471978557+462761271+453452917+442787728+430632520
2308+417898566+405365369+393247266+381673777+370969306+361308425+352403833
2298+343785782+335316632+327249205+319827514+313024058+306659879+300610397
2288+294865974+289513808+284713493+280629910+277317747+274656399+272427677
2278+270473646+268762711+267311110+266066366+264882391+263638734+262367664
2268+261179197+260096120+259101485+258278795+257706888+257278943+256795237
2258+256167397+255444966+254751727+254221520+253872430+253555591+253116746
2248+252555894+251986873+251517332+251174910+250886175+250543719+250115273
2238+249661831+249284067+249073117+249040573+249082393+249080476+249014610
2228+248910707+248758765+248566523+248413545+248365040+248378997+248357059
2218+248270845+248198104+248224084+248336210+248440061+248460755+248405634
2208+248353052+248384629+248493178+248575022+248556366+248485232+248449406
2198+248460651+248482866+248524150+248627069+248792968+248962806+249063392
2188+249058693+248988457+248955861+249024284+249142921+249234974+249308613
2178+249389835+249421015+249336701+249176467+249037118+248963704+248919897
2168+248819777+248613854+248382521+248269567+248288741+248303579+248235088
2158+248159946+248148131+248122289+247958082+247658396+247366985+247231833
2148+247272911+247382307+247477054+247649656+248112235+248987127+250208380
2138+251624672+253138269+254727491+256399041+258195707+260230062+262615614
2128+265371624+268485378+272003636+275932634+280123731+284380019+288584952
2118+292644369+296409541+299701787+302349851+304209809+305180675+305191350
2108+304220277+302363636+299824052+296812232+293480671+289931872+286285545
2098+282714567+279345020+276153085+273056277+270059623+267240028+264668211
2088+262405649+260514599+259024529+257894276+257011404+256260625+255601105
2078+255050946+254623657+254311482+254076228+253846571+253603733+253459772
2068+253546729+253810071+254000585+253934772+253710573+253562811+253568011
2058+253620558+253634395+253620645+253627934+253714805+253914060+254173135
2048+254405228+254611583+254885324+255264798+255616237+255745792+255659076
2038+255580273+255659405+255819569+255943440+256053096+256256307+256601786
2028+256998828+257283866+257413455+257551319+257922450+258623790+259529050
2018+260280726+260497256+260152916+259639275+259352458+259368402+259540554
2008+259710962+259770661+259697506+259617078+259705659+259973440+260224465
1998+260322236+260483851+261131348+262293196+263331188+263575079+263082944
1988+262404060+261902199+261663525+261672576+261776220+261770969+261685877
1978+261747632+262051239+262450700+262748296+262934889+263276844+264037763
1968+265014312+265608450+265556214+265244764+265108455+265142519+265191906
1958+265309455+265586650+265924892+266189805+266417995+266753265+267294821
1948+268128998+269454309+271359144+273222936+273796604+272593628+270702198
1938+269505077+269334376+269689183+270077657+270362764+270615171+270870377
1928+271168750+271824522+273127100+274646933+275675857+276402849+277368153
1918+277956832+277087036+275234524+274027091+274257007+275333918+276147989
1908+276120281+275565113+275122243+275036754+275141504+275293826+275616261
1898+276355674+277445868+278375450+278974856+279885954+281364312+282320824
1888+281752562+280335233+279298760+278915227+278861073+278971471+279186497
1878+279415498+279656332+280066744+281170948+283866481+288379772+292843780
1868+294121569+291532305+287770450+285351421+284638645+284811436+285170769
1858+285465411+285716972+286030115+286445087+287047828+288109037+289952290
1848+292907831+297044532+300998682+301888705+298911399+295045243+293045954
1838+293017383+293612920+294181994+295660680+299135719+303642739+306396140
1828+306382010+305383886+304410428+302700824+300275870+298501902+298088536
1818+298410765+298740836+299337168+300955946+303471796+305500070+305864136
1808+305056578+304584170+305572586+308251157+311807176+314567660+315306467
1798+314711690+314897662+317536571+322212945+325648737+324519953+320323691
1788+317271485+317167668+318914965+320959684+322888495+324533910+325387417
1778+325870777+327741202+332455613+339268915+344555648+344983282+341634067
1768+337450761+334218698+333326221+335429154+338821761+340704348+340964424
1758+341377203+342169456+343111648+345739744+351495879+358689001+363144303
1748+363127478+360986508+359504263+359823728+361746148+364065558+365415829
1738+366616923+370563541+377917173+383523301+381943493+376181553+370865594
1728+367144263+365286378+365396033+366799751+369468406+375037706+384584648
1718+395119903+399678883+395787231+388597252+382922443+380490303+381703696
1708+386205672+392128846+396965695+401058693+407359822+416071982+422155182
1698+422383648+418803894+412641786+405749853+401946851+402668212+406445303
1688+412313650+421513385+433357247+440069462+436066772+428153119+423462303
1678+423862956+428169391+433180949+436592972+439931581+444611375+447472877
1668+445132600+441080231+440667037+444338239+448140930+448929971+448588533
1658+451176139+459461114+474266217+490913071+496798381+492452769+491103914
1648+495754826+500086792+498108266+493223084+491226801+493867680+501207492
1638+512955552+526190417+533727118+532702288+530130886+532137948+539418338
1628+549637721+560569482+571989234+583634513+593483232+601134010+609788199
1618+621900429+634623535+642304578+645516499+649014823+654608272+660953968
1608+666093595+669480468+672210584+675501689+679283306+682672942+685476300
1598+688412874+691994943+695822439+699141736+701948410+705136148+709375940
1588+714251345+718703261+722083085+724597346+726968371+730156316+735339266
1578+742989008+750709228+754308156+755108424+758904551+767895928+778662861
1568+786448653+791784996+798149970+807263991+820561699+840862964+866586528
1558+882469527+881231052+875901342+872818630+870867985+869031140+867482287
1548+867280527+870221385+876830958+885072645+891555772+891358089+880238283
1538+864973001+855828025+853740431+853359022+849633787+843823031+840298175
1528+840194807+841954126+844864721+849631852+854979873+857139050+855188680
1518+851639433+847451256+842825494+839653648+840094273+845248341+855199736
1508+866599034+868810655+856081054+840715583+832352979+831256082+834801460
1498+839142201+839927752+836467845+833106884+833486704+836768343+838621840
1488+835837829+829989140+824710492+822199202+822429775+823841404+825252894
1478+827111988+830569752+835916184+841076885+841570161+836076901+829769622
1468+827256053+828142069+828874002+827279338+825721157+827990265+835328385
1458+844295233+846637514+839685087+830710570+825002905+823308260+824163045
1448+824525038+822046500+817751225+814202046+812585755+813274918+816785679
1438+822112211+825163001+823083975+819272992+817709698+817799592+816758939
1428+814264440+812656164+812998258+814271902+816103012+819237960+822332074
1418+821585838+816538039+810953504+807164148+804773984+802953653+802117938
1408+803232178+805712927+807113777+806167924+804879147+805556011+807878254
1398+810058919+811132600+810700129+808330555+805015681+802935273+802923527
1388+803548637+802905838+801292174+800881744+802956831+807004744+812017995
1378+817672317+823955136+829969655+833940940+835204082+835101751+834925902
1368+834884790+835513977+837870215+841533263+844149855+844213147+842795852
1358+841367364+840080523+838683957+837534133+837186166+837601017+838230204
1348+838659843+838973330+839752525+841833485+845575925+849977401+852885853
1338+852911004+850964781+849162069+848812790+849825666+851375970+852865332
1328+854355315+856222216+858687073+861726186+865092468+868280828+870769938
1318+872592548+874511203+877440729+881777532+887067028+892096724+895756801
1308+898205006+900671798+903840811+907257532+910528186+914011516+917766324
1298+920750920+921855141+921153196+919591007+918061708+917084693+916648974
1288+916036854+914307522+911378341+908404800+906648176+906020095+905349243
1278+904031032+902673574+902099802+902401889+902981673+903069839+902525225
1268+902297624+903519930+906130026+908827805+910412588+910924658+911329352
1258+912277900+913687249+915599615+918453482+921988012+925020423+926868668
1248+928017663+928989566+929515455+929197130+928102789+926277415+923526224
1238+920321005+918020665+917391548+917652384+917664683+917276503+916838228
1228+916396498+915972111+915896036+916389174+917003643+916913542+916109681
1218+915688956+916316001+917310360+917859119+918151602+918790808+919959496
1208+921362349+922352216+922429811+922075764+922415439+923829003+925710967
1198+927597560+929777121+932534737+935318402+937307811+938655042+940226420
1188+942334604+944721245+947226868+949490242+950824898+951240786+951658125
1178+952731805+954456922+956746828+959344419+961597151+963148768+964267430
1168+965030663+965173346+965356174+967067955+970463257+973835896+975767540
1158+976413033+976438461+976434660+977361858+979707110+982231389+983227199
1148+983106558+984151564+987383592+990872243+991876689+989955893+987037975
1138+985389762+986513813+990441154+995293687+998862351+1000579453+1000956509
1128+1000465099+1000335613+1002524847+1007326181+1012056415+1013303872
1120+1010526356+1006780047+1005822655+1009000650+1014475600+1019133698
1111+1021854279+1024255360+1027622816+1030274301+1029969036+1027519794
1103+1025284128+1024078267+1023607103+1024172790+1026125440+1028811335
1094+1031504139+1034018952+1035743171+1035907964+1034963769+1034100140
1085+1033964988+1035175341+1038511151+1043172082+1046814609+1048278820
1077+1047856713+1045499853+1041806195+1038696259+1036499701+1033409250
1068+1030079036+1030941353+1038830029+1050952692+1061164923+1065732091
1060+1065867036+1064632292+1063423875+1062149540+1061463487+1063098226
1051+1066813718+1068654709+1065496198+1060006946+1057670400+1060895311
1043+1067311208+1072384366+1073741823+1072685693+1071047913+1068521146
1034+1064834674+1062614555+1064673681+1069685895+1073172888+1072471012
1025+1068397257+1062515264+1057082670+1055268213+1057813152+1061325157
1017+1062253529+1060871128+1058940382+1057283947+1056687373+1057386830
1008+1057521636+1055258332+1051893778+1050205489+1050759362+1051708393
1000+1051611936+1050757289+1049887510+1048990162+1047931820+1047683559
991+1049190471+1051584850+1053103923+1052572645+1049920469+1046515148
983+1044206862+1043836024+1044560080+1044557247+1042636313+1038994131
974+1034624301+1030732200+1028231206+1027065420+1026286157+1025048166
965+1023152106+1020795177+1018383247+1016382784+1014676530+1012432158
957+1009763676+1008076907+1007729010+1007241538+1005335460+1002363162+999191938
947+995718212+991117671+985804682+981797882+980673623+982201955+984841417
937+986726214+986590441+984553356+981516731+978408246+976434799+976329082
927+977010436+976578173+974777465+973006883+972429518+973232896+974581025
917+974879105+973659425+972883271+974562093+977593122+978352554+974696761
907+968479722+963431577+961416811+961279656+960939359+960074693+959774886
897+960106270+959783799+958394558+957577983+958719170+960680871+961583816
887+961571862+961523150+960868190+959318438+958455362+959261020+960085403
877+958933989+956091592+952789708+949556228+946769868+944897232+944378944
867+945998827+949933077+954236299+956275180+955779002+954360119+952905789
857+951358180+949865363+948909491+948828994+949583521+950504846+950392979
847+948642435+946062534+944106568+943877446+945888896+949563622+953130489
837+955279094+956270205+956271380+954352104+950736939+947488811+945872866
827+945372611+945245751+945336129+945511149+945640703+946005944+947083356
817+949164317+951998491+954789135+957292962+960257175+964036374+967788210
807+970451303+971390524+970300744+967579817+964782609+963726410+964387381
797+964430980+962083172+958954856+958140147+960206251+962939338+964522809
787+965184954+965331714+963655655+959168086+954035299+952025784+954503285
777+959022432+961817152+961420680+959617140+959005365+959975609+960923328
767+961425448+962830167+965116549+966173924+965403435+964862277+965844198
757+967557016+968918342+969171510+967558743+964389661+961777837+961791172
747+964328718+967792149+970875068+972653665+972525078+970943473+969397315
737+969254010+970417930+971088367+969036773+963936461+958308326+955150990
727+955199703+957298352+960509582+964717590+969873247+974870192+977301883
717+975534410+970954598+966934945+965595176+965582256+963850298+960409186
707+958486524+959881846+962793132+964584373+964457720+963127625+961923698
697+961927913+962691699+962540794+960738773+958060410+954797357+950294172
687+944717030+939073832+934745390+933707708+937411593+944985882+952532049
677+954322392+947759183+938013556+934072811+939574155+949544275+953882874
667+949065164+943382720+941475881+941632590+941752402+941538343+940628420
657+936876030+928793195+918502816+909793558+904667266+902847972+903109293
647+904456386+906188205+906981564+904985384+899856536+893836489+889752577
637+888700178+889874531+892053677+893734710+892861200+889241130+884860866
627+882010799+882469250+885291057+885773484+879947735+870148213+862986288
617+861970302+864296553+865907938+867563060+871829661+878043384+883025127
607+883971740+880056008+875374279+877278976+887658074+899248077
##END=
