##TITLE=<SNM>
##JCAMP-DX=4.24
##DATA TYPE=INFRARED SPECTRUM
##DATE=2/5/2025
##SAMPLING PROCEDURE=Instrument type and / or accessory
##ORIGIN=Admin
##XUNITS=1/CM
##YUNITS=ABSORBANCE
##RESOLUTION=4
##FIRSTX=4497.3318
##LASTX=599.83466
##DELTAX=-1.4281778
##MAXY=1.8465858
##MINY=0.37230504
##XFACTOR=1
##YFACTOR=1.719767e-09
##NPOINTS=2730
##FIRSTY=0.39776292
##XYDATA=(X++(Y..Y))
4497+231288846+232742235+234120364+234280296+233170251+231301271+229244061
4487+227762217+227522379+228393522+229471438+229984870+229899038+229508748
4477+228807085+227704701+226820284+227277222+229197185+231036757+231144840
4467+229665803+228223574+227977949+228687409+229406072+229440990+228800084
4457+228069569+227753223+227684113+227296995+226464219+225679168+225375750
4447+225415122+225419853+225347745+225513829+226252334+227561803+228980066
4437+229829998+229642946+228481330+226962904+225930460+225891226+226638153
4427+227494999+227977897+228114417+228186125+228327446+228356628+227895635
4417+226757188+225297785+224289516+224387859+225619347+227178722+227932667
4407+227549777+226824599+226452834+226121827+225375386+224630556+224626189
4397+225380758+226135586+226041540+224878607+223317846+222379171+222559326
4387+223581337+224770628+225393009+225015439+223954454+223078338+222905461
4377+223115682+223040976+222447985+221703363+221269871+221254344+221457357
4367+221664234+221799524+221878164+221865947+221616630+221032356+220302707
4357+219827192+219781772+219864900+219597631+218865659+218125179+217991657
4347+218538846+219103608+219025019+218461367+218099722+218249586+218666788
4337+219067441+219380512+219608496+219704344+219562504+219142720+218630189
4327+218340755+218433900+218795077+219140848+219226732+219058465+218806566
4317+218515868+218191308+218019661+218136495+218400853+218680271+219039125
4307+219452307+219667814+219474160+218982892+218601110+218617660+218772480
4297+218475335+217621226+216861199+216835066+217428871+218082930+218606777
4287+219163238+219543529+219266641+218501571+217979163+217875811+217713141
4277+217364510+217255925+217596134+218111870+218488020+218657743+218707911
4267+218663842+218470049+218253832+218282269+218418061+218178605+217653649
4257+217590848+218214442+218809426+218832491+218621784+218719227+219180844
4247+219742763+220144941+220224153+220056441+219922745+219834765+219379975
4237+218395447+217400815+216958416+216962333+216914434+216650804+216485743
4227+216792506+217572687+218338641+218602324+218594369+219033563+219980192
4217+220560359+220206062+219477521+219187273+219335612+219453243+219508575
4207+219879803+220700882+221642572+222185291+221959178+221040726+219990018
4197+219370201+219272360+219468735+219809914+220279347+220775519+221014473
4187+220789036+220261273+219750666+219319322+218920246+218786239+219173271
4177+219914029+220625101+221110477+221310197+221198024+220924793+220789868
4167+220971149+221337265+221478343+221009620+219988233+218924977+218321104
4157+218290102+218573834+218815942+218890371+218973586+219218327+219496237
4147+219632722+219754495+220123869+220639467+220848423+220548627+220042889
4137+219700601+219567304+219482218+219340811+219248532+219495440+220211936
4127+221031559+221344370+220922177+220144768+219605585+219539144+219729472
4117+219990589+220457648+221231002+222052271+222523974+222388060+221612142
4107+220532805+219759746+219644420+220025352+220522754+220781342+220586353
4097+220059768+219563943+219232936+218823410+218166891+217579255+217627326
4087+218459530+219521486+220100041+220032890+219714361+219585258+219796068
4077+220242540+220751605+221152674+221174283+220525423+219303951+218089914
4067+217442059+217500823+218079707+218820343+219284577+219247943+218896263
4057+218509023+218117381+217717785+217534424+217736067+218133982+218428909
4047+218576728+218732258+218947436+219059106+218887096+218482076+218080227
4037+217799701+217548755+217334236+217443567+218092496+219008556+219630036
4027+219708018+219514190+219426903+219508454+219587666+219588169+219590942
4017+219604112+219416141+218858710+218187998+217890350+218072481+218419014
4007+218789757+219361970+220138114+220889009+221569044+222232461+222686055
3997+222773342+222730626+222754488+222610690+222122368+221582838+221376793
3987+221621171+222215721+222797326+222819490+222126042+221250688+220919941
3977+221491340+222788246+224109464+224598410+224013322+222999819+222411767
3967+222559083+223185207+223929535+224622948+225190101+225468842+225286088
3957+224667485+223894547+223450172+223920731+225596126+227854634+229336443
3947+229422760+229092724+229382556+229773730+229198762+227914957+226997233
3937+226901974+227729655+229692924+232210469+233551478+232847771+231577327
3927+231617271+232904230+233768735+233290569+232645798+233491623+235687589
3917+237054124+235631633+232056065+228710267+227077866+227043502+228495921
3907+232410622+239452011+247804533+253626738+254657535+251664318+246273543
3897+240266002+236085868+235653936+238427764+240980228+240678889+239835820
3887+241824996+245630090+247623251+247680681+248005483+247410777+244016786
3878+240632360+241015615+245007119+250247251+255163446+257889203+256337470
3868+252508410+250516773+250611322+249589085+246288238+243467153+243986286
3858+248873750+258142124+269624227+275143966+268103999+255792447+246427115
3848+242244919+242805036+246523119+251514680+256905974+262661167+267349534
3838+268007492+264442183+260127539+257212789+255075153+253064992+251836086
3828+251756614+252591209+255337779+261393409+268499331+271081359+268780863
3818+266144716+263279129+257475380+250567721+247095159+249163928+255672026
3808+262634202+266225037+267890641+271109433+274496683+274013941+270895382
3798+268629665+266748745+263807966+261072332+260377913+261805915+264827153
3788+269402360+274999180+280122010+284423986+289810307+297557413+305810240
3778+312062921+317010500+323331424+332800176+345415476+358917930+369841441
3768+377079361+381896034+384832931+386551684+389020274+392871984+395927968
3758+396620307+397308730+401907643+412208999+425580409+435160035+438305749
3748+440998789+447789128+456189877+460747859+462691615+468119111+480134574
3738+498054123+517325876+530593519+534446372+533537555+534499954+540242808
3728+550088854+561072116+569969765+576320912+581320721+584810213+586410815
3718+587046106+587896350+590006155+593596990+595855341+592710424+585082145
3708+577656271+573605968+573560912+575651308+576298765+574103110+571890161
3698+572664226+576749846+583101339+591036623+599859861+606596999+606248057
3688+598648544+590225960+585475381+584638099+586903174+592010598+600231539
3678+610649139+618024619+616650754+610854734+607837082+606259771+600624290
3668+591484135+583564100+578411862+575048700+572638578+571511759+572599414
3658+575551318+577973466+578739455+580413810+585263478+591087225+592229294
3648+587297173+581008274+576376746+572905311+569555284+566316996+563916821
3638+563158007+564280563+566578114+569528458+574059683+580457896+584730637
3628+582317015+576404751+572797037+573551901+578253889+584858943+589452104
3618+589517955+587267921+586145261+587426935+590948937+595680385+599362372
3608+600087706+598539716+596859261+596368288+597534271+600435817+604496275
3598+608782083+612396416+614073821+613032400+610929042+610944846+614236092
3588+617919118+618051098+615011335+612390870+612310047+614063839+615450666
3578+614882335+612385880+609101773+606941020+608280851+614317748+623095582
3568+629369751+628530529+621799283+614238726+609341680+607419516+607087348
3558+607401078+608274335+609586230+611043415+612418805+613890615+616195964
3548+619231638+620811791+618714810+613812079+609003343+606138051+605258000
3538+605270270+604533221+602163338+599547934+599106384+601072009+602750662
3528+602024842+600034678+598718069+597910941+596191737+593047374+589351386
3518+586374562+584700484+583875611+583261323+583101547+584004541+585708078
3508+587261336+588093488+588180550+587442531+585526675+582648421+580065734
3498+578597112+577532783+576152194+575153299+575314531+576152228+576930694
3488+577561064+577995509+577776571+576487065+574551419+573211034+572825527
3478+571681448+568152236+563547950+560828917+560958748+562103035+562214254
3468+561370873+561063486+561663183+561821504+560703037+559390518+559109056
3458+559411590+559248487+558641962+558103645+557403369+555936515+553722214
3448+551457520+549903396+549266372+548843988+547618392+545491257+543491493
3438+542569368+542662426+543072021+543253562+542958306+541963883+539983597
3428+537140139+534501445+533426475+534215442+536006943+537917843+539632159
3418+541003217+541665299+541152699+539362758+536851641+534444951+532556718
3408+531112011+530020405+529450029+529507562+529741611+529492728+528771206
3398+528069787+527384206+526328055+525056190+524034768+523072958+521681174
3388+520237264+519843092+520763589+521625513+520891826+518895216+517475081
3378+517748017+518974861+519621139+519119283+518175115+517454009+516881727
3368+516492338+516749678+517426524+517486103+516724550+516111198+516144019
3358+516232329+515890804+515494102+515680288+516539300+517422573+517509982
3348+516734809+515887823+515542624+515358622+514746170+513746687+512911381
3338+512643297+512892665+513222996+513123075+512581986+512101514+511673932
3328+510472215+508345393+506610074+506408084+507312637+508146072+508354058
3318+508104585+507668338+507247029+507000641+506866720+506554308+505908376
3308+505133966+504492609+503987946+503514891+503022081+502420235+501675457
3298+501115063+501265897+502226771+503547435+504726138+505483081+505747180
3288+505785235+506116259+506878296+507526134+507443231+506728918+506198226
3278+506499270+507405696+508099213+507998080+507182529+506161453+505442323
3268+505247299+505407110+505481660+504992178+503623962+501614354+500001137
3258+499839247+500961249+502067619+502285725+501997054+501873912+501916126
3248+501682112+500885554+499583086+497988272+496244704+494471052+492948640
3238+491999932+491654351+491642533+491628323+491222818+490084526+488441572
3228+487187764+486974233+487425522+487687159+487569563+487485031+487347124
3218+486504679+484947539+483679798+483549239+484256378+484753243+484315471
3208+483087761+481747722+480769762+480030703+479119425+477990319+477161598
3198+477035926+477182739+476827004+475975513+475350653+475250629+475196943
3188+474717234+473811016+472568992+470928464+469000443+467217780+465901587
3178+464925740+463994638+462951485+461645620+459990258+458408684+457600342
3168+457599649+457656558+457238749+456540068+455858507+455111996+454178849
3158+453272805+452700107+452403569+451956057+451079404+449982183+448921597
3148+447738353+446267721+444830188+443799200+443045030+442256964+441416286
3138+440639657+440003672+439640728+439523409+439189092+438223054+436880971
3128+435757825+435073562+434615965+434125719+433533127+433007808+432816007
3118+432994429+433257592+433307431+433024894+432359207+431347143+430232593
3108+429298995+428636254+428186040+427779356+427076966+425837437+424327329
3098+423163703+422772095+423078096+423525954+423430539+422617692+421661462
3088+421176173+421082352+420891834+420476659+420178665+420241951+420445674
3078+420341248+419714691+418764180+417858517+417176852+416589147+415838512
3068+414869216+413969792+413453726+413204704+412766898+411949302+411047313
3058+410308081+409556163+408589224+407584611+406855222+406441780+406118728
3048+405660368+405055507+404526201+404269693+404201104+404102293+403921583
3038+403632253+403015920+402023542+401061108+400436214+399814509+398725606
3028+397326337+396191823+395619888+395435989+395246615+394777650+394122638
3018+393613504+393411756+393384723+393276588+392807415+391836559+390579598
3008+389392819+388401515+387636116+387202260+386922080+386249773+384972120
2998+383568414+382567579+382002506+381725098+381781003+382123984+382274437
2988+381695084+380461863+379245001+378627524+378662738+378987973+379065401
2978+378420994+377046089+375539967+374559095+374171820+373939261+373504262
2968+372841139+372014568+371069047+370185116+369563410+369076111+368439399
2958+367785357+367564651+367773608+367773192+367088859+366007719+365147425
2948+364714643+364415159+363963766+363461425+363233094+363372248+363506966
2938+363122533+362159857+361080763+360264172+359632832+358989777+358386753
2928+357962047+357695038+357469930+357185002+356733436+355991535+354900102
2918+353631010+352660119+352421599+352762639+352992807+352652633+351994329
2908+351498295+351206921+350844531+350350716+349923930+349689222+349602091
2898+349527748+349277860+348752471+348076144+347444526+346925965+346523683
2888+346283153+346226417+346224892+346012677+345466528+344834252+344407258
2878+344049894+343468704+342797334+342417094+342351971+342263176+341874272
2868+341144155+340214647+339351718+338809277+338661320+338742144+338681803
2858+338154092+337320415+336797556+336850930+336939795+336478662+335649041
2848+334971223+334539932+334194109+333977770+333967511+333997110+333851648
2838+333478410+332902176+332159548+331333149+330545533+329959665+329727314
2828+329777014+329739340+329287185+328498633+327759193+327379335+327368002
2818+327463382+327344746+326892764+326232518+325519106+324810131+324157580
2808+323640786+323290422+323118967+323151650+323271360+323170053+322646259
2798+321855073+321133690+320669230+320391130+320105093+319717680+319340976
2788+319088107+318788102+318150905+317255432+316546318+316258513+316157345
2778+315915844+315439185+314786633+314063656+313399217+312839654+312297664
2768+311681330+311012178+310409084+309973218+309652869+309257865+308664442
2758+307940494+307259938+306746991+306355662+305903125+305341760+304896259
2748+304729655+304616946+304182293+303348061+302388470+301645113+301269692
2738+301160136+301070370+300767454+300142075+299297100+298533468+298101449
2728+297938450+297744951+297322636+296758326+296291613+296061515+295973448
2718+295805597+295454055+295013475+294601524+294208634+293757484+293225509
2708+292680226+292211331+291816604+291403440+290954265+290576469+290321122
2698+290096725+289808522+289443290+289031235+288638761+288324495+288027263
2688+287610372+287059856+286535940+286215383+286132601+286150277+286060494
2678+285733022+285188692+284562239+283983164+283480996+283067641+282863606
2668+282959679+283203000+283345186+283337094+283261486+283092110+282725231
2658+282165513+281556683+281057288+280720060+280493099+280320638+280172784
2648+279990186+279699522+279277952+278757069+278225077+277808118+277544869
2638+277340470+277121341+276915279+276740599+276579818+276463730+276437562
2628+276483485+276550272+276554847+276347693+275853150+275242501+274782166
2618+274523855+274332696+274179453+274170165+274265614+274197649+273768559
2608+273118901+272605712+272457252+272589267+272756737+272814010+272750169
2598+272571573+272330281+272169933+272130769+272014073+271652532+271205888
2588+270997832+271140262+271444633+271637179+271590182+271386632+271207984
2578+271166065+271218607+271225244+271097666+270884308+270683930+270520324
2568+270364482+270244771+270254753+270441718+270744045+271063770+271345874
2558+271554241+271651562+271649690+271588137+271448480+271194156+270864431
2548+270529942+270225726+269983480+269816079+269662386+269469892+269277919
2538+269099046+268827461+268390452+267899704+267549132+267396306+267313974
2528+267163781+266970820+266872493+266902282+266892283+266665842+266312307
2518+266122759+266201538+266328215+266297612+266170484+266076906+266004089
2508+265876840+265673585+265426452+265231861+265217339+265387166+265553666
2498+265511296+265257162+264988662+264881117+264896973+264841242+264592775
2488+264253797+264059622+264141867+264387094+264544703+264471331+264233002
2478+263968435+263727593+263480686+263209014+262909010+262567017+262220604
2468+261997819+261992967+262124150+262184871+262023969+261653001+261219093
2458+260882853+260690082+260561586+260415483+260262552+260169754+260166929
2448+260212557+260230961+260175576+260059002+259914251+259748877+259561063
2438+259361845+259155887+258954486+258810358+258756429+258723036+258618887
2428+258457482+258302801+258169088+258075857+258101452+258271106+258452786
2418+258461641+258285142+258143285+258238319+258478988+258600293+258524598
2408+258414020+258403415+258485694+258631295+258833614+259054077+259260954
2398+259499578+259844726+260400424+261487212+263713175+267699759+273856453
2388+282567327+294420814+310028290+329647218+353052212+379716531+409069765
2378+440523377+473118573+505263589+535349817+562727686+587355399+608548900
2368+625127405+636726932+644117107+648128696+648439930+643957123+634669114
2358+621837060+605863277+585356848+559221072+530580106+506820659+494269374
2348+495264733+508525306+528549322+546372729+556236069+559638569+560529779
2338+560854980+560769963+560515188+560685084+561049969+560529051+558538125
2328+555504773+551912414+547387115+541040717+532657297+523053653+513101136
2318+503057918+492982398+483089702+473456529+463719519+453291729+441877660
2308+429731187+417436688+405523363+394251810+383599191+373399350+363585953
2298+354293751+345666785+337641110+330026452+322760528+315949982+309680630
2288+303942525+298733759+294084210+289990133+286454804+283534405+281222332
2278+279353699+277710935+276158682+274647084+273179952+271822151+270654366
2268+269667117+268750311+267822034+266917220+266116278+265441840+264861465
2258+264341344+263856852+263369744+262826696+262224659+261664473+261252764
2248+260946123+260592345+260113589+259554495+258989820+258480617+258087953
2238+257858288+257785453+257790097+257758800+257642122+257494979+257382876
2228+257275279+257074848+256754932+256440701+256296989+256325548+256352841
2218+256249177+256069161+255949242+255957734+256054188+256122275+256060999
2208+255904689+255809516+255881987+256078952+256288099+256427184+256468029
2198+256450388+256457909+256515858+256556755+256540171+256538819+256647716
2188+256852375+257031716+257089630+257060430+257059841+257145742+257271120
2178+257358425+257361544+257258625+257043170+256751830+256480125+256322411
2168+256274599+256242488+256179046+256147749+256197207+256237809+256121669
2158+255815218+255435585+255133622+254982320+254945478+254914650+254826062
2148+254757733+254849162+255140589+255575918+256123124+256797805+257612628
2138+258577869+259712832+261021020+262499502+264187027+266147540+268380366
2128+270806708+273408474+276308858+279615198+283253740+287066372+290963103
2118+294854982+298538424+301759521+304334617+306141021+307044050+306925760
2108+305789029+303766182+301040391+297840574+294438039+291017829+287629452
2098+284320859+281177883+278227018+275474661+273008098+270905675+269114867
2088+267526067+266099712+264867964+263876521+263160250+262749130+262634982
2078+262694214+262710832+262550537+262252490+261914673+261607910+261443230
2068+261554796+261897604+262191457+262224348+262098849+262004023+261921224
2058+261782780+261723947+261903305+262226774+262474236+262587101+262676364
2048+262823923+262994495+263135122+263266548+263412755+263521305+263548235
2038+263549829+263620360+263800844+264056052+264302007+264502368+264719781
2028+264995663+265271112+265516287+265813640+266267511+266926751+267714662
2018+268339174+268468260+268117221+267658879+267413635+267431657+267615902
2008+267853573+268058267+268203399+268319575+268469283+268707629+268973391
1998+269117588+269245842+269807553+270964785+272103042+272436024+271908330
1988+271059646+270342734+269933971+269830861+269895863+269999441+270136983
1978+270323602+270537740+270812340+271198367+271703550+272409510+273395078
1968+274350753+274652629+274137516+273400190+273044160+273093185+273316057
1958+273661481+274125143+274548342+274795405+274952686+275244545+275844121
1948+276843951+278383935+280497102+282521612+283164702+281942173+279983081
1938+278654601+278248368+278325189+278532863+278786806+279057645+279264713
1928+279502228+280277817+281932382+283798555+284920366+285559452+286478372
1918+287074222+286124058+284133201+282927429+283387851+284806045+285882973
1908+285928341+285248513+284548081+284181237+284091818+284215480+284687876
1898+285646948+286832322+287656139+288113909+289055652+290729747+291852372
1888+291275827+289720472+288533746+288041109+287917222+287993384+288211698
1878+288480337+288796804+289318658+290564235+293410136+298036360+302538853
1868+303821151+301275306+297570341+295138905+294315590+294294553+294394855
1858+294426810+294514288+294791037+295225516+295854916+296984993+298972072
1848+302125758+306485389+310648956+311637834+308579667+304520318+302318460
1838+302117371+302565506+303019914+304466632+308033136+312692563+315510824
1828+315422652+314292541+313158201+311239122+308630442+306813986+306511556
1818+307017605+307526774+308272661+310022745+312659672+314774641+315150583
1808+314262111+313628552+314442162+317071256+320794417+323805137+324630496
1798+323971428+324218371+327180152+332227374+335686264+334111587+329311723
1788+325767851+325323563+326898586+329011580+331217285+333121045+334000714
1778+334358806+336251926+341323929+348711747+354360260+354571054+350630549
1768+345960863+342601894+341907856+344334129+347922502+349736254+349781068
1758+349966456+350510804+351286774+354087290+360398059+368164106+372772273
1748+372526474+370125607+368549855+368950682+371016401+373363964+374582108
1738+375692464+379771430+387362556+392924249+390910379+384733946+379235470
1728+375493767+373732072+374048956+375686850+378568362+384499100+394775536
1718+406252059+411251625+406874527+398739019+392256240+389489863+390949959
1708+396153907+402895620+408270920+412519713+418791456+427399048+433286185
1698+433341431+429610506+423005902+415338389+410852255+411283165+415133523
1688+421278589+430886149+443185952+450043251+445734846+437490268+432679314
1678+433119651+437561076+442748699+446253823+449547495+454136115+456927723
1668+454526613+450457802+450110836+453819440+457431000+457842120+457310319
1658+460265204+469650291+486187033+504328674+509953411+504375359+502490142
1648+507221728+511287211+508207313+502249819+499979198+503053343+511097109
1638+523451984+536765515+543378402+541008901+537821353+540074125+547896319
1628+558463193+569615624+581420017+593394168+603120191+610641029+620019427
1618+633750247+647801173+655317713+657621675+660804093+666877729+673771246
1608+678775734+681380117+683091695+685176616+687615469+690053213+692672153
1598+695837172+699549520+703363278+706722801+709607017+712551886+715828644
1588+719155381+722252886+725064734+727516204+729700594+732492410+737489828
1578+745355934+753199928+756191170+756062517+759450253+768839117+780530628
1568+788959589+794112415+800046931+809590928+824480036+846422092+871836728
1558+885287437+882810321+878123998+876317178+875589349+874462945+872766340
1548+871516136+872784224+877681339+885367776+894025622+898818000+891906598
1538+876977216+865797474+861003017+858018430+852896519+847639578+846197990
1528+848818870+852869485+856742510+860882059+864166720+863801210+860521402
1518+857052288+852930415+847367300+842937590+842981399+848609810+858728099
1508+868926379+869404044+856843713+843354671+836813146+836479522+839246800
1498+841462938+840110214+836132036+834219923+837359503+843689958+847144585
1488+843152820+834490468+827162817+824191677+824687502+826075508+827181671
1478+829067998+833138715+839577997+846261138+848258303+843181864+836093010
1468+832836492+834242936+836621761+836152207+834430023+836219375+843437782
1458+852070744+852949061+843929102+833431787+826802298+824302792+824251983
1448+824117300+822272910+819559422+817772427+817779566+819953074+824540827
1438+829961703+831835969+828226418+823841002+822854619+824124370+824232366
1428+822399830+820854404+820939318+822093933+824092762+827430866+830574744
1418+829737878+824501733+818818353+815404970+813991247+813034394+811745719
1408+810771121+810776528+811003680+810430358+809845807+810856935+813675785
1398+817202224+820078885+820595158+817632545+813184258+811015325+812333113
1388+814380879+813454317+810049322+808434025+810932699+815915560+820772472
1378+825002341+829555366+834237391+837469717+838715069+839245830+840003050
1368+840903479+842343958+845202596+848973447+851653386+852136110+851272142
1358+850121200+848965337+847967587+847509955+847712222+848104627+848138245
1348+847935839+848089377+848846043+850142827+852152330+854911983+857624570
1338+859227875+859593731+859434509+859326999+859434024+859934078+861223861
1328+863484847+866270009+868903713+871249473+873690060+876431690+879370181
1318+882645762+886622554+891124909+895284560+898357318+900465182+902479052
1308+905240092+908763342+912170279+914700631+916638183+918722687+920929952
1298+922434965+922686586+922036738+921283746+920977018+921126397+921174572
1288+920416659+918778557+916865335+915043889+913043744+910709074+908488777
1278+907046981+906979951+908604745+911307904+913516694+913998864+913048734
1268+912103942+912533015+914731546+917841528+920444247+921764877+922066891
1258+922025786+922099124+922530900+923571142+925459410+928144200+931112220
1248+933791674+936057165+937847626+938363484+936571013+932765503+928790236
1238+926335786+925466896+925042675+924217316+923212703+922596613+922133505
1228+920989218+919029762+917279227+916980817+918356970+920362661+921934911
1218+923221229+924785578+926139688+926412797+926108287+926515733+927695510
1208+928569183+928785106+929271504+930856163+933140162+935128523+936694674
1198+938816263+942236231+946338210+949698704+951333063+951141956+949936600
1188+949333472+950674897+953671961+956706942+958508910+959353331+960261385
1178+961473048+962760614+964482867+967185125+970352502+972622637+973284477
1168+972697638+971590367+970906969+971667378+974083357+977247336+979938019
1158+981455995+981944195+982386854+984035076+987197046+990773740+993473919
1148+995318586+997158609+999109678+1000319608+1000365080+1000089267+1000382340
1138+1000870333+1000543918+999373776+998949763+1000841150+1004515512+1008099553
1128+1010466178+1011857927+1012517618+1012196888+1011497340+1012019852
1120+1014821026+1019372249+1024146396+1027720456+1029067842+1027899988
1111+1025768972+1025728698+1029125792+1033059954+1033268044+1029711521
1103+1026509625+1026794726+1030152725+1034357640+1037523006+1038570457
1094+1037743226+1036879258+1037261264+1037861828+1037057749+1035270407
1085+1034519287+1035842689+1039134005+1044230199+1050644389+1056945107
1077+1060808497+1061137406+1059687223+1058599222+1057308468+1054095134
1068+1049949832+1048086726+1050431794+1055980490+1061223637+1062083862
1060+1057712240+1051643873+1047876002+1047819162+1050908695+1055814545
1051+1060315583+1062089893+1060510710+1057387697+1055582610+1056655986
1043+1059441217+1061463613+1062456373+1064432812+1067932979+1071240723
1034+1073115681+1073741823+1073247731+1071521111+1069044757+1065940112
1025+1061748783+1057295367+1054882161+1055683328+1058352245+1061036758
1017+1063039745+1063768754+1062681099+1060713186+1059244009+1058504534
1008+1058864152+1061275348+1065151630+1067960775+1067849521+1065096800
1000+1061475466+1059205469+1059531883+1061375233+1061677179+1058829285
991+1055044016+1053379435+1054028798+1055189513+1056385718+1058719140
983+1061645917+1062043312+1057673076+1049831022+1041800496+1036132504
974+1033514258+1033462825+1034703671+1035355806+1034800645+1034477489
965+1035541368+1036616962+1035050533+1029889320+1022550231+1015243999
957+1009706948+1006481415+1004642778+1003227669+1002441474+1002191586
948+1001014997+998078863+994753513+992729661+991873456+990964154+989445347
938+987716439+986192572+984771224+983279104+981978091+981176092+980830408
928+980610672+979752457+977788772+975920815+976065272+978009547+979200693
918+977771235+974639211+972469931+973113056+975911318+978449018+979028163
908+977857951+975979804+974152327+972651057+971347341+969974377+968433804
898+967035885+966447314+966847759+967146308+966077091+964300563+964123735
888+966903559+971347133+974202998+972812081+967854590+963167436+961729383
878+962547117+962809066+962021485+961781925+962252381+961467711+958416233
868+954514788+951728656+951101544+952539042+954761488+956268580+956904773
858+957738796+959308968+960378392+959161461+955836735+952831699+952388763
848+954434034+957108773+959180523+960838381+962285722+962724153+961112183
838+957868350+954786165+953197208+953291895+954967637+957726874+960009209
828+960598405+960300272+960246066+959971016+959170819+959278538+961536473
818+965266219+968835358+970871063+970669835+969206759+968949246+970775544
808+972646759+972658543+971230472+969376170+967133484+964547540+962378607
798+961346059+961885624+964167127+967182214+968747533+967662304+965501135
788+964749252+965420658+965600952+964972869+965099165+966227509+966784403
778+966183839+965564144+965844047+966874307+967728294+966682923+962429001
768+956582795+953573878+956423851+963133332+968721262+970885550+971300898
758+972075240+974027695+976859438+978568105+976868588+972849096+970075649
748+970305782+972594356+975200887+976392726+975489870+974318896+974767031
738+975756464+975685414+975334461+976025206+977557115+979369272+981570229
728+983743806+984922751+984613320+982536648+977976067+971362868+966018172
718+965852365+971577959+980206346+987127868+987957940+980977360+969684354
708+960485141+957055815+958118862+959875774+959964708+958885232+957703167
698+956045657+953177800+950470620+950801886+954989541+960123998+961560526
688+956947888+948878960+942696358+941843411+945535379+949227278+948121532
678+942335701+936436260+933854752+934728009+937135670+938126419+936172509
668+934714978+938304218+942968081+943601917+941784769+940610468+939718148
658+936928689+931563198+924548929+918214592+915068150+915596901+917839795
648+919125419+917775469+915181137+915850532+921037463+925752690+925228999
638+919895186+912811739+904843875+895806171+887768851+883434452+883822489
628+887325984+889175503+885522491+878863335+874648715+874794351+876251882
618+874989201+871147161+869098494+872054938+877812764+880780161+878943396
608+876368126+877202358+880782795+882278312+879644331+877440185+879947108
##END=
