##TITLE=<SNM>
##JCAMP-DX=4.24
##DATA TYPE=INFRARED SPECTRUM
##DATE=2/5/2025
##SAMPLING PROCEDURE=Instrument type and / or accessory
##ORIGIN=Admin
##XUNITS=1/CM
##YUNITS=ABSORBANCE
##RESOLUTION=4
##FIRSTX=4497.3318
##LASTX=599.83466
##DELTAX=-1.4281778
##MAXY=1.7273151
##MINY=0.28256971
##XFACTOR=1
##YFACTOR=1.6086875e-09
##NPOINTS=2730
##FIRSTY=0.30156249
##XYDATA=(X++(Y..Y))
4497+187458711+187265560+188046962+188903672+189084355+188730215+188384596
4487+188290559+188563741+189372784+190393170+190751683+190064633+189001174
4477+188522614+189013864+190244556+191671584+192637578+192711200+192069316
4467+191347734+191020085+190986554+190741790+189923076+188752094+187922932
4457+187977046+188798149+189770479+190326421+190237497+189572734+188625933
4447+187841251+187556046+187663162+187700269+187441333+187202998+187376938
4437+187872764+188264549+188293671+188059282+187804959+187531962+186984949
4427+186298621+186194988+186917367+187494484+186891301+185481371+184542333
4417+184659657+185257912+185586784+185700088+186141652+186911234+187369416
4407+187186918+186691907+186207845+185690936+185055573+184401406+183900356
4397+183651887+183604961+183577061+183378056+182994701+182760404+183172919
4387+184229264+185115041+184952088+183700332+181958568+180203335+178662409
4377+177650786+177441703+177868094+178450992+178850132+178958082+178773676
4367+178465461+178394692+178854652+179786336+180719725+181066232+180671910
4357+179935136+179231024+178660538+178474891+179038836+180142459+180978605
4347+181059748+180695938+180399135+180211264+179842562+179295160+179025127
4337+179357629+179944417+179990436+179018736+177387904+176033275+175652327
4327+176129035+176759414+176979335+176806989+176661653+176868013+177339515
4317+177723278+177810627+177719647+177625665+177408153+176907139+176489400
4307+176812658+177980287+179383121+180362157+180667574+180413900+179879114
4297+179202234+178294912+177244755+176486028+176299362+176561892+177106274
4287+177817500+178376741+178416868+177989402+177524440+177343405+177407745
4277+177503561+177514769+177435275+177261410+177017294+176757154+176524358
4267+176489919+176954028+177852848+178483153+178174179+177132988+176280317
4257+176317647+177136212+178063672+178520094+178392636+177973136+177705660
4247+177901774+178544752+179406945+180232939+180668908+180376385+179545407
4237+178852688+178563389+178246504+177704418+177430940+177716349+178116841
4227+178302878+178567260+178938445+178730473+177710161+176841058+177016461
4217+177771149+178153448+178259453+178833273+179769107+180156539+179723145
4207+179267779+179555078+180439577+181157806+181109250+180345280+179445164
4197+178924458+178883867+179247715+179901864+180427979+180233032+179252847
4187+178167565+177744082+178203338+179157643+179922205+180018521+179601985
4177+179340382+179742523+180681395+181621323+182176080+182330771+182265208
4167+182199163+182288699+182415193+182254426+181831128+181649686+181934354
4157+182194958+181945581+181382784+180943221+180658515+180336703+180030989
4147+179991862+180289536+180671650+180815541+180639378+180292092+179944084
4137+179774684+179986416+180459010+180630745+180237774+179928819+180517811
4127+181770011+182561881+182217652+181169144+180307432+180100368+180318195
4117+180386648+180094292+179912701+180362509+181194858+181628177+181314442
4107+180611775+179992659+179688112+179840080+180458306+181199044+181633976
4097+181742186+181790168+181810583+181605242+181182297+180771690+180487985
4087+180282959+180119246+180044791+180230253+180842384+181654632+182048529
4077+181702374+180931457+180173027+179651135+179573771+179994937+180466791
4067+180424071+179901363+179465005+179518211+179955866+180433704+180751219
4057+180871729+180721059+180300503+179930134+179960591+180305172+180671465
4047+181080016+181648704+182099383+182074169+181708654+181317462+180851759
4037+180231309+179846453+180087863+180692584+181148710+181391361+181597925
4027+181733256+181739629+181820254+182208444+182844586+183400843+183535470
4017+183184739+182618311+182137509+181821550+181641627+181649390+181891263
4007+182211260+182356059+182349334+182542077+183109116+183704815+183905080
3997+183795703+183768118+183930590+184127427+184378545+184757955+184978005
3987+184693337+184089394+183681547+183712504+184071164+184594798+185235126
3977+186027403+186938041+187739155+188120380+187899219+187127098+186129795
3967+185400895+185337722+186026143+187115315+187957464+188238409+188336503
3957+188585009+188603442+188063321+187649453+188411366+190308915+192019556
3947+192517772+192418325+192915689+193783106+193582675+191886336+189906144
3937+188964659+189573975+191517968+193806782+194842452+193841000+192111611
3927+191763917+193290745+195131826+195865191+196046337+196816364+197818576
3917+197547728+195254375+191911346+189254700+188258769+188813544+190819080
3907+194891064+201211736+208083664+212842643+214353501+212898572+208671397
3897+202804034+198113415+197043362+199418544+202023317+201841856+200530800
3887+201721568+205441024+208451272+209681982+210782863+210955172+208109063
3878+204377361+203719730+206684943+211074683+215263491+217942127+217261413
3868+214364839+212938607+213760006+213856322+211389252+208456515+207845143
3858+210885756+218360811+229533036+237258746+232870340+220979831+210264806
3848+204325211+203659521+207081025+212464270+218311329+224233880+229028021
3838+230066470+226864923+222282366+218469503+215323144+212567293+210946484
3828+210907172+212136733+215362938+222073764+230176087+233261366+230228219
3818+226684018+224213983+219741414+213301806+208678473+208460202+212704384
3808+218911178+223557686+226631627+230820454+235328889+235986501+232844182
3798+229452393+226432492+222903130+219953924+219335401+221117811+224252535
3788+228119994+232476425+236638260+240295987+244473551+249875544+255145355
3778+258781740+261822446+266620459+274767947+286534889+300164588+312422095
3768+321913412+329604090+336064317+342027496+349596237+359734589+370130524
3758+378055925+384917978+395195052+412664494+437345574+462324882+479198533
3748+489899330+500969607+512600477+518696189+519086270+520404348+526538334
3738+537336466+549821378+559588768+563689912+562935724+560331322+557923775
3728+556120393+554375294+552039776+549456456+547326315+544940406+541057126
3718+536561381+534454657+537291634+544882902+552904785+555149935+550652596
3708+544291482+541039453+543434958+550420875+556975473+558498373+556057887
3698+553637743+553955128+558313781+566810668+577810731+587766381+592303328
3688+590114497+585001989+581484336+581590489+584773677+588964041+593207168
3678+598342462+602654542+601007370+594235723+588482665+584357178+577654447
3668+568216336+560147397+555444459+553434588+552919680+553453336+555238710
3658+557916476+560165182+561891940+565352460+572293248+581223195+586828862
3648+584749371+577387786+570004415+565512561+563879691+563427290+562885297
3638+562599517+563483793+565628903+569097500+575045228+583469938+589263567
3628+586445154+579555238+576785140+580423767+588814204+598683894+605984232
3618+608989868+610340588+612672920+615659623+618383221+621246911+624239801
3608+625769963+625320674+625010329+627025572+631079475+634570340+635976379
3598+636812637+638627726+640709441+642226634+644745707+650676502+659171944
3588+664298642+661018824+652815276+646771769+645813538+648219973+650675465
3578+651364108+650927713+650866874+652010290+655026226+660930567+669091876
3568+674881726+673012393+664944676+657042062+653034844+652400667+652760810
3558+652340199+651323870+651225238+652619346+654219240+654943972+655253576
3548+655639432+655803275+655504638+654521137+652017775+647799955+643772136
3538+642246717+643350265+645233604+646558203+647647746+648931663+649686036
3528+649100174+647470046+645529055+643655053+642458875+642815460+644410759
3518+645488520+644640628+642273987+640121578+639475840+639819162+639289841
3508+637029389+634095708+631633473+629697076+628123489+627287306+627509616
3498+628459622+629467133+629997639+629754728+628738029+627271077+625783673
3488+624867087+625481108+628000996+630832340+631367441+629129517+626285353
3478+624632179+624248249+624648482+625269024+625008550+622811680+619318073
3468+616989668+617880577+621538582+625202109+626427780+625368767+623747458
3458+622317261+620706512+618837327+617185079+616022618+615252424+615038080
3448+616111061+618880307+622252125+623770652+621721766+617456742+614645554
3438+615476735+618141384+618848257+616228996+612543091+610493538+610441147
3428+610981954+611025267+610586686+610184564+610491833+612034890+614078255
3418+614707023+613249890+611060763+608921915+606123028+603201981+602651541
3408+605422306+609238818+611384039+611303563+609990931+608602677+607714066
3398+606822898+605119889+602873480+600997589+599864584+599624822+600573532
3388+601993465+601837811+599148448+595828762+594389043+594993357+596144258
3378+597326022+599140742+601210933+602174944+601803575+601248095+601307897
3368+601772637+602151676+602280505+602485623+603193607+604241393+604893466
3358+604543290+603277492+602017141+601878345+602989378+604349621+605025222
3348+604975425+604754967+604819956+604840223+603922267+601909543+599840463
3338+598887493+599207731+599898116+599877367+598991683+598164318+598183066
3328+598812871+599385950+599499736+598803349+597023940+594713765+593400540
3318+594461591+597889987+602315000+605899532+607088559+605373434+602088169
3308+599656242+599348009+600446222+601779677+602951474+603667647+603327216
3298+602093134+601152317+601037975+600732817+599368165+597714917+596886774
3288+596925975+597624437+599367387+602300068+605502523+607762418+608600269
3278+608097069+606778028+605823242+606140998+607168035+607566970+606989445
3268+606158634+605774038+606162858+607239433+608307042+608635802+608175174
3258+606862321+604200080+600641744+598055274+597709619+598916986+600317838
3248+601477631+602607412+603664127+604375409+604605908+604367258+603636264
3238+602550723+601795201+602242564+603888068+605314374+604847522+602565951
3228+600372230+599772214+600486497+601205486+600955350+599765915+598505675
3218+597933708+597893692+597771051+597184818+595945031+594161212+592539199
3208+591647216+591028563+589924459+588347871+586787438+585576810+585011919
3198+585257498+585766403+585684149+585019589+584601053+584824067+585096360
3188+584619838+583315914+581812021+580713697+580103677+579673951+579097612
3178+578196662+576953503+575542721+574331315+573595283+573151181+572539753
3168+571708905+571191663+571331163+571770819+572077533+572260606+572275723
3158+571669371+570058214+567542143+564807874+563069926+563131543+564268808
3148+564901133+564415459+563541853+563044990+562741314+561792012+559860950
3138+557802393+556718667+556628298+556660719+556154370+555035445+553725333
3128+552954546+552911825+552709412+551487149+549664649+548376954+548225338
3118+549124843+550613803+551807017+551805238+550609468+548928543+547028419
3108+544703053+542259973+540456110+539501399+538980563+538658509+538703860
3098+539146962+539597955+539642862+539291871+538726499+537797797+536344481
3088+534832326+534016632+534036381+534291148+534115708+533467600+533002526
3078+533208645+533582497+533255219+532170271+530981725+530155954+529665870
3068+529148369+528207107+526992403+526218319+526214206+526458043+526371750
3058+526101643+526055958+525979891+525160677+523498278+521754846+520677900
3048+520319017+520252028+520093410+519734119+519333997+519205169+519545896
3038+520106785+520193783+519310136+517748665+516152255+514679041+513150546
3028+511738431+510916550+510880313+511299739+511552987+511157127+510038239
3018+508456945+506874540+505886297+505845206+506386384+506717812+506445852
3008+505770621+505011469+504276362+503473526+502488691+501395220+500341877
2998+499164707+497547955+495722268+494482629+494304373+494783563+495090795
2988+494759220+493930965+493064659+492580764+492628894+492963137+493060435
2978+492595177+491854809+491413968+491293364+490826364+489521773+487571111
2968+485415812+483435435+482097534+481694337+481892379+482150370+482347559
2958+482485614+482290351+481571400+480377667+478736721+476911182+475585916
2948+475121695+475066229+474878895+474637466+474679742+474981158+475133589
2938+474768407+473960679+473205047+472876361+472750051+472239182+471108919
2928+469775872+468809786+468316368+467967934+467375514+466264036+464613901
2918+462830453+461469802+460632767+459910369+459055771+458398066+458399104
2908+458973628+459393609+458858323+457263691+455487913+454666402+455040180
2898+455758687+455852020+455032732+453627286+452266895+451531752+451436418
2888+451407814+450955894+450093960+449101011+448216068+447510306+446896878
2878+446383712+446185633+446375375+446674419+446779424+446654708+446393493
2868+446006155+445410696+444505708+443270144+441868552+440586377+439542222
2858+438605517+437827542+437676483+438342895+439078594+438869363+437552470
2848+435754498+434150011+433168659+432919634+433094333+433244244+433172883
2838+432789805+431862400+430409787+429099824+428626266+428761134+428566798
2828+427529275+425995890+424587109+423692755+423422240+423545029+423514906
2818+422938159+422050511+421449829+421271869+420924917+419911700+418617706
2808+417791082+417461877+416927184+415749236+414293436+413204449+412692135
2798+412429216+411978593+411246414+410533502+410125414+409868090+409283932
2788+408165674+406885426+405981142+405583243+405403691+405172858+404841134
2778+404351718+403542805+402426770+401309957+400491966+400010145+399693686
2768+399366297+399055248+398906041+398711186+397881227+396278147+394636312
2758+393746107+393643474+393831178+393865710+393585858+393069839+392436291
2748+391657909+390688673+389676271+388815708+388075563+387267687+386313753
2738+385303464+384358386+383553845+382929708+382484310+382174372+381959954
2728+381785959+381498919+380915206+380052938+379191856+378596102+378239294
2718+377883523+377347755+376611686+375780430+375061886+374625417+374366277
2708+373960005+373197443+372125833+370942957+369926369+369300862+368980253
2698+368590358+367924168+367252161+366975570+367044227+366982239+366485005
2688+365678871+364789036+363933920+363251946+362840783+362551594+362126537
2678+361515294+360849104+360163092+359390563+358676428+358388870+358598101
2668+358814150+358526073+357747282+356843035+356140905+355769276+355552894
2658+355147622+354494252+353876748+353433573+352993732+352439882+351864321
2648+351307693+350621384+349748297+348999074+348736229+348786990+348589801
2638+347975335+347317111+346884495+346526613+346001478+345289604+344616448
2628+344247154+344154561+343990348+343505860+342782832+341990407+341242518
2618+340700007+340471879+340430900+340360835+340200475+339995283+339742146
2608+339380187+338838121+338089565+337247379+336540951+336103518+335842785
2598+335588907+335297643+335022868+334751093+334372906+333818613+333176432
2588+332667675+332465187+332473487+332377782+332028607+331627929+331352931
2578+331035102+330492220+329898355+329482227+329126049+328619033+328062998
2568+327683440+327456202+327217366+326953892+326764150+326674892+326619277
2558+326484187+326158687+325646596+325106122+324704556+324468425+324290910
2548+324052519+323734949+323408375+323113592+322842966+322618543+322446698
2538+322243914+321962432+321719743+321638637+321615739+321399912+320902826
2528+320319743+319900688+319690605+319563999+319423944+319265807+319094999
2518+318875690+318589798+318320210+318188973+318188121+318192641+318154107
2508+318126985+318116389+318036839+317791037+317351085+316857853+316576667
2498+316602307+316704273+316601084+316262876+315856085+315528882+315317946
2488+315169628+315009898+314841906+314760688+314794442+314769877+314483986
2478+314003240+313602081+313402224+313273321+313081319+312839149+312599091
2468+312364405+312163214+312085702+312132017+312102560+311810815+311367158
2458+311063889+311005385+311020057+310926909+310759213+310682461+310746097
2448+310800229+310680719+310405091+310141654+310026182+310014770+309904430
2438+309545232+309029917+308624293+308515046+308633593+308724833+308635649
2428+308508154+308583647+308879542+309171639+309220251+308982083+308681056
2418+308602266+308755660+308919632+309025600+309198706+309390152+309321717
2408+308899809+308420138+308219373+308270301+308265521+308048139+307802597
2398+307786035+307999323+308216502+308272542+308210833+308144973+308071407
2388+307869623+307394565+306485723+304960896+302712727+299770672+296186733
2378+291945571+287134053+282112933+277316606+272941390+268985674+265431839
2368+262219918+259298686+256871891+255386802+255260345+256688540+259576518
2358+263670789+268861384+275324946+283382862+292815360+302057245+308795027
2348+311554936+310655839+308035208+305624085+303542686+300827647+297289430
2338+293584072+290204473+287153375+284360898+281958019+280129369+278963184
2328+278422840+278257775+278094599+277872511+278018421+278968594+280663321
2318+282619671+284358841+285732719+286933732+288226634+289684434+291178322
2308+292539584+293678387+294602531+295393901+296157611+296933048+297639198
2298+298164962+298516972+298810736+299121489+299417236+299631877+299770580
2288+299968714+300405795+301059628+301610642+301754014+301551878+301303873
2278+301145273+300977354+300719697+300416484+300147007+299985684+299971048
2268+300011027+299939980+299742643+299581412+299559459+299608052+299632618
2258+299638583+299699292+299884921+300194841+300504037+300642889+300589868
2248+300506927+300531400+300640295+300781332+300988840+301250926+301414991
2238+301393056+301328216+301377068+301466437+301455914+301396150+301433257
2228+301585707+301772911+301953223+302121549+302263901+302392008+302539585
2218+302678862+302722972+302659336+302604092+302663541+302815527+302980315
2208+303122464+303249366+303405150+303660214+304005555+304307897+304458975
2198+304487579+304489506+304554828+304738104+304988852+305168386+305205382
2188+305143506+305029238+304889498+304807484+304887571+305142246+305481325
2178+305789262+305992101+306110852+306254483+306480276+306671871+306674502
2168+306549063+306550119+306842105+307336875+307798892+308065275+308191455
2158+308353167+308577293+308690097+308597782+308465823+308531367+308837896
2148+309199336+309386262+309346783+309233738+309216435+309340873+309565221
2138+309821026+310052433+310272872+310538533+310835910+311080340+311227695
2128+311306504+311365268+311459861+311652493+311938310+312196487+312305085
2118+312312347+312398418+312637402+312904545+313066128+313163648+313339088
2108+313620014+313848993+313878783+313801456+313856404+314115432+314439153
2098+314748313+315099526+315470451+315729628+315865793+316028079+316290035
2088+316523720+316541135+316300595+315991917+315900473+316117745+316436130
2078+316615238+316659997+316732581+316895016+317055375+317133073+317201359
2068+317406848+317731755+317950693+317901155+317664098+317399215+317184167
2058+317073346+317126774+317314108+317512964+317632715+317677474+317689960
2048+317696926+317744538+317940912+318347184+318802068+319006593+318872540
2038+318654194+318639411+318827930+319013670+319090849+319142758+319263176
2028+319458661+319739513+320130557+320558690+320927799+321335257+321963951
2018+322704800+323173282+323207184+323074428+323105107+323390924+323863037
2008+324420925+324969290+325472971+325946937+326372254+326711721+326955855
1998+327127701+327433489+328282270+329714319+330950142+331115726+330297661
1988+329248320+328411988+327808712+327415667+327187503+326994278+326797867
1978+326686267+326667482+326613127+326438873+326288961+326513347+327289543
1968+328178377+328360708+327558761+326371068+325504132+325134652+325133096
1958+325422914+325885357+326223417+326171211+325778537+325395718+325360630
1948+325806029+326860818+328642153+330566620+331204317+329808653+327437565
1938+325618214+324819157+324681361+324817749+324987112+325004749+324827975
1928+324717005+325233284+326659256+328322286+329277331+329713578+330368097
1918+330750915+329685678+327503183+325843266+325614101+326320344+326889681
1908+326698568+325943899+325195269+324764876+324606443+324609518+324834274
1898+325467265+326404044+327065565+327243710+327696667+328876320+329734142
1888+329106634+327565467+326430425+326048199+325981728+325914109+325838449
1878+325877984+326120005+326586746+327690183+330442904+335222762+339985687
1868+341106983+337743057+333042749+329998765+329019859+329033716+329134682
1858+329030381+328779245+328575942+328613735+329102891+330310963+332462890
1848+335796656+340315966+344512184+345271411+341772358+337282096+334800483
1838+334480023+334908044+335350294+336762928+340346867+345086968+347876926
1828+347560726+346205856+345017199+343075949+340287362+338192235+337680402
1818+338070705+338435887+338942088+340475955+343098180+345389051+345891361
1808+344877366+343891976+344279685+346572001+350191065+353357950+354390322
1798+353680300+353542542+356042903+360953813+364765879+363608087+358764241
1788+354784182+353843920+355007604+356783567+358753904+360541168+361296245
1778+361390282+362967611+367913460+375506618+381522113+381892223+377818201
1768+372875575+369109230+367838356+369672083+372868758+374527897+374519560
1758+374635977+374962550+375230064+377340160+383153723+390891494+395681096
1748+395232288+392102863+389621509+389272593+390833841+392785133+393465811
1738+393857040+397398851+405113168+411412850+409867089+403497935+397647098
1728+393694716+391771991+391932981+393575261+396738293+403217157+414330785
1718+426959272+433153393+429533551+421690479+415414547+413060429+415171451
1708+421184242+428842166+435081454+439924151+446786538+456811808+465242112
1698+467885531+466028498+460657962+453609131+449376231+450198187+454852476
1688+462209355+473551480+488330709+497764374+494810759+486907885+482412918
1678+483628919+489412100+496308204+501398110+505920088+511646988+515650871
1668+514156204+510428319+510220793+514196294+518032111+518289213+517240019
1658+519480722+528011993+543556784+560495276+564725286+557810915+554628246
1648+557791018+559579505+553407688+543896919+537857265+537086256+541454988
1638+550394012+559960360+561337091+552197876+541839066+536865724+536950832
1628+538923540+540896025+543231544+545174907+544465551+542268199+542831496
1618+547225016+550536365+547776938+542033736+538649209+538817090+540724328
1608+542169827+542423853+542161194+542057745+541997017+541623647+541238013
1598+541593784+542813674+544048275+544468108+544153280+543654971+543241770
1588+542954730+542915196+543175596+543489424+543769090+544991945+548943215
1578+555983376+562243524+562107137+557822772+556543450+560025274+563775539
1568+563485053+561080730+560296826+562801412+570579532+586423034+606691105
1558+614028828+604023936+592325744+585697191+583332809+583462416+584765562
1548+587534326+593891661+605245235+620393981+636647460+649158493+649596445
1538+639705932+632322412+633031805+638269362+641481821+641823215+644281004
1528+651522245+661532954+671382561+680884846+690157633+696832056+699956850
1518+701540812+701718956+699502596+697115502+698680344+706515450+720363902
1508+736317855+743474618+734900405+722162837+715657518+716237007+721346588
1498+727066337+729073799+726892564+725330389+728645629+736255979+742803982
1488+743180057+738549481+733593813+731216797+731696320+734058145+737785919
1478+743311294+750914827+759810945+767607147+770190763+766036969+759986274
1468+757558200+759772930+763201030+763981191+763581847+766915613+776170615
1458+787263456+790182539+782110821+771912186+765347584+762668893+762300080
1448+762075250+760466761+757854096+755553480+754426515+755221571+758637073
1438+763521231+765781312+762908988+758511690+756664142+757147890+757428816
1428+756630499+756355576+757666614+759926028+762771674+766568142+769622464
1418+768180263+762345209+756392405+752870268+751362411+750407663+749438908
1408+749366806+750815306+752415125+752682194+752870861+755151024+759394929
1398+763871444+767485617+769218304+767712892+764095088+761884360+762705871
1388+764458121+764129991+762319421+762623171+766823280+773464654+780406442
1378+787213807+794515220+801665387+806459510+808087414+808617402+810123777
1368+812727920+816025968+820052527+823793343+824790257+822059619+817769103
1358+814526707+812822402+811377533+809097073+806400153+804414477+803436237
1348+802840075+802150616+801683172+802259030+804422332+807696222+810649096
1338+812108786+812178739+811663424+811118023+810921278+811608810+813533425
1328+816389890+819367589+821766317+823555842+825412429+827903491+830634870
1318+832796986+834577099+837095875+840719311+844340599+846786902+848284680
1308+849955417+852387936+855282862+858117763+860552580+862370560+863650030
1298+864851025+866138943+866775417+865766795+863038528+859508092+856163729
1288+853472885+851393246+849422391+846772007+843019556+838712219+835031131
1278+832801062+832000078+832057878+832259291+831948946+830946623+829939853
1268+829897096+830923947+832210680+833158463+833921580+834668617+835070554
1258+834942503+834839796+835515841+837121960+839306381+841768616+844312958
1248+846573113+848316248+849957714+852044912+854244154+855674795+856386855
1238+857543387+859760711+862204939+863869969+864883630+865905443+867157272
1228+868609329+870281770+872066477+873877936+875918597+878343706+881047889
1218+883938220+886768156+888910191+890154462+891345600+893434280+896303714
1208+899000783+900874192+902347146+904479177+907590039+910707942+912929193
1198+914704267+917017998+920082917+923517167+926954381+929849010+931539162
1188+932244478+933394267+936125202+939731001+942382793+943287596+943408088
1178+944233971+946547333+949959352+953155804+955138516+956234283+957184957
1168+957914209+958200692+958966477+961499481+965258082+968056377+968627566
1158+967549583+965875068+964618421+965222957+968771549+974524792+980115453
1148+983593943+985153376+986651006+989499543+993275410+996395461+997728360
1138+997482040+997071137+997984610+1000324352+1002729009+1004040492+1004524684
1128+1005264755+1007199077+1010519208+1014073728+1016055699+1016018943
1120+1015290136+1014963340+1014736805+1013977764+1012818638+1012110209
1111+1012799964+1015070790+1017934443+1020157250+1021355799+1021815537
1103+1021658216+1020892431+1020377634+1021338533+1024088883+1028256164
1094+1033268373+1037657224+1039194426+1037595199+1035665990+1036330994
1085+1039530485+1042590438+1043155700+1041230863+1038608267+1037787942
1077+1040809066+1047125569+1053043174+1055301106+1054649144+1053912630
1068+1054124343+1054070100+1052719564+1050313648+1047655261+1046020020
1060+1046275010+1047335727+1047275258+1046270341+1046683098+1050263480
1051+1056216210+1062168050+1066330811+1067698316+1065827871+1061662665
1043+1058031744+1057861899+1061017224+1064574782+1066915117+1069006835
1034+1071256542+1072412926+1071867302+1070214203+1067789760+1065097211
1025+1064126308+1066678727+1071305005+1073741823+1071168210+1065147676
1017+1059342041+1055712306+1053918781+1053005752+1052468057+1052040629
1008+1051599713+1051682635+1053082894+1055515043+1057797948+1059291725
1000+1059958878+1059289206+1056507807+1052272350+1048358503+1045353608
991+1042810229+1040932300+1039986295+1039151964+1037448623+1034470998
983+1029665538+1022941094+1016182786+1012015801+1011139676+1012016690
974+1012474501+1011136415+1008168869+1004644583+1000792612+995949433+990586344
964+986403575+983872942+981691040+978905788+975713412+972084270+967457769
954+961943213+956477861+951807195+948285799+946289230+946117681+947280142
944+948206435+947407896+945107577+943031346+942268896+942287125+942374123
934+942603028+943002150+943170068+942981252+942647342+942070743+941164014
924+940673597+941437011+942903444+943606834+943068917+942019538+940952448
914+939747600+938375501+936964571+935632043+934866332+935228179+936254734
904+936627475+935704220+934140341+932909186+932426476+932493540+932507175
894+931916126+930618797+929088412+928294172+928840314+929988769+930332832
884+929514137+928403548+927889789+928214585+928745313+928329074+926883390
874+926068771+927257464+929420322+930113115+928396360+925673429+923692496
864+922747084+922285642+922512843+923890352+925451415+925597103+924346607
854+923140351+923017710+924123852+926050171+927745436+928124623+927169430
844+925951762+925616666+926264923+926813807+926097597+924019663+921440640
834+919220946+917779411+917340126+917964225+919348922+921094800+923066099
824+925057926+926341546+926313535+925530558+925315658+926370002+928233555
814+930051905+931373540+932271378+933083255+934045488+934805419+934635278
804+933589604+932830044+933169956+934126483+935178826+936629179+938226331
794+938441675+936564857+934382585+934241344+936260663+938664060+940266102
784+941342603+942193533+942476312+942230362+942099570+942388351+942832379
774+943223941+943461369+943096187+941732017+939836895+938334077+937430312
764+936604873+935685768+935255449+935695328+936360628+936046133+934337604
754+932653752+933262882+936745744+941030924+943624396+944360614+944899643
744+946047283+947038416+946932967+945617631+943798762+942599323+942967395
734+945089199+947956410+949634630+948697444+945777324+942915893+941473470
724+941500443+942523664+944186545+946322132+948723158+951001024+952319102
714+951610895+948783923+944802641+940653367+937181694+935160152+934576143
704+934576884+935162005+937131008+939555747+939938343+936935449+931157973
694+924010326+917205628+912256481+909174149+906591421+903400971+899458742
684+895404913+892565047+891825272+892398240+892794249+892461302+891587548
674+889843375+885693434+877037114+864337784+855647154+861329407+876746258
664+888969992+891951767+886672711+877915981+870512083+866300266+863877157
654+860879895+856992280+854481433+855733559+860430309+864786555+864145782
644+857884856+851285277+850783449+857511523+865504691+867199437+861727935
634+854699816+850112294+847051599+843330494+838824486+834739163+831406509
624+828105052+825020200+824015802+826819431+833189067+841218694+848350781
614+852285600+852435140+851127140+850676147+849750743+846126862+840426751
604+833878822+825958053+817456313+812935558
##END=
