##TITLE=<SNM>
##JCAMP-DX=4.24
##DATA TYPE=INFRARED SPECTRUM
##DATE=2/5/2025
##SAMPLING PROCEDURE=Instrument type and / or accessory
##ORIGIN=Admin
##XUNITS=1/CM
##YUNITS=ABSORBANCE
##RESOLUTION=4
##FIRSTX=4497.3318
##LASTX=599.83466
##DELTAX=-1.4281778
##MAXY=1.8357201
##MINY=0.35789987
##XFACTOR=1
##YFACTOR=1.7096475e-09
##NPOINTS=2730
##FIRSTY=0.37233618
##XYDATA=(X++(Y..Y))
4497+217785345+218073075+219088394+220079046+220256345+219362353+217787855
4487+216352778+215702187+215888864+216573065+217299851+217624048+217395098
4477+216960714+216854589+217279787+218082367+219073594+220037105+220617045
4467+220596162+220238286+220054763+220210377+220369286+220172045+219836429
4457+220209942+221814596+223728352+224204572+222785811+220839615+219717352
4447+219503115+219730914+220124787+220342581+220016221+219397652+219197813
4437+219595016+220031875+220058494+219834895+219665126+219491871+219190283
4427+219091845+219714755+220931760+221778355+221362100+219856511+218293257
4417+217513007+217685374+218569604+219658084+220235915+219958121+219270504
4407+218784121+218552626+218331189+218025382+217570062+217010168+216822183
4397+217442269+218555676+219467275+219802054+219365909+218054946+216408299
4387+215453800+215554853+215920939+215542337+214403636+213517557+213674583
4377+214489784+215143060+215626532+216356317+217049163+217132122+216811079
4367+216630224+216495650+216066146+215457478+214809275+213904562+212839633
4357+212314289+212721497+213549737+214083081+214213088+214183855+213973365
4347+213461863+212955415+212948041+213377301+213607523+213207514+212301407
4337+211174159+210065807+209342193+209341321+209972912+210786823+211480663
4327+212045490+212384278+212224428+211645603+211318948+211831915+212917989
4317+213721388+213768123+213330479+212883003+212525267+212044444+211344956
4307+210700901+210639681+211457444+212711090+213463083+213248758+212463209
4297+211690211+211177697+211089248+211696155+212970860+214267911+214813302
4287+214494700+213840657+213172720+212322691+211414927+211149754+211859213
4277+212904653+213416209+213230646+212729847+212122486+211424637+210922547
4267+211057278+211809218+212612705+212880859+212351645+211270156+210462957
4257+210707020+211912380+213287997+214206063+214594096+214701337+214830646
4247+215169783+215728474+216432058+217102383+217423286+217313552+217175544
4237+217304784+217356888+216878436+215973182+215015686+214168131+213564222
4227+213464094+213806264+214055365+213860459+213546546+213673311+214264896
4217+214783214+215006673+215493545+216669515+217905573+218206237+217412687
4207+216076745+214701703+213678540+213318433+213543513+214068125+214907695
4197+216099302+217167595+217589237+217436848+216996258+216281970+215407798
4187+214837950+214838613+215132531+215350830+215446409+215507089+215514045
4177+215474823+215609833+216137146+216855304+217236625+217071755+216716703
4167+216589050+216709539+216757441+216431431+215910445+215809462+216320861
4157+216886716+217227195+217825787+218772982+219249220+218823900+218175976
4147+218026079+218332287+218723650+218888328+218501411+217413419+215973618
4137+214888119+214709443+215401557+216328443+216823229+216853700+216960819
4127+217532810+218328696+218734231+218419045+217754334+217484280+217883417
4117+218405431+218376738+217876549+217584530+217781022+217906253+217347318
4107+216386875+215906749+216266247+216980238+217441973+217486424+217330653
4097+217328422+217621695+217881499+217698848+217160448+216675791+216557027
4087+217003945+217963603+218888938+219192950+218906510+218432782+217947775
4077+217480427+217139425+216885461+216540676+216192806+216098500+216196903
4067+216225125+216208931+216347113+216565273+216675599+216822183+217268526
4057+217895166+218324059+218407854+218335146+218370637+218634102+219039776
4047+219365438+219464643+219437100+219488646+219623586+219608351+219281678
4037+218794266+218475629+218548547+219009480+219682715+220320599+220678440
4027+220630851+220359751+220332487+220794571+221343796+221420008+221116136
4017+221018954+221368863+221860006+222115504+221976050+221509068+220994706
4007+220729742+220770968+221043672+221540096+222152634+222513421+222301066
3997+221628668+220964200+220765338+221213702+222053639+222660546+222617699
3987+222262612+222282920+222839327+223451046+223666835+223583109+223734714
3977+224554412+225926351+227319174+228262010+228532866+228137651+227429273
3967+226989276+227112258+227646858+228356299+229030929+229336771+229046810
3957+228379762+227816208+227733825+228490995+230518180+233606145+236236525
3947+236818748+235799996+235106208+235485159+235700425+234576402+232630781
3937+231292851+231737207+234307411+237931511+240252509+239752250+237695902
3927+236531524+237065758+238100129+238430898+238465849+239315269+240917081
3917+241684763+240224688+237098965+234084998+232307350+231951967+233284510
3907+237041754+243421585+250854631+256529640+258745961+257488445+253106809
3897+247010002+242327092+241620491+244380721+246972227+246555937+245186996
3887+246343059+249733537+252201416+252851764+253157919+252512871+249680509
3878+246981396+247534021+251084645+255352834+259155871+261720689+261637156
3868+259951949+259742069+261214119+261010324+257338496+252910666+251186970
3858+253708243+261023694+272113524+279839460+276015086+265449205+256455520
3848+252203944+252806685+256890741+262301884+267422962+271776706+274678848
3838+274725269+272107824+269021863+266584577+264113751+261401006+259673667
3828+259724062+261207635+264661791+271526123+279956376+283733352+281123037
3818+277050957+273603285+269075048+263932129+260944728+261751735+265912683
3808+270725408+273285014+274812742+278491664+283291595+284808253+282881841
3798+280994233+279862383+278289751+276674429+276391423+277703117+280090113
3788+283386807+287516674+291848612+296216668+301771048+309009625+315949419
3778+320598006+324150722+329246017+337469981+349084964+362627839+375218343
3768+385599498+394803412+403026469+409894096+416721071+424754296+432277082
3758+436550361+438489166+442001161+449774896+460518494+469092176+472779187
3748+475464111+481381702+489819415+495548707+497148289+499793154+508168287
3738+523387583+541868135+555580971+558914917+555150160+552076297+554259602
3728+561046380+568633279+573612618+575673621+575812692+574131076+571457693
3718+570214313+572224973+577081940+582173575+583867393+580890381+575735853
3708+570801104+567462731+567291898+570125028+572654982+572032909+569549184
3698+568034530+568870876+572274549+578092639+585743409+593268948+597172080
3688+596161450+593047913+590359015+588766510+588792798+591472840+597916559
3678+608053739+617284044+617875541+611326046+606130796+604404346+601428938
3668+594943173+588190144+583612748+580629008+578073011+576613546+577951162
3658+581782753+585076745+586318660+588226262+593443685+600139469+601763141
3648+594451316+582914184+573333639+568221748+566685305+566061384+564821352
3638+564097477+565460578+568468688+571806539+575792715+581193556+585344847
3628+583962153+578668796+574648767+574701900+578938432+585247229+589977118
3618+591575967+592509408+594947357+597857988+599616304+600909887+602771609
3608+603954116+602781719+600063048+597945566+597480275+598261152+599521963
3598+600920695+602229408+603474600+605741229+610857408+619753998+630567324
3588+637716266+636252478+628914575+622775635+621082653+622177443+623161227
3578+622896333+621597451+619628349+618264969+620185262+627264615+637648421
3568+645453219+645634649+639949635+634004676+630671427+629182816+627776415
3558+626304399+626024095+627139246+627972279+627271240+626606598+628389109
3548+631829320+633227076+630913381+627340618+624880705+622895845+619951814
3538+616470604+614269728+614557353+617075838+620606694+623445366+623872935
3528+621678056+618866716+617499292+617219197+616075180+613516323+610939059
3518+609512854+609085286+608990736+608886702+608745644+608524817+608044395
3508+607422775+607561463+608938301+609990905+608777649+606126124+604413131
3498+603950281+602907228+600666259+599001866+599204355+600583632+602261274
3488+604293200+606491914+607724207+606972336+604319557+600882623+598279699
3478+597457544+597710305+597437253+596069829+594500195+593493331+592793617
3468+592100735+591786056+591815411+591077207+589165002+587844993+589006442
3458+591847974+593642757+593059557+591265680+590010517+589980116+590654240
3448+590862168+589864996+588205693+586796990+585603884+584189603+582885387
3438+582215411+581842091+581022619+579226267+576239494+572930057+571221386
3428+571738868+572655784+572315375+571384235+571129416+571529163+571987795
3418+572147436+571582574+570156788+568568677+567539954+566968886+566416785
3408+565888739+565786170+566361107+567284124+567580884+566490277+564457654
3398+562592062+561401257+560572931+559832914+559406426+559547973+559894134
3388+559480511+557947938+556587556+557026978+558825701+559766254+558654172
3378+556398490+554346064+553033759+552525586+552664936+552950121+552917210
3368+552639695+552498392+552538555+552391117+551850415+551419744+552011730
3358+553882586+556088726+557116648+556110237+553588650+550901077+549170582
3348+548691206+548973428+549265411+549086874+548474772+547891991+547758881
3338+548070040+548530415+548783874+548543035+547950596+547736708+548432099
3328+549558510+550188358+550021954+549283401+548171458+546970403+546099613
3318+545767327+545793719+545731870+545359282+545302001+546466065+548455423
3308+549453396+548320465+546046794+544470955+544400739+545384593+546648611
3298+547718090+548366695+548508695+548217513+547702960+547317855+547432173
3288+548004077+548447160+548198687+547276402+546267830+546099787+547490953
3278+549987787+551991300+552415626+551710333+550851361+550335204+550275971
3268+550494392+550597309+550648210+551277605+552517323+553242140+552396974
3258+550101617+547222921+544569654+542773964+542270881+542975860+544334952
3248+545711057+546539558+546297150+544835525+542884831+541741720+542181421
3238+543674319+544744147+544315254+542707374+541122540+540372099+540313737
3228+540226194+539456334+537984179+536597127+536128907+536417021+536521612
3218+535948209+534914918+533505170+531513371+529147172+527156210+526304699
3208+527008737+528998687+530965314+531282120+529725142+527987500+527892044
3198+529364303+530569681+529933488+527677004+525268515+523790817+523175054
3188+522771228+522160346+521303780+520335266+519517398+519163114+519357165
3178+519736726+519539467+518112984+515673361+513271008+511641653+510519983
3168+509432340+508544083+508261094+508553461+509011465+509089735+508243767
3158+506357222+504044991+502157436+501046155+500463304+500016909+499606424
3148+499343133+499126560+498689787+498101776+497676648+497340039+496680104
3138+495596191+494342562+493179265+492450474+492447127+492754939+492437365
3128+491205596+489800449+489133576+489507559+490450832+490906117+489959951
3118+487859587+485953832+485180172+484941704+484003522+482297885+480994540
3108+480717897+480675956+479895671+478548503+477584138+477627683+478565935
3098+479745653+480312432+479727035+478251115+476729872+475780848+475338323
3088+475007222+474660572+474469798+474412099+474099511+473298412+472341996
3078+471746280+471629975+471678610+471413402+470472709+469017219+467784160
3068+467342437+467475860+467563996+467249978+466594924+465941543+465646806
3058+465675847+465597334+465102758+464255500+463225277+462128082+461115326
3048+460393543+460125929+460291567+460600912+460630721+460119375+459176207
3038+458211459+457578647+457252219+456882768+456144459+455047891+453880131
3028+452804795+451721197+450678667+450071446+450016083+449980417+449535975
3018+449004443+448886917+449094809+449115170+448591412+447497877+446020667
3008+444521737+443490852+443212257+443368097+443241472+442498666+441459310
2998+440496688+439638832+438917292+438629492+438835781+438918408+438206387
2988+436874105+435679430+435012976+434671939+434273865+433539322+432527054
2978+431676833+431174796+430526122+429316491+427972356+427159264+426860308
2968+426565187+426046101+425536394+425293289+425285166+425299181+425151812
2958+424748300+424114512+423422573+422838571+422363378+421917228+421477840
2948+421070423+420719346+420389465+419923965+419200160+418400456+417869796
2938+417609712+417221923+416528589+415874302+415509139+415054377+414007211
2928+412525573+411294431+410710813+410460875+409933771+408994822+408163706
2918+407905889+408052456+408140835+407998208+407761413+407570360+407366617
2908+406917572+406139449+405360908+404971550+404863612+404561309+403866162
2898+403088283+402619505+402457877+402255772+401776571+401090732+400296362
2888+399397332+398564299+398100611+397995951+397872429+397443326+396745390
2878+395998226+395482034+395357396+395398047+395159788+394553090+393932203
2868+393519033+393089721+392378746+391522772+390904220+390665090+390525600
2858+390070350+389151796+388017680+387084832+386589628+386448709+386457773
2848+386540191+386700390+386811361+386634706+386071971+385223563+384168553
2838+382937376+381800470+381218630+381257538+381389009+381139036+380598300
2828+380079563+379653773+379214351+378713115+378201455+377728669+377210908
2818+376499584+375696359+375199342+375244072+375563668+375597695+374915830
2808+373514205+371899667+370798322+370575718+370884331+370944785+370296913
2798+369247689+368409217+367912340+367420727+366813924+366336152+366056894
2788+365694241+365050413+364274626+363655168+363342301+363209087+362925715
2778+362336204+361707193+361365529+361221646+360928478+360356155+359632106
2768+358880758+358194571+357685735+357293414+356709237+355774367+354825761
2758+354386094+354571639+354963751+354999068+354391882+353292873+352175492
2748+351504226+351370733+351453360+351380181+351018784+350380952+349505281
2738+348545030+347708719+347019917+346391673+345941269+345875586+346041084
2728+345956260+345355314+344442966+343590235+342957738+342451307+341939822
2718+341436007+341049996+340807519+340585541+340247782+339799783+339373609
2708+339070504+338858010+338642378+338408373+338202921+337967870+337530296
2698+336832638+336032760+335309338+334717283+334236826+333772581+333163443
2688+332430085+331922364+331955834+332357777+332598406+332372246+331864037
2678+331400873+331039302+330612186+330025570+329362044+328785607+328423164
2668+328249055+328093632+327860011+327638243+327511443+327403471+327208757
2658+326916460+326525847+325996232+325392811+324944394+324795038+324780360
2648+324599348+324106306+323336933+322459972+321775737+321491876+321461371
2638+321378988+321167993+320969479+320892779+320927747+320957137+320808060
2628+320412845+319864508+319230896+318484115+317722552+317250777+317253566
2618+317502806+317585224+317378308+317109927+316970926+316896143+316740581
2608+316453339+316034452+315499712+314947332+314524156+314259610+314046733
2598+313829113+313671216+313582592+313422742+313086551+312680424+312423269
2588+312417203+312533718+312516774+312240409+311858373+311605960+311478184
2578+311266317+310901922+310538015+310257885+309956383+309598194+309336472
2568+309232543+309075029+308651679+308072244+307646419+307484791+307375633
2558+307096723+306725843+306521646+306562925+306662530+306632652+306483052
2548+306325608+306226351+306212614+306298902+306421030+306443691+306303574
2538+306063398+305817120+305627218+305492435+305289179+304880751+304371427
2528+304074075+304149276+304440213+304703539+304838357+304836265+304643783
2518+304216598+303705879+303419683+303509527+303826054+304128358+304277888
2508+304227824+304011041+303740534+303517545+303372373+303285039+303168874
2498+302927198+302626499+302473343+302551158+302726035+302828848+302806884
2488+302726105+302676703+302624268+302411983+302015826+301664679+301555625
2478+301590838+301545689+301371092+301179934+301012205+300756863+300317336
2468+299790616+299439503+299463768+299803934+300203297+300455536+300537431
2458+300535095+300524636+300501591+300387482+300143053+299859890+299671661
2448+299620272+299644920+299620829+299421618+299061929+298736721+298613164
2438+298648376+298683414+298651584+298634814+298732363+298921010+299076433
2428+299079361+298856233+298431733+298012846+297877644+298116007+298571502
2418+299008065+299262221+299330206+299336899+299338991+299258874+299108193
2408+299072319+299256504+299528510+299683863+299645443+299508673+299461084
2398+299598482+299812405+299943388+299999693+300112408+300323577+300515432
2388+300519162+300223483+299579620+298518857+296880438+294501339+291442049
2378+288033407+284610279+281265264+277907697+274452704+270902882+267354942
2368+263986795+261015327+258678482+257231639+256893164+257811805+260119974
2358+263933628+269193201+275663922+283176806+291333483+298832003+303881278
2348+305412667+303798338+300819792+298482251+297300789+296443072+295316243
2338+294147821+293267930+292419923+291083772+289329151+287895538+287335174
2328+287432182+287578662+287456691+287239630+287282617+287782353+288721756
2318+289925233+291084678+291937009+292527007+293148871+293982218+294923747
2308+295756432+296334437+296629663+296734882+296832570+297059010+297359883
2298+297544731+297510320+297342451+297178871+297061345+296961879+296883924
2288+296889432+297040880+297316687+297572447+297603615+297280952+296663411
2278+296008078+295628796+295646541+295850459+295893376+295660173+295344901
2268+295138647+294993649+294777773+294527835+294411809+294502140+294705431
2258+294884003+294959238+294922074+294817657+294708185+294612902+294513436
2248+294415678+294341070+294284173+294266985+294378374+294643861+294917576
2238+295028791+294985909+294923817+294911022+294929674+295002086+295185190
2228+295415395+295488121+295278416+294926780+294731648+294860818+295191884
2218+295442763+295456221+295322344+295199275+295090256+294896309+294632810
2208+294449496+294433145+294519433+294616075+294696750+294754031+294771846
2198+294767349+294769475+294755077+294688487+294608021+294583443+294612658
2188+294659027+294758319+294972033+295243587+295414524+295410863+295335941
2178+295341135+295451374+295553734+295524170+295323355+295010244+294722270
2168+294607254+294714948+294980993+295308364+295603729+295778710+295809913
2158+295765845+295739802+295802626+295984022+296215273+296357273+296364699
2148+296335553+296356227+296405106+296443561+296506036+296650163+296864226
2138+297077418+297255955+297434178+297651100+297920282+298246990+298605354
2128+298929203+299183464+299413286+299700423+300095011+300582335+301096436
2118+301570861+301980440+302344277+302706581+303094300+303492897+303885881
2108+304258608+304537309+304646432+304671116+304817927+305179428+305658526
2098+306110464+306451117+306662252+306781206+306865646+306942556+307019186
2088+307130785+307310751+307521014+307696100+307855009+308077997+308386436
2078+308741697+309125686+309528710+309904890+310184462+310309413+310339640
2068+310528462+311056194+311674223+311935456+311779406+311544146+311485122
2058+311605262+311820162+312025230+312124836+312140734+312184941+312297725
2048+312438121+312621260+312927573+313345833+313701303+313827231+313766324
2038+313707927+313776713+313994054+314368838+314887018+315461955+316011372
2028+316558662+317188928+317922182+318692670+319500636+320524478+321912891
2018+323449648+324678872+325468430+326155176+327036286+328081395+329227086
2008+330579903+332199043+333947980+335658463+337303054+338961207+340632991
1998+342177488+343646679+345503241+347991533+350415398+351736174+351840417
1988+351483203+351244700+351208268+351295427+351428432+351532884+351554813
1978+351433731+351155031+350812146+350459988+350105041+349982704+350380569
1968+350943722+350756190+349497889+347892555+346688363+345893854+345218718
1958+344636285+344226393+343886855+343466713+342984966+342587311+342381092
1948+342453364+343040783+344288346+345512271+345297894+343157472+340380473
1938+338436159+337529633+337058625+336583363+336032969+335474244+334973008
1928+334681443+335002433+336183441+337589703+338241167+338254659+338426293
1918+338466630+337338127+335298984+333836242+333783772+334597491+335105037
1908+334645429+333566327+332626437+332143156+331952661+331913160+332120739
1898+332711225+333524875+334112921+334457827+335275660+336788257+337804255
1888+337182949+335552164+334284520+333872256+334057975+334504196+334928731
1878+335185154+335362819+335711840+336812591+339609602+344336527+349049019
1868+350463475+347805257+343850981+341315448+340693724+341102256+341655125
1858+341962902+342039846+342114559+342419128+343165734+344610207+346963089
1848+350437013+355097523+359689143+361265261+358688554+354839880+352754229
1838+352776507+353549575+354296042+355906222+359525841+364267549+367343643
1828+367646260+366869043+365930408+364006768+361276313+359414242+359261470
1818+360034154+360726826+361410747+362816138+364929018+366548820+366636154
1808+365686746+365144057+366111211+368804502+372303179+374789903+375081015
1798+374069130+373943098+376299640+380712374+383974885+382717246+378286732
1788+374860467+374299963+375551500+377089687+378521121+379680130+380089081
1778+380252452+381958577+386569093+393208014+398237835+398434118+394903924
1768+390486274+386887608+385549364+387271527+390427947+392131527+392145298
1758+392226949+392579386+392929069+394903087+400099557+406829158+410757670
1748+410088147+407265756+405135096+404829481+406128014+407757439+408235595
1738+408384254+411303426+417955595+423375507+421859284+416008771+410421235
1728+406382136+404369803+404713071+406679732+409856025+415664632+425351512
1718+436064012+440615782+436312451+428458112+422103853+419150897+420122479
1708+424678747+430826542+435791692+439733452+445776343+454556034+461262730
1698+462301006+459262704+453098383+445629287+441090521+441321877+444863576
1688+450488381+459304471+470817476+477542894+473739613+465755685+460587594
1678+460194994+463568162+467717082+470448444+473261840+477631796+480539883
1668+478408560+474260128+473251416+475859535+478300587+477795377+476466373
1658+478309198+485961049+500122651+515862462+520408654+514666184+512021179
1648+515188895+517482125+512916793+505406837+501107167+501771564+507288466
1638+517088444+527656365+531067604+524946723+517465495+514751670+516809360
1628+520929588+525181844+529498807+533069234+533942221+533164900+534537798
1618+539204897+543156942+542167405+538733714+537260409+538555107+540918971
1608+542689315+543717306+544829284+546465542+548275945+549844916+551357547
1598+553280769+555607224+557734467+559144774+559986488+560778905+561786327
1588+562949206+564240662+565775920+567577816+569638226+572567404+577700841
1578+585378456+592200655+593027971+589925101+589569073+593565569+597556696
1568+597394161+595046579+594399788+597313905+605482122+620866777+639434767
1558+645701030+636895574+627056409+621686214+619968061+620619733+622594065
1548+625811566+631767472+641795528+655383796+670567845+682562633+682985599
1538+673521638+666230661+666090230+670014210+672916613+674584353+678919864
1528+687164711+696524640+704593077+712577353+721505041+729023120+733446836
1518+735972781+736736923+735505189+734677385+737259530+744329610+755597350
1508+768582546+774837722+768266332+758105236+753200610+754254261+759033238
1498+764458379+767077689+766184411+765697993+769478752+776845243+782494767
1488+781985757+777330686+773281685+772094994+773139929+774932481+777488339
1478+782224504+789579630+797996216+804514334+805657863+801081444+795633991
1468+793957325+796559413+800237743+801664365+802271133+806335614+815384488
1458+825214309+827261924+820299015+812253657+807594193+806196926+806412104
1448+806151394+804286255+801643168+799674903+799052516+800172408+803792934
1438+809698287+814656255+815002730+812383072+810733391+810775576+810588985
1428+809209847+807938995+807923307+809000456+811343436+815796368+820913732
1418+822138703+818057697+812573637+808786392+806758231+805367100+804185011
1408+803972552+805323729+807157212+807988223+808458534+810231075+813330667
1398+816570411+819212313+820462316+819408805+817081653+815906746+816712167
1388+817902902+817449186+815835345+815846641+819126688+824576931+830107639
1378+834918342+839416039+843585877+846587642+848115578+848967159+849752220
1368+850577932+852254528+855808534+860186090+862368627+861088781+858471284
1358+856870621+856720429+857321688+857942680+858165180+857840320+857077084
1348+856192313+855394980+854685365+854376333+855226310+857371543+859430315
1338+859644308+857955789+855897018+854689130+854359668+854458820+854909050
1328+855915565+857341142+858715678+860054863+861986521+864650248+867246408
1318+869305737+871483743+874125714+876103253+876237757+875046604+874096359
1308+874472887+876436759+879547090+882574096+884197490+884420617+884521304
1298+885371420+886799577+888415021+889713415+889659168+887597049+884230959
1288+880785588+877978014+876106251+875005186+873774218+871618526+868827407
1278+866311922+864743473+864188094+864121993+864068442+864200506+864872120
1268+865934766+867014077+867905123+868408764+868546267+868929976+869994156
1258+871155117+871688811+871933624+872714920+874136592+875718497+877232070
1248+878708060+880077925+881427917+883135681+885330211+887734621+890148375
1238+892492122+894518749+896018656+897106891+898049466+899153739+900937366
1228+903792355+907262688+910374065+912849736+915190346+917419740+918623026
1218+918197759+916931788+916303683+917264178+919909636+923670523+927540255
1208+930677570+933189709+935990380+939778042+944169963+947829187+949831479
1198+950604059+951083853+951569644+951865637+952163373+953305159+956202751
1188+960875952+965778904+968673080+968720773+967050384+965305316+964679721
1178+966072945+969632320+974164322+978196449+981093204+982556364+982384347
1168+981396519+981102060+981916336+983083294+984371369+986403992+989124756
1158+991404633+992900355+994889469+998349413+1002325270+1005119526+1006034628
1148+1005240433+1003498991+1002139864+1002018260+1002915303+1004419532
1140+1006323997+1007956873+1008672974+1008974475+1009924232+1011756878
1131+1013795777+1015233207+1015884880+1016612485+1018414729+1020977560
1123+1023160656+1024720458+1026576671+1029620412+1033196730+1035108935
1114+1034021815+1031717115+1031458566+1034245012+1037570800+1038262496
1105+1036169279+1034106882+1034663516+1037737658+1040391553+1039639613
1097+1036570212+1035739131+1039382737+1044226839+1045371345+1042052111
1088+1037638157+1035903618+1039043095+1046334490+1052972887+1054333897
1080+1052489886+1052947018+1056299931+1058330253+1056915066+1054501033
1071+1053770778+1054883697+1056706372+1058595078+1060600229+1062708995
1063+1064345637+1064685139+1063164942+1060141632+1058334297+1060808226
1054+1066385791+1069298374+1065696814+1059507810+1057678441+1062224389
1045+1068934188+1072020881+1069963713+1066338934+1065036496+1066353925
1037+1067661314+1067069398+1065799662+1066441852+1069308624+1071495276
1028+1070743893+1069134236+1070016636+1072712716+1073741823+1072131608
1020+1069839738+1068142154+1066951908+1066157852+1065341832+1063924344
1011+1062473595+1061928815+1061721236+1060946635+1060214706+1060370268
1003+1061113911+1061829244+1062902349+1064786662+1066311252+1065624856
994+1063011682+1061098640+1061359212+1062751459+1063785725+1064051178
985+1063545724+1061527185+1057516395+1053119594+1050834348+1051110329
977+1051931020+1051163112+1048356515+1044366782+1039994525+1035175106
968+1029996452+1026115842+1025350514+1026792686+1027572936+1026678891
960+1025057799+1022879794+1019595145+1015589933+1011742514+1008354320
951+1005511812+1003115421+1000368161+996476674+991777674+987434633+984435588
941+983198623+983412617+983965625+983690620+982333237+980511050+979010307
931+978426898+979133516+981127929+983773038+985715225+985648705+983762091
921+981687352+980585519+980084388+979332239+978319448+977656341+977518489
911+977402463+976965551+976744794+977233444+977645672+976844992+975075938
901+973356530+971673171+969904605+969193246+970092172+970867680+969560152
891+966321035+962684960+960316041+960475019+962644867+964078113+962649190
881+959410700+956688682+955183546+954516045+954868587+956240544+957460215
871+957724273+957915396+958606952+958243812+955217922+950606360+947049774
861+945728998+945931416+946823300+948318046+950144346+951202599+950934637
851+950608870+951924766+954697197+956979863+957673024+957681391+957801043
841+957058725+954302680+950410844+947465838+946414209+946223992+945372272
831+943970821+943975911+946949715+951482276+954014008+953228041+951583659
821+951375314+951851761+951438696+950728174+951430677+953641943+955840169
811+957249778+958792985+961227866+963467092+963520434+960477111+955520120
801+951797513+952623853+958440583+965628014+969484777+968364466+964355210
791+960733290+959552317+961132619+964397814+967081343+966727546+962873991
781+957959533+954981406+954716442+955822528+957012566+958212574+959734445
771+961690508+964156069+967106654+970403575+973993699+977368366+979263418
761+978860742+976769268+974616574+973303747+971692974+968440539+965156727
751+965168301+968488511+970716720+968892930+965554382+964409109+965772071
741+967928600+969686637+970194462+968635497+965673965+963690778+963919484
731+964660198+963667837+961466264+960794580+962940302+966278571+968215459
721+967585681+965348128+963541073+963871441+966946769+971460154+973853268
711+971458620+965844518+960452009+956456838+953552343+952752988+955237236
701+959534536+961962514+960167731+955328439+949997849+945664918+942678493
691+940922548+939838147+938250106+935812017+933617835+932059358+929854159
681+925998024+921448241+918163871+916788219+916621919+917640776+917904834
671+911744417+896840812+882765428+883338029+894572579+903167319+905766477
661+906879606+910047461+914078821+915697613+913070144+907496066+902031808
651+898067735+894109240+888776976+884359327+884454574+888631037+893227398
641+897024125+901570979+906269142+908085751+906064841+901578161+895731309
631+889928246+885526703+881220757+874835888+868236677+865031517+865884423
621+868588870+869733933+868609649+869848077+877556512+887036929+888130673
611+878197098+866400754+862548106+867573011+874683812+876289774+871588125
601+865756891+861989171
##END=
