##TITLE=<SNM>
##JCAMP-DX=4.24
##DATA TYPE=INFRARED SPECTRUM
##DATE=3/5/2025
##SAMPLING PROCEDURE=Instrument type and / or accessory
##ORIGIN=Admin
##XUNITS=1/CM
##YUNITS=ABSORBANCE
##RESOLUTION=4
##FIRSTX=4497.3318
##LASTX=599.83466
##DELTAX=-1.4281778
##MAXY=1.7262255
##MINY=0.17759676
##XFACTOR=1
##YFACTOR=1.6076728e-09
##NPOINTS=2730
##FIRSTY=0.19922863
##XYDATA=(X++(Y..Y))
4497+123923620+124000133+124452292+124573760+124193962+123826103+123975395
4487+124643943+125498005+126199855+126558640+126621131+126552903+126261697
4477+125472970+124465333+124145338+124891577+125871231+126015231+125282552
4467+124511362+124344116+124699963+125187890+125677347+126229914+126680877
4457+126721780+126345116+125778617+125023787+123998039+123012582+122480462
4447+122275353+121984165+121574726+121241263+120993314+120872162+121086818
4437+121625843+122137730+122215588+121547837+120153480+118676945+117965612
4427+118159200+118610673+118772997+118680671+118470186+117967290+117063742
4417+116197565+116042369+116769032+117884149+118695631+118720350+117914959
4407+116811260+116133898+116041618+116048922+115821791+115590887+115612826
4397+115732783+115737899+115718991+115771137+115726600+115540706+115529444
4387+115820743+115977701+115558316+114720354+113962122+113509740+113138368
4377+112542914+111825511+111439374+111565614+111887120+112118284+112321659
4367+112568997+112732238+112690519+112421410+111950890+111468589+111318824
4357+111670639+112360727+113156118+113994998+114887924+115668884+115951600
4347+115450975+114307958+112924204+111610466+110656978+110468228+111140094
4337+112046312+112358197+111995148+111640821+111766691+112085398+112169846
4327+112147332+112309554+112464602+112259809+111818087+111553009+111593921
4317+111751546+111856330+111879742+111876137+111958175+112293186+113026828
4307+114031387+114826120+115060824+114955586+114948338+115112451+115208012
4297+115104072+114896692+114699379+114543459+114555842+114988954+115828288
4287+116592610+116824311+116518534+115891464+115165867+114705635+114841395
4277+115423919+115903226+115904468+115535320+115168425+115089798+115350640
4267+115773213+116019976+115808610+115201505+114610714+114479208+114979147
4257+115889731+116733977+117152565+117162130+117073354+117259832+117863693
4247+118542140+118764905+118487435+118112374+117875075+117806310+118073761
4237+118745015+119416158+119576285+119224044+118778253+118488659+118297537
4227+118259461+118643744+119396063+119954692+119940965+119588650+119238466
4217+118963192+118905494+119342684+120173973+120826625+120841983+120240235
4207+119379259+118763200+118770800+119295107+119910489+120510402+121341487
4197+122313791+122816075+122429289+121479007+120712591+120560815+120832464
4187+121118304+121278116+121389582+121461517+121449403+121438447+121686823
4177+122445936+123571397+124453006+124698703+124690453+124996907+125506486
4167+125694447+125468104+125130516+124734397+124126291+123503679+123255814
4157+123246888+122917012+122174175+121554780+121426880+121649238+122070782
4147+122774421+123708992+124529464+124943222+124946605+124674307+124263839
4137+123917586+123852945+124051816+124212166+124063078+123644908+123232688
4127+123076694+123250577+123618927+123894636+123874968+123703690+123765374
4117+124225022+124805878+125115649+125090550+124986165+124996749+125035984
4107+124930061+124723877+124705404+125159203+126078212+127045437+127527218
4097+127379826+126890398+126350102+125923294+125771619+125867097+125900427
4087+125683371+125338341+125013044+124796600+124838457+125198234+125687292
4077+126015694+125961768+125508052+124982587+124829467+125124455+125532262
4067+125721447+125617535+125353579+125140907+125078250+125068267+125013887
4057+125023453+125298606+125859376+126445172+126681860+126377501+125711242
4047+125128014+125006750+125376528+125916490+126259435+126308847+126225363
4037+126113137+125872871+125480506+125233557+125455248+126015648+126429925
4027+126444143+126288520+126305306+126528155+126751301+126896682+127124611
4017+127544801+127940615+127935656+127447878+126821586+126426403+126299235
4007+126312110+126474536+126888794+127590348+128509913+129418132+129958039
3997+129905374+129288796+128239496+126996785+126022627+125765150+126278835
3987+127228152+128211199+128999174+129528848+129764303+129691191+129477490
3977+129434279+129699440+130083603+130297749+130279443+130248902+130449043
3967+130922492+131563011+132206570+132616704+132623832+132306246+131854319
3957+131371676+130930880+130614945+130438680+130385607+130459146+130634687
3947+130878706+131169598+131439616+131672985+131988883+132353387+132413004
3937+131955553+131343554+131223579+131877278+132906020+133538540+133370450
3927+132744845+132339123+132491826+133040232+133734528+134443302+134926094
3917+134912108+134543229+134253839+134204752+134222983+134180199+134236006
3907+134755697+135949886+137475119+138599969+139001288+138918907+138541742
3897+137943183+137416763+137327449+137630918+137739641+137315937+137092458
3887+137865706+139105608+139641752+139640676+140068746+140690013+140587732
3878+140033404+140088813+141097357+142598510+143929108+144393798+143732545
3868+142745976+142296876+142226730+142006838+141743577+141830879+142301622
3858+143219249+144942862+147273274+148429609+147082235+144783096+143173730
3848+142590187+142797798+143466948+144384149+145570544+147139136+148915210
3838+150194255+150345197+149638592+148770533+148160351+147873714+147810427
3828+147900853+148259564+149216964+150851773+152369952+152707474+152327047
3818+152519151+153262989+153642666+153462148+153196097+153234024+153788297
3808+154628382+155160299+155572518+156734916+158522270+159736350+160270788
3798+161084327+162254714+163103511+163631350+164586349+166382694+168696811
3788+171096442+173680910+176775422+180418941+184667396+189793512+195587944
3778+201228829+206347160+211308161+216541350+222308050+228721618+235645932
3768+242804209+249865961+256545653+263192646+270973377+280928748+292880466
3758+305576986+318438193+332462039+348877118+367109322+383998740+396956751
3748+407533835+418581513+430555661+441073091+448722762+455218321+462453343
3738+471229170+481837842+493708254+504830602+513405704+519467558+523945824
3728+527199128+528805740+528410816+526493180+523969033+521661255+520269270
3718+519960175+520190523+520455684+520645435+520882307+522246190+526165770
3708+532017854+537791375+542493389+546275050+549205912+551541570+554161186
3698+557590114+561652990+566156467+571243431+576806292+581552017+583605385
3688+583475400+583760137+585061251+586049154+586241722+586670978+588130921
3678+589573736+588827118+586026538+584266249+584453033+584340140+582341458
3668+579708124+577964926+577361306+577621277+578111855+578475302+579390168
3658+581453620+583896721+585783400+587596706+590104986+592718929+593713098
3648+592594097+590903695+589807532+589429811+589859326+591376217+594027013
3638+597675501+602071422+606235254+608853906+610103114+611853579+615257852
3628+618850245+620798802+621468378+622805566+626320657+631167931+634809597
3618+636769165+639041721+642150395+644597204+645936208+647424551+649249388
3608+650178713+650114276+650155875+650912429+652745868+656025680+660005842
3598+662790998+663589522+664113764+666516972+671202377+677438558+684191196
3588+689870732+692821244+692426987+688962763+682889712+675244602+668321863
3578+664714381+665147863+668081023+671611093+675158513+678492826+679990512
3568+677991422+673796819+670779424+671134455+674796957+679610937+682186619
3558+680428518+675287683+669463109+665555541+665095439+667686396+671181392
3548+673385433+673433779+672203479+671823830+673531657+675705668+675383040
3538+672258721+669283962+668772919+669905193+670541105+669966886+669088947
3528+668859452+669257268+669478755+668546835+665958621+662183411+658455435
3518+656147138+656245981+658687599+662080639+664532119+665078977+664261990
3508+662850022+660963195+658877498+657501344+657538122+658923767+661153316
3498+663561715+665724381+667855606+669962362+670936993+670026428+668283898
3488+666698418+664681755+661951469+659400850+657617315+656617028+656417490
3478+656780530+657269921+658022620+659158824+659852721+659728742+659768635
3468+660287612+660054781+658718297+658100033+659626786+661948874+662306649
3458+659844936+656440032+654340320+654300279+655779798+657646827+658649857
3448+658314179+657210897+655700976+653840473+652713761+653504647+655203799
3438+655547189+654201066+652811787+652227929+651735423+650536562+648639577
3428+646569303+644966397+644150374+643757675+643367274+643330421+644200055
3418+645401733+645397878+643707178+642010918+642289649+644355919+646148871
3408+646026152+644234683+642523667+642540721+644292298+645989819+645916113
3398+644240541+642584099+642121995+642334510+641741308+639795458+637454758
3388+635730098+634692959+634330512+635302622+638101570+641664562+643372242
3378+641447376+637441188+634738709+634630302+635516768+635985694+636799566
3368+639004942+641749538+643070376+641954786+638960600+635616055+633556162
3358+633329188+634056750+634773263+635388636+635893451+635920071+635553398
3348+635362832+635623766+636377058+637784875+639677336+641433881+642769104
3338+643639405+643378471+641461391+638828835+637254700+637649847+639627433
3328+642076022+643668472+644073332+644420948+645114698+644567099+641788912
3318+638262402+635727058+634427056+634232115+635106865+636403233+637235792
3308+637376826+637286363+637623375+638376816+638214353+635904351+632316518
3298+629467444+628401461+628921031+630184625+631299919+632408909+634659294
3288+638080734+640718554+640800786+638707526+636202731+634695331+634729441
3278+636029146+637267899+636987908+635526778+634783496+635748413+637477003
3268+638418636+637714951+635484290+632748740+630726441+629912568+630074661
3258+630600311+630623076+629632280+628065783+626825472+626607100+627479625
3248+628353263+627737371+625664502+623621219+622681290+623044997+624577312
3238+626506997+627747159+628271995+628847771+629229570+628245226+626029099
3228+624309926+624139974+624786934+624991885+624403059+623586368+622998579
3218+622197609+620347227+617599146+615464101+615089161+615766152+616045031
3208+615426099+614179004+612637421+611338049+611034552+612038732+613779779
3198+615122528+615232604+614356074+613556698+613609382+614073266+613529485
3188+611136546+607877014+605473768+604174360+602876805+601287395+600166058
3178+599612267+598992371+598296842+598052999+598172715+598002429+597194785
3168+595883772+594409183+593203723+592596915+592485059+592361636+591695916
3158+590348495+588794232+587610758+586801816+586048969+585362078+584951805
3148+584710038+584292832+583489970+582235274+580521885+578557386+576897423
3138+576113951+576043323+575672646+574385843+572877406+572161596+572395170
3128+573201516+574136810+574389848+573024853+570074527+566771988+564601388
3118+564420536+566012578+568166234+569422265+568999794+567167616+564785392
3108+562503716+560574512+559263870+558858009+559190054+559663577+559754930
3098+559183269+557917895+556431888+555403610+554788941+553842636+552245515
3088+550624368+549876675+550345415+551495633+552143706+551412029+549756255
3078+548633954+548973154+550199636+550736854+549493763+547091185+545407418
3068+545481087+546272974+546211911+545243621+544249822+543403731+542398365
3058+541441716+540925742+540755901+540667699+540546278+540152096+539165490
3048+537661649+536183873+535258737+534917832+534621639+533781776+532559076
3038+531826250+531967320+532170418+531499062+530129470+528805852+527735901
3028+526736912+525784453+524858502+523873787+523011716+522504195+522119875
3018+521354496+520089493+518733582+517704192+516937701+515945163+514539016
3008+513391319+513374042+514372808+515202623+514817932+513278907+511331537
2998+509423577+507547317+505867036+504919915+505041448+505921166+506764402
2988+506728662+505482419+503639564+502298965+501925952+502050154+502065762
2978+501756445+500984652+499505726+497335015+494973442+493133256+492345966
2968+492729656+493863524+494860808+494898180+493956731+492764581+491795215
2958+490815950+489623949+488484149+487577440+486761861+485989439+485288941
2948+484455790+483370045+482362084+481750864+481322794+480632382+479606736
2938+478605300+477933165+477442291+476781242+475951167+475222233+474568748
2928+473737486+472805937+472090425+471603591+471081500+470398131+469638611
2918+468961916+468557389+468440640+468265237+467679636+466729549+465635018
2908+464504709+463522478+462984741+462862764+462650323+461922094+460891591
2898+460171296+459998044+459912882+459310301+458108882+456733729+455632783
2888+454918569+454335488+453611782+452883145+452502384+452429086+452206821
2878+451529051+450513341+449494332+448721241+448152287+447568243+446945270
2868+446458622+446082458+445571414+444845854+444055561+443324329+442639552
2858+441905094+441026265+440025756+439060765+438317298+437915664+437789460
2848+437649687+437205045+436360289+435180818+433903358+432957387+432607657
2838+432547039+432171357+431302391+430366986+429826764+429662559+429519523
2828+429200751+428776575+428239764+427350370+426005247+424614597+423821079
2818+423796127+424050722+424022730+423577458+422875626+422112843+421457503
2808+420899152+420145823+418922418+417344835+415876772+414930171+414479486
2798+414066135+413287632+412217125+411233745+410609141+410356437+410295930
2788+410185335+409841723+409132773+407958493+406426216+404957708+404012552
2778+403676021+403558567+403127384+402174739+400924677+399684478+398543528
2768+397449998+396415491+395557276+395015016+394804355+394658131+394100373
2758+392854019+391193833+389730700+388812387+388277838+387780735+387149272
2748+386409994+385640760+384883983+384173994+383575898+383090252+382551291
2738+381777904+380783401+379706555+378636715+377594274+376573930+375590921
2728+374736970+374112291+373693862+373343761+372879878+372142639+371156626
2718+370182218+369444535+368899865+368353266+367664670+366813463+365880245
2708+364948140+364019927+363117445+362353179+361765612+361232954+360695032
2698+360281273+360064718+359846679+359355100+358569923+357678860+356762178
2688+355751066+354702804+353878291+353469426+353377480+353284310+352879561
2678+352087934+351165690+350491183+350149573+349807814+349113249+348119377
2668+347194130+346616129+346368950+346212567+345846821+345113438+344135397
2658+343183493+342380483+341656963+341013784+340626052+340571922+340618563
2648+340416541+339808175+338873994+337815536+336857664+336151086+335701291
2638+335390305+335067529+334682393+334354315+334199564+334074509+333671651
2628+332908089+332061553+331478992+331257061+331203005+331015850+330508069
2618+329712178+328820707+328045577+327510547+327211128+327037283+326862659
2608+326642804+326384390+326039221+325568182+325103630+324816447+324613942
2598+324225803+323613545+323037731+322676434+322387211+321926924+321285710
2588+320677159+320227475+319839039+319414158+319049265+318907638+318988758
2578+319086377+318966810+318606329+318201098+317884291+317570487+317186241
2568+316867209+316776783+316896165+317127143+317460522+317891001+318255302
2558+318336311+318123499+317823376+317606265+317478541+317379439+317249380
2548+317030674+316710938+316320982+315878676+315429919+315074999+314826521
2538+314559914+314219490+313912397+313717197+313595146+313548765+313650981
2528+313862791+314022473+314052912+313993629+313831574+313517770+313119361
2518+312751390+312439292+312207980+312142506+312213393+312234192+312090934
2508+311840677+311596241+311456023+311438301+311368303+311000166+310346328
2498+309716959+309370010+309261844+309181780+309000205+308700100+308272976
2488+307725025+307140684+306622448+306189263+305802514+305441124+305119405
2478+304890744+304800392+304772382+304635222+304333598+304002795+303752927
2468+303514683+303211316+302953106+302896882+302980319+302952402+302664050
2458+302231902+301898987+301773302+301725827+301563179+301258811+300928490
2448+300646701+300411181+300221968+300069664+299902121+299684194+299436291
2438+299188629+298973797+298874065+298969015+299180639+299266561+299074697
2428+298742949+298518404+298451613+298420266+298381912+298417597+298534012
2418+298580282+298413926+298073577+297743423+297586855+297637833+297819278
2408+298034518+298246773+298470633+298683536+298784214+298695400+298489689
2398+298325780+298239599+298109132+297884178+297719176+297762109+297902735
2388+297801983+297078036+295444655+292764755+288989359+284046561+277876151
2378+270586498+262507961+254094896+245788125+237910220+230654417+224145326
2368+218464010+213692165+209970529+207391380+205967751+205986901+208170254
2358+213104766+220720475+230757467+243356887+258006932+272005288+281479925
2348+284003813+280172360+273541625+268101038+264885292+262393714+259427298
2338+255929521+252287280+248822964+245645089+242853686+240872762+240223837
2328+240863290+242063096+243103776+243995543+245427050+247995855+251573306
2318+255442409+258945433+261937839+264660357+267297954+269833706+272292806
2308+274830541+277461317+279911203+281871160+283294622+284379180+285335273
2298+286233288+287037725+287725635+288343733+288961886+289592701+290193725
2288+290752837+291292706+291762188+292030111+292027498+291799300+291422969
2278+291003372+290726754+290750427+290997662+291175382+291056982+290680077
2268+290230263+289860253+289697716+289844274+290205775+290464096+290381956
2258+290056863+289776890+289706410+289790941+289899071+289937648+289841308
2248+289602859+289364819+289343945+289597484+289958540+290242146+290428967
2238+290598790+290765479+290899079+291085975+291489983+292114457+292775692
2228+293352840+293894155+294475345+295141380+295967043+296988370+298088314
2218+299115739+300098323+301194189+302474503+303894480+305434432+307123685
2208+308946131+310837610+312781495+314832453+317008354+319217883+321386517
2198+323590781+325923176+328295315+330516708+332506455+334368330+336318147
2188+338468392+340635061+342500458+343938973+345023086+345876815+346689353
2178+347644074+348694968+349572573+350045058+350085952+349812449+349333253
2168+348728372+348121268+347575633+346947914+346035681+344817393+343465746
2158+342203227+341096350+339994478+338834583+337829254+337158714+336789520
2148+336629541+336605516+337021944+339017400+343733428+350834127+358793449
2138+366608808+374290882+381976441+389513996+396730370+403702122+410802636
2128+418265114+425792770+433032983+440034951+446749624+452636225+457097510
2118+459877142+461079636+461167838+460827118+460743513+461645588+464419733
2108+469919492+478627879+490505409+504870680+520088122+533701323+543432909
2098+547807661+546079219+538950973+528848451+517998346+506970577+495357577
2088+482547608+468112859+452461935+436499209+420678926+405380549+391464036
2078+379562852+369658273+361550132+354947129+349397986+344673245+340765269
2068+337562573+335001350+333049234+331330766+329467742+327642237+326249919
2058+325399379+324922556+324461749+323794620+323248800+323307008+324019146
2048+325309879+327391573+330618182+335454185+342516289+352295517+365117202
2038+381294667+400753538+422654770+445672963+468229534+488500906+504811063
2028+515922251+521092449+520632125+516026210+508913016+500378474+491124860
2018+481673747+472357477+463235294+454079744+444625183+434784559+424584678
2008+414169241+403883827+394086433+384900778+376268061+368136006+360569532
1998+353742484+347796934+342717719+338353867+334508770+331039504+327916111
1988+325163952+322828331+320996264+319640242+318473229+317227246+315978185
1978+314941862+314124578+313376921+312614620+311854877+311150709+310543716
1968+310042887+309633818+309302645+309055854+308904347+308811530+308707107
1958+308577734+308458723+308337858+308162307+307915869+307637342+307404288
1948+307288058+307281495+307304074+307251872+307015593+306578255+306112999
1938+305821144+305711457+305656141+305603828+305624294+305748032+305860073
1928+305853010+305836011+305991745+306279985+306569542+306956476+307544710
1918+308065745+308172577+307958135+307734164+307575464+307422121+307348842
1908+307483462+307798081+308136410+308382070+308529481+308620259+308679616
1898+308739696+308844230+308987080+309147968+309383246+309723596+310013838
1888+310039494+309784288+309432871+309219430+309287018+309564395+309848057
1878+310054880+310254585+310498243+310817590+311291632+311878828+312267486
1868+312158040+311683034+311240691+311035814+311012382+311048419+311087348
1858+311150858+311294487+311549081+311901962+312317834+312731036+313085215
1848+313468571+314059029+314789520+315272609+315323402+315221075+315250623
1838+315439039+315680695+315941259+316387754+317200700+318169176+318770979
1828+318893327+318932182+319043667+319020235+318856400+318838085+319117706
1818+319602908+320196962+320916812+321779328+322707429+323556152+324185762
1808+324550841+324774144+325106930+325752445+326707574+327767811+328689461
1798+329426959+330235864+331430201+332931595+334103168+334452342+334447040
1788+334896020+336029035+337515413+338961676+340241435+341389206+342440397
1778+343528885+344958353+346949879+349242122+351056356+351904300+352175320
1768+352404258+352860134+353821232+355392809+357154321+358577487+359788397
1758+361214899+362807238+364314081+365916468+367977844+370359141+372379289
1748+373624457+374375265+375138345+376234656+377682068+379168150+380337981
1738+381408747+383063743+385450787+387536039+388294781+388314691+388490760
1728+389016782+389879779+391043530+392349946+393869135+396090973+399298674
1718+402785996+405075829+405694390+405692166+406100956+407300373+409276142
1708+411812821+414482118+416891815+419332247+422586181+426729584+430548024
1698+433178799+435130581+436794957+438367906+440410114+443194566+446432002
1688+450014162+454463212+459941134+464944531+467954956+469885753+472126239
1678+475181302+479082976+483465662+487708241+491712352+495806075+499788757
1668+503084772+505925726+509123751+513016600+517240568+521236671+524898802
1658+528582882+532860756+538367485+544869051+549889873+552304390+554570828
1648+558219279+562549837+565984216+568377266+570631136+573183498+576207084
1638+579825466+583504986+586019160+587311932+588894669+591640896+595240778
1628+598976837+602632962+606754416+611850724+617744554+624092295+631071684
1618+638633153+645139316+648333856+648283804+646407952+643521061+640240730
1608+637328628+635439281+635155582+636973597+640941227+646464603+652487825
1598+657889298+661969339+664643419+666078374+666384614+665859482+665158318
1588+664903241+665265984+665983462+666651926+667078290+667524600+668565298
1578+670572026+673253149+675902166+678612801+682285832+687378395+693420526
1568+699638022+706173845+713830374+722869805+733171866+745626730+761787325
1558+779105406+792203745+802141432+812172770+822628100+832073948+839606646
1548+845321700+849411011+851498710+851254904+849454018+847379220+845637728
1538+844454810+843711009+842534912+840052660+836768769+834372160+833805800
1528+834930585+837297682+840459003+843860867+846473327+847184947+846478147
1518+846027684+846449303+847182871+847872468+849027876+851406764+854954704
1508+858118768+858566487+856680995+855480725+855799497+856673135+857325360
1498+857436882+856693081+855267469+854300476+854664183+856010084+857276347
1488+857945627+858245490+858175122+857637829+857212207+857734373+859032521
1478+859972449+860172951+860663307+862064078+863150750+863029440+863021951
1468+864166830+865731177+866539563+866602739+866929000+867996170+869321828
1458+869806548+868583069+866505676+865102161+864710351+864865399+864874891
1448+864137467+862570747+860577960+858431162+856228234+854486148+853908147
1438+854296472+854401246+853644321+852978897+852887470+852760524+852256229
1428+851803319+851717008+851893634+852285221+852784549+852842609+851910540
1418+850374889+849161421+848293270+847144980+845615558+844209966+843211904
1408+842386315+841425329+840251901+839036209+838089607+837636401+837725084
1398+838191638+838520790+837980235+836268477+834103143+832640159+832147060
1388+831440779+829210266+826494366+826098107+829216866+834430664+839740042
1378+844421961+848658238+852492249+855807728+858791681+861889899+865254243
1368+868362546+870412874+871263525+871682326+872480775+873586874+874410238
1358+874917945+875575731+876504982+877391522+878094837+878749509+879392243
1348+880003093+880764764+881940935+883550217+885282514+886860431+888521618
1338+890796992+893680397+896565360+899015728+901049298+902861381+904723738
1328+906933785+909615947+912773634+916439028+920393459+923976842+926636018
1318+928513798+930208649+932101630+934155962+936123687+937740384+938928270
1308+939828825+940615040+941271788+941626226+941650028+941645505+942006098
1298+942732918+943251302+942790681+941006404+938269965+935389451+933129278
1288+931847443+931311856+930935618+930365032+929731715+929217409+928466267
1278+926687552+923663409+920523370+918937000+919456571+921062442+922297637
1268+922434444+921672847+920766435+920326575+920135490+919602647+919004180
1258+919171463+919665675+918665536+915271384+910527550+905737371+901240235
1248+897058607+893409897+890246723+887279825+884594104+882524200+881065888
1238+879949853+879000952+878051533+876915774+875818128+875511814+876541538
1228+878471817+880180831+881067074+881622682+882597535+884090327+885806830
1218+887731993+889983416+892168029+893455870+893636649+893812385+895391265
1208+898357422+901218879+903028516+904558457+906759977+909161035+910874944
1198+912286615+914413763+917242075+919908739+922093501+924176826+926215734
1188+927979990+930057605+933320141+937168908+940101253+942040355+944080672
1178+946164220+947190088+947178669+947419138+948750283+951043304+953929379
1168+957256573+960915590+964459229+967242235+969023991+969974448+970147515
1158+969744286+969767717+971425346+974831065+978821608+982077247+984253185
1148+986053182+988172024+990087844+990217681+987722007+983897413+981253142
1138+981547147+985033320+990666809+996427613+1000393093+1002218078+1003084523
1128+1003879710+1004554848+1005258608+1006635800+1009003120+1011615506
1120+1013150416+1013170659+1013052093+1014983038+1019440356+1024120199
1111+1026150506+1025176988+1023361124+1022672490+1023245820+1024117975
1103+1024863036+1026479659+1030443730+1036312942+1040965646+1041718642
1094+1039326556+1036449824+1035098658+1036429655+1040299629+1044801363
1085+1047886235+1049382215+1050194531+1051111473+1053072894+1055754833
1077+1056123286+1051791059+1045147496+1040741119+1040178764+1042115420
1068+1045257239+1048985437+1052242041+1054082449+1055413594+1058323768
1060+1063457113+1068833894+1071370351+1070312227+1068337755+1068122645
1051+1069168756+1069531277+1069312460+1070089257+1071348254+1070732214
1043+1068187378+1066488968+1066900353+1067513279+1067115685+1067204962
1034+1068345392+1068036631+1064606293+1060540637+1059229216+1061051161
1025+1064455694+1068356293+1071799606+1073564011+1073741823+1073610355
1017+1073030722+1070725540+1067517134+1065790472+1065571359+1064288560
1008+1060684192+1056642412+1054240093+1052859045+1051281425+1050306424
1000+1051011221+1052284603+1051776303+1048999600+1046041377+1044741153
991+1044486225+1043428101+1041186911+1039230383+1038688196+1038810544
983+1037772219+1034612752+1030104715+1025747574+1022129043+1018663485
974+1014987932+1011705376+1009345546+1007627114+1006232274+1005189055
965+1003863916+1000873438+995951791+990730504+986683607+983500264+980203397
955+976705434+973515270+970915859+969061066+967873105+966641396+964736996
945+962500625+960619805+959237274+958180930+957302250+956341411+955211659
935+954480537+954887474+956301593+957522179+957287272+955616741+953859455
925+953068198+952865620+952357023+951508745+951021059+951428811+952490865
915+952992342+951777539+949478512+948003812+947934556+947903413+946829050
905+945094603+943412060+942209492+941979329+943126137+945325284+947374722
895+947825778+945993377+942550064+938923080+936143855+934518334+934131344
885+935081134+937025872+938811632+938968386+937133316+934474586+932056918
875+930033210+928923404+929683740+931736737+933180294+933566468+933952197
865+934165602+932954506+930883120+930150441+931199593+931954813+930985076
855+929423399+928709258+928366165+927260511+925575595+924335655+924166445
845+925325635+927589589+929893288+931450591+932787075+934379970+935135487
835+933541850+929765750+925843723+924354934+926494242+930883491+934955227
825+937518230+938828168+938556926+935767469+931044767+927106056+926739383
815+930531722+936470710+941681987+944737347+946250530+947380506+948047116
805+947282479+945665782+945664744+948285731+951168989+951416873+949070315
795+946398312+945096827+945187216+945476254+944975517+944513561+945779009
785+948482823+950223425+949729659+948533616+948803078+950814921+952763218
776+952553447+950125473+947601696+946553656+946154358+945091785+944132578
766+944930953+947215521+948881528+948631939+947230945+946113056+946116170
756+947520056+949882334+951724448+951631241+950074902+949011959+949402285
746+950207853+949963751+948926686+948906295+950791193+953423971+955500474
736+957242114+959415828+961837203+963541249+963496833+961143009+956995713
726+952829212+950935638+952040254+953986252+953601635+951040338+949927862
716+951795929+953320606+950932524+946565595+944741944+945950963+947133585
706+946456890+944301714+941058680+936766495+932069449+927700444+923752760
696+920243156+917367833+914909976+912168123+909051145+906546647+905492305
686+905504540+905625998+905633932+905875513+905507802+902488850+896785883
676+891920664+891168410+892310027+888101038+874501517+859835345+857861096
666+865700257+871456390+872818455+873936344+875969247+875676946+871753436
656+867592051+867185634+870674773+873630030+871673428+866094291+862250195
646+862974346+866162509+868591670+869697992+869898716+868239605+864625894
636+861691918+861594114+862342512+860216848+855012096+850318387+849244099
626+851090291+851865531+848777619+844044092+841749810+842510072+843289688
616+840923257+835588965+830801678+829388227+830493881+832730029+837987131
606+847014179+854610721+854118586+845958651+838718920
##END=
