##TITLE=<SNM>
##JCAMP-DX=4.24
##DATA TYPE=INFRARED SPECTRUM
##DATE=2/5/2025
##SAMPLING PROCEDURE=Instrument type and / or accessory
##ORIGIN=Admin
##XUNITS=1/CM
##YUNITS=ABSORBANCE
##RESOLUTION=4
##FIRSTX=4497.3318
##LASTX=599.83466
##DELTAX=-1.4281778
##MAXY=1.8202626
##MINY=0.28474113
##XFACTOR=1
##YFACTOR=1.6952516e-09
##NPOINTS=2730
##FIRSTY=0.30674076
##XYDATA=(X++(Y..Y))
4497+180941141+181015733+181262097+180547932+178720398+176893549+176315312
4487+177200143+178734708+180035443+180780215+180976635+180658492+179951517
4477+179058670+178176934+177647410+177836060+178571004+179174258+179277188
4467+179032459+178597585+178171484+178242014+178965883+179696837+179881250
4457+179834769+179984743+180111072+179943800+179780025+179944679+180263156
4447+180458486+180494032+180236962+179400511+178154994+177211710+177021637
4437+177407322+178071982+178819742+179241079+178941272+178171906+177572994
4427+177287374+176935917+176450220+176309845+176781179+177364989+177279481
4417+176364184+175303959+174902522+175249532+175779301+176080814+176351667
4407+176981959+177951190+178780838+178990777+178502091+177548734+176374486
4397+175236487+174476861+174239146+174304068+174449383+174666231+174886999
4387+174920718+174715947+174346752+173837938+173225191+172626051+172121227
4377+171701261+171339801+171085139+171124606+171631821+172422441+173001575
4367+173140966+173124898+173220128+173235827+172871976+172248417+171786735
4357+171705797+171932735+172361140+172910212+173453606+173868245+174082509
4347+174000094+173485830+172524931+171349628+170364522+169917290+170036710
4337+170366350+170468613+170255544+170015667+170005646+170241744+170709826
4327+171450344+172306660+172858492+172768219+172069103+171062865+170042617
4317+169157382+168480715+168070383+167963937+168233700+168972160+170062359
4307+171051561+171440639+171093279+170367985+169858380+169861439+170134384
4297+170309532+170331384+170350564+170490728+170798482+171146704+171243657
4287+170954872+170476418+170051952+169697928+169298109+168864853+168660557
4277+168984677+169772449+170558147+170961728+171075013+171214228+171392822
4267+171316367+170945537+170670975+170728144+170918007+171172704+171791358
4257+172757232+173477392+173562601+173236125+172765055+172239434+172000928
4247+172394471+173001575+173058375+172676083+172675064+173262407+173839256
4237+173966693+173750513+173465912+173324324+173401992+173546674+173537269
4227+173368818+173276542+173529446+174090754+174525592+174520107+174283957
4217+174159878+174196497+174325375+174525346+174687063+174692197+174576486
4207+174410708+174260734+174270051+174375495+174132576+173401324+172929620
4197+173550401+174949039+175913383+175787863+175017460+174269295+173778799
4187+173602033+173788011+174181589+174468809+174427409+174042866+173596724
4177+173565168+174148135+175003343+175628958+175854860+175858710+175866849
4167+175968197+176132393+176260955+176202414+175890477+175485893+175152684
4157+174772836+174192576+173618207+173438048+173786446+174490538+175248776
4147+175759542+175873969+175657403+175269274+174869982+174629665+174651042
4137+174824415+174936082+174944029+174940407+174901081+174752636+174585329
4127+174513620+174481537+174414769+174309518+174079766+173653366+173249767
4117+173233207+173749282+174722768+176014591+177297869+177919125+177317365
4107+175757344+174283922+173692798+173907325+174487567+175153686+175594027
4097+175468524+174952186+174691265+174939968+175169983+174789941+173992236
4087+173537902+173750513+174099227+173906517+173173172+172509813+172422581
4077+172856171+173406861+173774562+173905339+173892189+173890203+173960680
4067+173955863+173755752+173493970+173318452+173179536+173049515+173017379
4057+173047335+173004036+172963321+173117883+173376026+173430928+173283327
4047+173352715+173867437+174458912+174702586+174761338+175014805+175302658
4037+175061128+174171762+173269105+173086907+173686417+174456978+174822112
4027+174769548+174681789+174904737+175506602+176185362+176456689+176224213
4017+176009475+176229628+176511152+176205473+175365383+174706542+174698666
4007+175118491+175509327+175793436+176250407+176936444+177388863+177118343
3997+176239824+175351794+174890832+174851664+175032877+175234835+175282283
3987+175181234+175187985+175446813+175694672+175644270+175532867+175942882
3977+177081883+178461991+179331686+179358600+178838834+178252562+177807422
3967+177539452+177591945+178090458+178884805+179680576+180333809+180827769
3957+181107201+181164441+181196138+181480879+182083394+182669367+182681286
3947+182013883+181381377+181465497+181937376+181936040+181326826+180709175
3937+180448448+180580982+181267213+182430562+183189327+182684169+181453349
3927+180943128+181810871+183350710+184566658+185332315+186038024+186665063
3917+186740111+185962043+184643324+183545654+183228372+183621792+184478020
3907+185999207+188428852+191212539+193281181+194083755+193504076+191481880
3897+188763960+186952793+187092026+188622882+189688345+189207167+188536934
3887+189389663+191281680+192473298+192874769+193544088+194058528+193408776
3878+192413174+192468903+193574079+195181812+197223329+199032756+199326164
3868+198566080+198365089+198626449+197859017+195868359+194117544+193855516
3858+195656768+199843083+205518607+208643818+205907825+200432343+196103068
3848+194159103+194489376+196372111+198888478+201591507+204467049+206853711
3838+207425233+206176762+204690542+203830499+203146641+202256836+201467727
3828+200953850+200641930+201239541+203794899+207473279+209461616+209173798
3818+208640354+208012436+205919252+203181028+201968772+203082334+205967386
3808+209329890+211924804+214019429+216549754+218738941+218963032+218000288
3798+217603967+217657867+217471907+217612423+219055256+221847504+225350348
3788+229124309+233164799+237527457+242319241+247981650+254904696+262822727
3778+271285998+280455506+290797610+302737197+316362309+330151616+341076985
3768+347855612+351639470+353307836+353454910+353329143+353686015+354207715
3758+354804341+356527627+360741489+367923117+376983928+385665366+393145782
3748+401270535+411653810+422992307+431565804+437310171+444222686+454622276
3738+468038819+482253911+494502694+503590860+511109775+519352560+529066218
3728+539680598+549873168+558116093+564274818+569398122+573442866+575176208
3718+573904092+570377181+566582001+564216874+562727753+560265479+556915281
3708+553956587+551953536+550916288+550110777+548503062+546985848+547975947
3698+551946785+556993406+561589913+566075665+571275830+576303746+578297973
3688+576378214+573429365+571617547+570934885+570882357+571347555+572697128
3678+574994959+576310356+574184351+569912369+565990614+562198985+557703669
3668+553796083+551979273+552232810+553756106+555393497+556186314+556407188
3658+556851783+557228485+557113196+557795084+560805815+565071925+566271400
3648+561730798+554780345+549729610+547731938+547792905+548579324+549466510
3638+550497886+551687517+552890227+554406914+557176026+561610657+565689752
3628+566013468+562769241+559162131+557874088+560367759+566063149+571558409
3618+573631885+573215945+573084975+574095572+575566481+577273628+579426109
3608+581520752+582802430+583483264+584286735+585218856+585969798+587417606
3598+590996589+596188631+600535714+602819974+604310466+606289258+608037331
3588+607434833+603831028+599476843+596916790+596747109+598249978+600683385
3578+603143232+604315248+603777655+602852461+603317273+605821914+609583798
3568+612596075+612894019+610787176+608242312+606353670+605227011+605069636
3558+605763057+606166902+605351687+604021242+603564657+604140293+604770707
3548+604567554+602901333+599443300+595307317+593136342+594581127+597919195
3538+599243030+596802028+592773634+589972596+589114030+589568294+590344797
3528+589862441+587081514+583416461+581490479+581985247+583394521+584331493
3518+584616674+584333744+582990043+580104059+576207690+572639149+570372716
3508+569571214+570010359+571031082+571380289+570245156+568191545+566287538
3498+564836530+563543776+562458675+562081973+562438845+562696847+562044177
3488+560592465+559029684+557703809+556634249+555958584+555697558+555259784
3478+553689233+550730398+547425767+545145164+544165965+543889925+544076870
3468+544857733+545852895+546425401+546574901+546558903+546123766+545056034
3458+543889257+543258526+543061843+542623576+541333424+539120046+536780199
3448+535702377+536513723+538085963+538574086+537230350+534649096+531727882
3438+529131791+527345429+526666107+527174200+528548385+529801092+529712138
3428+527857460+524971230+522313855+520718094+519969297+519286705+518496665
3418+518111525+518375997+519128803+520290938+521669272+522686549+522810100
3408+521859978+519974079+517638029+515364985+513348467+511761215+510847096
3398+510309363+509414582+508132235+507213019+506939651+506808048+506528774
3388+506593222+507579805+509126307+509929884+509047444+506965213+504984382
3378+503912712+503702000+503928288+504247187+504468694+504433147+503976984
3368+503209658+502767031+503169259+503846506+503662761+502510576+501322387
3358+500615254+500276384+500509317+501582429+502863791+503448322+503310812
3348+502694004+501472519+500049076+499320214+499123284+498223054+496316340
3338+494678950+494492568+495536602+496634430+496761287+495717147+494200179
3328+493177698+492935201+492965404+492844032+492628503+492250430+491332338
3318+489999150+489176517+489550301+490675097+491582500+491982196+492259290
3308+492437515+491927487+490479433+488837296+488143172+488780231+489844904
3298+489983539+488950229+487938964+488146231+489413705+490502568+490454926
3288+489539366+488874495+489123496+489869868+490416286+490592717+490532805
3278+490365304+490300083+490463329+490648270+490580868+490220129+489628215
3268+488883777+488142222+487570911+487276097+487285027+487411075+487247406
3258+486587809+485791335+485306060+484843463+483733751+482202402+481382652
3248+481761921+482527876+482864566+482902363+482830215+482252540+481086537
3238+479981852+479276020+478561890+477657019+476953964+476570828+476120678
3228+475395507+474442502+473108611+471303579+469453683+468074893+467306652
3218+467198571+467700582+468114553+467522076+466024481+464659544+464004940
3208+463755094+463486263+462970153+462001571+460676295+459565070+459140903
3198+459282526+459518378+459534516+459282948+458781957+457946104+456529236
3188+454409700+452054839+450245202+449121495+448122396+447127656+446746981
3178+447061766+447148470+446361032+445092292+443852629+442547007+441024343
3168+439601990+438667935+438189481+437884154+437619823+437315410+436571464
3158+434940438+432696401+430861378+430230928+430568989+430825374+430079741
3148+428299321+426263993+424822935+424241287+424135702+423901960+423225908
3138+422215487+421127468+420161032+419453160+418968272+418384127+417383621
3128+416117518+415119368+414713413+414758277+414983264+415227449+415210045
3118+414508959+413118496+411708308+411000366+411028283+411131231+410578555
3108+409221177+407634874+406559266+406103772+405662552+404790801+403879811
3098+403608272+403975868+404257743+403835510+402814716+401813964+401305694
3088+401227253+401189878+400913101+400357858+399658987+399100298+398904142
3078+398923761+398821130+398533277+398229918+397933908+397534951+397004319
3068+396327494+395445617+394445919+393564464+392863519+392113948+391163544
3058+390275409+389872267+389953275+389979926+389448064+388393236+387207368
3048+386143433+385222037+384531780+384299023+384501437+384644397+384223359
3038+383260649+382108007+380971397+379905599+378967502+378121663+377252197
3028+376371762+375574303+374783806+373798384+372613570+371509624+370742613
3018+370292955+370023702+369888266+369763309+369350041+368567595+367764511
3008+367271958+367020144+366729126+366254224+365699965+365260503+364886544
2998+364245792+363198629+362057836+361158554+360495652+359976378+359660221
2988+359492439+359127340+358399392+357721723+357525918+357540685+357231279
2978+356721568+356530229+356564685+356176381+355185332+354130715+353389794
2968+352627671+351419405+350056437+349242805+349111237+349068940+348658590
2958+348082603+347710754+347478980+347031572+346257565+345426072+344833314
2948+344514485+344274379+343866877+343213292+342510414+341986498+341579770
2938+341103461+340635168+340395835+340337716+340217435+339973461+339660469
2928+339156313+338330058+337352160+336483538+335726337+334981267+334302437
2918+333739635+333230979+332799604+332506863+332210924+331743580+331209714
2908+330806994+330548886+330348476+330117089+329700657+329007518+328226233
2898+327640401+327245099+326795090+326200046+325636364+325282024+325145780
2888+325124122+325030773+324638882+323900597+323066608+322429689+322021659
2878+321675582+321300533+320967183+320737695+320535702+320269367+319995262
2868+319808177+319611141+319153642+318331642+317368863+316610642+316149452
2858+315785372+315359341+314913481+314500951+314097176+313761752+313684647
2848+313958471+314349377+314411434+313954217+313291561+312827170+312545470
2838+312158608+311567431+310895985+310249819+309675766+309199984+308729300
2828+308071215+307218450+306472922+306100827+305977908+305772048+305362120
2818+304884721+304510445+304321743+304262569+304139615+303797053+303266633
2808+302684809+302158644+301672911+301063733+300241417+299431336+298945358
2798+298812489+298869377+298975665+298900881+298328480+297253470+296129518
2788+295416759+295130770+294955217+294687792+294385330+294067767+293566406
2778+292822619+292077074+291554055+291153163+290644173+290021036+289485729
2768+289144099+288863348+288457359+287916443+287351900+286765998+286050831
2758+285242174+284601563+284336001+284313763+284145154+283542235+282585625
2748+281630317+280946301+280494868+280058500+279500321+278868781+278313908
2738+277905861+277527102+277015282+276394817+275849243+275510901+275382708
2728+275369735+275305920+275062509+274670003+274254080+273860801+273409332
2718+272813409+272108051+271411501+270787363+270238431+269802467+269510026
2708+269288467+269025876+268657525+268183114+267735689+267523798+267530654
2698+267442192+267037170+266456084+265971917+265678262+265455965+265124092
2688+264623557+264092487+263703778+263451981+263198866+262882376+262547619
2678+262215553+261872499+261552036+261275346+260968348+260594248+260283419
2668+260158654+260113122+259941754+259637217+259369687+259195118+258985935
2658+258692685+258461299+258358123+258183168+257751652+257198765+256797047
2648+256577527+256307095+255820256+255259510+254914154+254857212+254880119
2638+254791341+254578747+254254662+253788057+253259641+252873569+252736920
2628+252744779+252702939+252492701+252150333+251842948+251725444+251786113
2618+251852055+251748527+251434111+251013389+250667276+250542160+250629462
2608+250756986+250751027+250597255+250411612+250289572+250223525+250148195
2598+250041573+249961145+249946413+249903870+249679726+249257071+248791749
2588+248468455+248397098+248585888+248907987+249149623+249180581+249031591
2578+248784611+248499800+248278117+248248706+248419161+248631209+248717245
2568+248650881+248548514+248564793+248732382+248907214+248984354+249092207
2558+249361478+249628393+249653796+249495735+249362392+249235852+248910097
2548+248310500+247596335+246987262+246572746+246308257+246157122+246125320
2538+246136431+246022408+245702102+245280255+244946695+244816727+244850990
2528+244932279+245010000+245087791+245095438+244919973+244564561+244156848
2518+243818137+243603398+243533272+243611046+243795951+243987730+244065187
2508+243947630+243632036+243207623+242835949+242658128+242694413+242839447
2498+242942536+242912245+242780537+242639019+242515749+242383952+242260524
2488+242189730+242160547+242112027+241980107+241718290+241332025+240899999
2478+240548595+240405636+240499161+240651086+240597010+240289837+239957630
2468+239803824+239784433+239725452+239540741+239264772+238937645+238564284
2458+238208555+238007089+237984200+237943978+237674038+237214711+236823629
2448+236700588+236815947+236980987+237023530+236897711+236675202+236467865
2438+236337897+236257663+236176988+236101061+236039426+235921359+235674169
2428+235377807+235218129+235255750+235340960+235312498+235203415+235160485
2418+235228396+235344177+235483005+235640292+235723691+235646041+235496489
2408+235470805+235640925+235881893+236017152+235999221+235957785+236066938
2398+236371563+236790351+237301011+238070834+239419158+241737153+245460361
2388+251060063+259017491+269764284+283551851+300334063+319833562+341709826
2378+365540199+390650950+416111857+440926915+464190513+485084870+502784154
2368+516568469+526208678+532097200+534869337+534912442+532118472+525802126
2358+515032198+499491794+479719947+457056984+434847300+418082246+410331557
2348+412456262+423257235+439225429+454626354+464904221+469743013+471546814
2338+472508363+473287891+473592620+473245242+472252154+470365657+467259960
2328+463090610+458399172+453354239+447508506+440517796+432642396+424236505
2318+415382187+406310722+397527708+389234715+381026246+372387563+363278055
2308+354057829+345048281+336368741+328045195+320066847+312409613+305107071
2298+298244448+291906022+286191699+281143706+276578299+272191257+267914388
2288+263979835+260600384+257778022+255422159+253457203+251776760+250232789
2278+248739501+247346524+246170887+245251178+244479035+243694058+242843877
2268+242025534+241366130+240903674+240591754+240353617+240097038+239745441
2258+239315437+238904982+238547477+238150014+237646631+237133914+236768411
2248+236580728+236456087+236268474+235984594+235643931+235286673+234934741
2238+234624984+234426683+234408206+234551781+234696428+234660407+234473533
2228+234376686+234533621+234857654+235155597+235320040+235366767+235387476
2218+235475006+235642068+235824108+235983645+236191861+236580886+237189326
2208+237871689+238421289+238771111+239003042+239205686+239437652+239788810
2198+240327897+240991432+241635717+242185511+242646631+243022172+243311748
2188+243549481+243776349+244007859+244246787+244499937+244771001+245028582
2178+245198122+245252145+245266262+245289801+245248119+245076188+244826097
2168+244564104+244293796+244025632+243804530+243629100+243411198+243085302
2158+242749139+242591430+242658814+242820760+242962594+243100491+243341722
2148+243777105+244413462+245357308+247036679+249876621+253751666+258159382
2138+262861789+267970644+273569818+279615786+286071347+292919361+300119202
2128+307626127+315453640+323670195+332244150+340954243+349527564+357716097
2118+365255018+371968529+377782934+382456264+385554332+386814387+386355869
2108+384582797+381943776+378695998+374943572+370795634+366268287+361232390
2098+355616497+349420713+342584144+335104678+327174428+319118588+311330314
2088+304132548+297596805+291646455+286257324+281402341+276973160+272853737
2078+268966825+265317506+262036906+259272540+257076338+255410697+254124465
2068+253022488+252062310+251273554+250540244+249753597+248983159+248288788
2058+247658093+247156293+246830660+246602175+246436783+246390478+246448984
2048+246529710+246591679+246703575+247063348+247795831+248734157+249662603
2038+250657642+251924712+253489744+255197612+256851808+258377513+259891493
2028+261468566+262961555+264239736+265367274+266417074+267361677+268149378
2018+268681785+268802752+268432151+267640775+266599870+265495133+264419754
2008+263347381+262221319+261007569+259697815+258348331+257075477+255968753
1998+255059979+254388568+254012692+253861488+253628590+253020712+252131170
1988+251332323+250855715+250692820+250749392+250884739+250928162+250798703
1978+250552532+250312514+250185183+250180577+250233914+250364445+250671583
1968+251099003+251414509+251531239+251621301+251823171+252071170+252277822
1958+252479779+252738591+253061463+253456535+253941652+254497510+255084503
1948+255705196+256440210+257347596+258197513+258476681+257994272+257243365
1938+256807911+256785268+256974393+257235964+257513954+257774225+258043337
1928+258440027+259149305+260237307+261447769+262469776+263394548+264397796
1918+265111065+265037950+264482268+264274017+264796438+265752379+266629070
1908+267196144+267602134+268068634+268613505+269119788+269528678+269892195
1898+270320459+270844321+271340443+271788133+272419760+273222879+273624580
1888+273250761+272578436+272219262+272165045+272106117+271949744+271786761
1878+271690810+271679612+271771414+272152423+273197283+274971708+276646016
1868+276959096+275744942+274153787+273160084+272823043+272779005+272801384
1858+272877048+273076175+273426208+273844434+274276600+274840193+275728417
1848+277127898+279098005+281043114+281658146+280547467+279043385+278396639
1838+278584638+278936376+279245606+280058922+281826843+283992104+285356971
1828+285634645+285596567+285529799+285035153+284179945+283603254+283626847
1818+284058749+284680848+285537657+286739787+288115360+289160519+289498369
1808+289365447+289445436+290303246+292000039+294022463+295567173+296186019
1798+296282920+296823114+298518026+301075793+302961868+302803614+301384355
1788+300566645+301101882+302466538+303977775+305492492+306963366+308125994
1778+309085715+310625325+313488104+317338027+320377835+321017497+319875578
1768+318398516+317352373+317336305+318741113+320898340+322576902+323687775
1758+324927403+326239425+327450573+329383340+332772425+336693407+339177338
1748+339711837+339612476+340086359+341437724+343436698+345528352+347111455
1738+348545868+351157782+355241588+358400974+358192899+356058244+354190381
1728+353108305+352832582+353328581+354299482+355866729+358938989+364000764
1718+369497360+372150551+370866763+368047055+366060915+365814516+367381410
1708+370380327+373872782+376853767+379659305+383633870+388675921+392364285
1698+393421751+392899734+391123638+388660204+387392941+388326925+391003743
1688+395019059+400815145+407781771+412050940+411104088+408319891+407271216
1678+408917572+412561636+416474284+419429919+422141405+425396039+427961647
1668+428443722+428334762+429970500+433482644+436944474+438909940+440406586
1658+443489780+449507936+458761740+468848935+473750734+473667792+474977880
1648+479450307+484167552+485890099+485754101+486643678+489752715+495307747
1638+503246892+512215198+518623065+520673758+521774223+525437308+532181021
1628+540532414+549191877+558293193+567915400+576847738+584535807+592526531
1618+602247010+612297499+619524096+623919699+627879040+632375270+636822207
1608+640508286+643382808+645914803+648595875+651552952+654658895+658000338
1598+661991675+666926207+672541291+678259113+683860766+689485273+694945655
1588+699597573+702973191+705270179+707305929+710023849+713872859+718870327
1578+725035450+731757997+737300934+741330594+745816558+752231738+760329805
1568+769156382+778816035+790002324+802556188+816133904+831259705+846822189
1558+856859036+859804721+861573608+864797688+868277169+870206033+869872719
1548+868144195+866475442+865278322+864343705+864026142+863308672+858684671
1538+850899878+844913647+841961352+839640034+835647502+830755514+827189540
1528+825656856+825431693+825911975+827151919+828588688+828747610+827443745
1518+826049028+825112020+824173536+823131681+822719468+824178177+828431242
1508+834065665+835762826+830966472+825702704+824113975+825160611+826612639
1498+826979988+825692156+823609362+822940764+825004923+828693745+831112104
1488+830341683+827406124+824407629+822376098+821117097+820196755+819828281
1478+820587451+822734095+825920976+828668289+828734249+826138755+823687276
1468+822941045+823017342+822460482+821203168+820879628+823002997+827384747
1458+831445770+831353159+827121893+822420470+819230073+817842528+817816299
1448+817839856+816706797+814746359+813179781+812651259+813195181+814784332
1438+816912974+817910597+816524459+813983533+811940891+810505318+809225644
1428+808317748+808184071+808586650+809145198+810084526+811614890+812627632
1418+811228133+807473844+803405648+800502999+798965462+798284910+798034361
1408+798267752+798972705+799516978+799297652+798666604+798450512+798967080
1398+799831728+800323473+799928629+798888955+798105384+798112346+798468022
1388+798259524+797288834+796793011+798273377+801815935+806067875+809693550
1378+812718907+816211185+820658192+825054428+828122821+830011181+831685700
1368+833532010+835432606+837290799+838846127+839670342+839678007+839163268
1358+838394886+837555060+836896799+836746667+837272868+838147221+838633410
1348+838335185+837633466+837286158+837992869+840090853+842992728+845193800
1338+845719579+845281277+845188737+845853116+846929075+848327590+850540686
1328+853916867+857986469+861907978+865373113+868555845+871408990+873708649
1318+875756565+878346644+881848767+885791302+889429353+892493667+895333521
1308+898512385+902437902+907152053+912109298+916312507+919034647+920254690
1298+920187254+918972765+917285941+916378819+916822324+917802297+918163950
1288+917490148+915762820+913045322+910064828+907933373+906805940+905794042
1278+904403474+903153193+902672277+902940054+903403882+903463372+903113392
1268+903256351+904913361+908044759+911456030+913870310+914992399+915564519
1258+916583378+918352617+920151391+921155132+921472554+921863742+922744072
1248+923797177+924430123+924327175+923706957+923042649+922395568+921305123
1238+919501849+917399225+915745943+914920110+914463455+913365768+911187269
1228+908784661+907402672+907099454+906623531+905057023+903191939+902586698
1218+903473779+904522525+904720544+904537221+904842479+905627315+906295350
1208+906846444+908282228+911247673+914686228+916912263+917804055+918633966
1198+920145836+922223356+924764774+927621012+930226984+932053182+933047922
1188+933682133+934907100+937277711+939900208+941558202+942661515+944315923
1178+946135018+946901431+946826259+947353234+949229921+951947068+954642626
1168+957041858+959329071+961250693+962166183+962272506+962736826+964340603
1158+966998119+970666477+975254967+979325553+981239159+981670780+982815652
1148+985090489+986658825+986374734+985402145+985377955+986568113+988505064
1138+990931932+993380176+995127898+996254417+997447880+998293753+997718821
1128+996476486+996779071+999170638+1001734769+1002704827+1002335720+1002236710
1118+1004187373+1008961929+1014968271+1018939707+1019526875+1018812428
1110+1019108544+1020197512+1020135068+1018485443+1017332906+1018110851
1101+1019554018+1019987186+1020311289+1022480365+1026122073+1029274216
1093+1031689903+1034568081+1037544214+1038929649+1038119006+1036031008
1084+1034124365+1033486215+1034224922+1035906965+1038460337+1041432181
1075+1043351974+1043755046+1044329064+1046519306+1049916724+1053216468
1067+1055273243+1055662321+1055371691+1056596305+1060817375+1066968576
1058+1071973217+1073741823+1072983005+1070976015+1067472415+1062738927
1050+1059165781+1058560400+1060121423+1062446679+1065308121+1068211263
1041+1069474412+1068499995+1067203021+1067455820+1068502174+1068120621
1033+1065768011+1062863252+1059809204+1055431884+1049979167+1046359681
1024+1047586405+1053991389+1062663122+1068999544+1069758503+1065228168
1015+1058905809+1054899565+1054811877+1056864293+1057985186+1057191490
1007+1056543847+1058033074+1060330835+1060049838+1056304479+1052202179
998+1051158848+1053441912+1056386823+1056589695+1052876824+1047818319
990+1044638751+1043675725+1043010432+1041363830+1039114941+1037237129
981+1036631748+1037998760+1040734330+1041820344+1038162323+1031044932
973+1025362692+1023835493+1024573215+1024184840+1021202097+1016405250
964+1011707414+1008811585+1008074707+1008680158+1009340177+1008428625
955+1004698948+998945404+993587478+990025513+987403650+984183297+980232816
945+976844048+975166435+975327326+976709386+977847578+976722325+972905732
935+968539944+965954647+965352220+965611910+966552996+968930288+972341699
925+974700568+974303263+971753547+969097508+967494926+966703480+966185787
915+965694465+965141120+964343205+962924438+960779622+958547680+956983634
905+956081856+955570563+955456926+955783631+956506937+957619252+958918757
895+959716110+959818847+960109618+960688558+959945703+957184466+954249540
885+952785277+951880757+949880096+946985885+944677506+943577849+943351350
875+943919602+945367832+947023365+947653006+946739977+944907450+943086456
865+941884906+941596948+941942357+942133978+942216955+943252902+945243859
855+946415101+945294278+942403583+939464508+937674736+936860787+936104782
845+935453482+936241764+939075852+942512719+944702821+945235139+944274364
835+941732735+938462033+936423540+936588229+937946380+939305938+940769709
825+942762705+944789665+945839747+945454185+944208404+943651825+945289004
815+949024026+952746952+953832475+952004730+949957588+949900840+950874695
805+950710077+949622445+950015672+952955520+956422976+957637957+956491186
795+955416141+955649953+955887563+954996474+954162625+955186899+957604555
785+958860532+957559058+954797540+951974422+949556837+948217039+949295881
776+952989063+956815570+957539087+955126706+952813967+952427913+952298244
766+950656353+948652176+948543954+950591800+953145031+954742339+955426056
756+956605525+959407970+963323783+967123990+970277188+972139460+970615918
746+964613583+957107748+952699487+953309720+957126734+961022506+963927335
736+967041717+970430837+971440273+968399305+964058129+962092347+962133976
726+961869083+961740398+963240173+965150754+965140136+963329408+961391402
716+959599801+957745897+956588578+956406451+956251396+955418532+954204887
706+953069578+952129828+951498640+951414186+951488163+950145974+946209205
696+940678856+936049792+934369155+936284659+941053097+946508978+949584754
686+948374695+944660980+942022522+940553969+936713679+929762523+923961936
676+922819243+925471344+928180756+926859944+919127539+907513706+900650450
666+901848976+905534774+906861493+904956466+901571355+898003694+893913418
656+889935794+888798868+891980404+897723541+902819667+904854363+902960236
646+899058276+897100932+898476522+900567122+900105615+896384868+891310751
636+887621578+886531274+886225454+883660128+879001529+876640622+879461349
626+883618991+883304452+879895994+878444317+878139623+873605068+863712025
616+853451773+848635941+851797718+861082637+871136431+875850863+873789516
606+869102579+867100723+871937441+882783665+891075673
##END=
