##TITLE=<SNM>
##JCAMP-DX=4.24
##DATA TYPE=INFRARED SPECTRUM
##DATE=3/5/2025
##SAMPLING PROCEDURE=Instrument type and / or accessory
##ORIGIN=Admin
##XUNITS=1/CM
##YUNITS=ABSORBANCE
##RESOLUTION=4
##FIRSTX=4497.3318
##LASTX=599.83466
##DELTAX=-1.4281778
##MAXY=1.7212695
##MINY=0.18021369
##XFACTOR=1
##YFACTOR=1.6030571e-09
##NPOINTS=2730
##FIRSTY=0.19782861
##XYDATA=(X++(Y..Y))
4497+123407084+123853136+124468886+125002492+125482715+125754941+125382426
4487+124344410+123336215+123140620+123969627+125327666+126365709+126573268
4477+126216024+125989689+126274484+126857058+127335394+127574129+127616749
4467+127368383+126722042+125885664+125236413+124940352+124924940+125066873
4457+125274821+125474916+125521337+125178111+124429129+123746461+123705766
4447+124301642+124900586+124884477+124207330+123325377+122746892+122725624
4437+123143799+123510384+123295696+122461939+121478442+120729999+120193586
4427+119756625+119493972+119474349+119509542+119247484+118516823+117492993
4417+116503928+115800670+115534485+115798346+116569396+117579338+118331435
4407+118466804+118136992+117757997+117416138+116925077+116377305+116056713
4397+115955346+115924802+116000113+116128075+116078251+115978511+116260554
4387+116822139+117049692+116853930+116812844+117070161+116910260+115782349
4377+114196375+113179005+113175259+113806728+114483679+114944344+115270977
4367+115625079+115993867+116132109+115816175+115094400+114217624+113488479
4357+113222759+113590422+114352669+114964329+115097607+114975270+115056466
4347+115399385+115522708+115062712+114346246+113986902+114070143+114107148
4337+113765437+113343135+113426887+114219446+115249356+115751971+115408039
4327+114717758+114522785+115065557+115624614+115308178+114134430+112950392
4317+112418757+112620050+113407720+114491441+115366776+115803868+116223009
4307+117039690+117898192+118082205+117497873+116808066+116630086+116885023
4297+117036065+116872344+116781676+117115616+117633029+117854726+117682063
4287+117367950+117133063+117082226+117273081+117545020+117432851+116666422
4277+115712289+115373153+115899527+116883331+117894278+118811043+119599392
4267+120125599+120271101+120104944+119791417+119331831+118666016+118068001
4257+118054941+118751032+119682317+120362642+120802671+121292161+121859342
4247+122184312+122080147+121805438+121680665+121616982+121373004+121110723
4237+121256736+121863971+122487595+122720521+122570120+122274673+121993615
4227+121770636+121653234+121698075+121849517+121970999+122108349+122530289
4217+123276631+123911679+123999939+123583307+123017799+122619851+122535950
4207+122712982+123003939+123362772+123807560+124273049+124691949+125094564
4197+125477741+125677966+125505786+125025805+124602137+124503856+124557686
4187+124438639+124158957+123991499+124069544+124286667+124498157+124752500
4177+125290354+126196513+127193870+128010681+128685058+129275339+129652019
4167+129786877+129836812+129774050+129309323+128396006+127584001+127521173
4157+128050103+128237333+127645379+127057785+127375829+128316669+128896818
4147+128826089+128652756+128747440+128871897+128726060+128413249+128240186
4137+128333912+128622044+129075997+129760989+130614852+131357578+131703872
4127+131589788+131170386+130661404+130229444+129979331+129913900+129875249
4117+129702911+129545270+129784033+130550425+131524209+132224948+132338594
4107+131918764+131451927+131548554+132435062+133780832+134918736+135238277
4097+134589249+133348974+132054971+131117951+130781957+131018201+131556139
4087+132233471+133097596+134101497+135031602+135705672+135978094+135755319
4077+135253363+134945358+135045610+135291084+135348726+135211971+135084112
4067+135065288+135104208+135103149+134936723+134560173+134200903+134166250
4057+134419886+134680902+134879918+135166088+135580266+135982872+136166940
4047+136017497+135773129+135916697+136533786+137130583+137283186+137045036
4037+136619630+136142056+135860218+136045774+136646791+137309297+137744279
4027+137950340+138134753+138439988+138758488+138973659+139279954+139858049
4017+140328446+140069353+139091870+138092059+137625873+137637251+137807302
4007+138027465+138381966+138884070+139461411+140072067+140584675+140682231
3997+140231104+139620977+139393517+139664322+140197751+140817675+141434801
3987+141894155+142092892+142137668+142183430+142168910+141920684+141549898
3977+141468172+141856908+142372992+142580504+142450647+142205841+141949063
3967+141740213+141795911+142306632+143162633+144030904+144600976+144750410
3957+144663581+144718564+145050402+145431284+145736900+146061712+146251981
3947+146003494+145515984+145347048+145646455+146040834+146170534+146002936
3937+145781584+145915754+146608675+147430134+147557947+146765155+145904944
3927+145982180+147008511+148029366+148274860+147997799+147910673+148264421
3917+148645219+148435048+147518274+146469225+145967539+146212912+147068857
3907+148557209+150678286+152781310+153864771+153735750+152944204+151721748
3897+150161988+149000715+149109667+150337235+151360973+151380428+151535030
3887+152934444+154585197+154898232+154465314+154753194+155249061+154735579
3878+153974355+154458603+156121626+157897618+159252432+159898969+159354589
3868+158166945+157566197+157606595+157280957+156248788+155316258+155349982
3858+156884747+160272497+164849045+167467726+165464740+161178935+157715389
3848+156251856+156889413+158954308+161301412+163303321+165212702+167073952
3838+167964550+167266275+165772196+164472653+163537195+162849442+162624455
3828+163005662+163855546+165456244+168234119+171097159+171869166+170948766
3818+170617941+170778046+169634462+167403383+166089358+166891054+169441879
3808+172047156+173211785+173776651+175336784+177235234+177596920+176833800
3798+176498159+176376109+175625501+174688518+174577939+175539648+177180130
3788+179165009+181321538+183414003+185478731+188100423+191551774+194983120
3778+197411412+199175765+201488886+205296643+210715081+216739081+221980497
3768+226386993+231032309+236440912+242612654+249788753+257915797+266020587
3758+273441510+281224956+291036077+303486887+317536871+330783094+341617851
3748+351060742+360495341+369446948+376386831+381925701+388523845+397645410
3738+409560746+423740717+438542295+451368512+460033484+464311257+466122831
3728+467956343+470840094+473693281+475299946+476388817+478689965+482999119
3718+488792983+495252476+502321230+510410776+518948103+526539634+533212291
3708+539973291+547112283+554474440+561701366+567921966+572614353+576508819
3698+580768521+586123006+592291031+598157473+602958655+606488329+607876216
3688+606343245+603371299+601552325+602392858+605777969+610450130+615168248
3678+618761912+618916030+615145790+612340790+613662754+615737465+614370028
3668+611456383+610887984+612805935+615473436+618257242+621685558+626021149
3658+630672674+634565094+637396047+640329398+644644130+650388132+655071708
3648+655718226+653259464+651002674+651082838+653189711+655221848+655672566
3638+655224302+655481972+657374455+661392549+668007351+676112178+680987017
3628+678661069+673408760+671548625+674332506+679261035+683439087+686136482
3618+688330360+690282482+691111563+690454039+689846562+691518110+695540815
3608+699235576+700043018+698092904+695586772+695093071+697742502+702118955
3598+706065661+709320486+712604983+715108810+715381353+713671210+711345634
3588+709235861+707767772+707205508+707008593+706740735+707335942+709716994
3578+712752595+714264410+713938548+713641465+714885644+717388058+719529138
3568+719366133+716349494+712258894+709334764+708411167+709183285+710860039
3558+712182597+712454099+712445399+713089240+713944794+713870654+712839749
3548+711924332+711992821+713326163+715840326+718833837+721001614+721283378
3538+719870095+718595204+719383608+721687024+722763290+721097543+718008325
3528+715618275+715096763+717016760+721092263+725088198+726389860+724638148
3518+721119480+716771359+712229818+708722230+707724344+709680853+713352413
3508+716588499+717755414+716726667+714700776+712968473+712106003+712490166
3498+714805406+719020936+723705776+727577151+730681688+732743199+731975691
3488+727556999+721960013+718629411+718631568+720444035+721723462+721256458
3478+720058682+720126353+721770758+723208580+722784484+720603694+718270681
3468+717603489+718945903+720763129+721463561+720804624+719486007+718800596
3458+720258572+723854578+727310929+728568345+728094500+727674791+728343246
3448+730093843+732155948+733307471+733164023+732842028+732757179+730674326
3438+724898496+718658785+717280528+721621212+727413254+730415689+729728940
3428+726829722+723882687+722163547+721216227+720360747+719911962+719806663
3418+719027331+717370136+716063119+716468625+719106752+723131688+726568854
3408+728308147+729184449+729806650+729208245+726777221+723982409+722939755
3398+723967983+725397774+725288682+723120757+720151785+718275812+718422531
3388+720168071+722577753+724698978+725366838+723744073+720898769+719316309
3378+720139738+721901935+722448509+721402434+720531635+721838801+725416736
3368+729379282+731785022+732337619+732133937+732033695+731454550+729372886
3358+726581570+725419711+726589824+728203368+729013263+730061941+731800416
3348+732369893+730493622+727892602+726962609+727716509+728322871+727772653
3338+727018977+727745511+730073244+731689911+730826548+728984485+729126222
3328+732059424+735139570+734929046+731437223+728196675+727504424+728178010
3318+728438878+728339082+728421700+728726071+729687296+731570483+733207823
3308+733377521+732558925+731945648+731976360+732472887+733372241+734552542
3298+735214231+734400840+732547920+731521923+732160633+732835633+731671766
3288+729219771+727630470+728256018+730781410+733317361+733260250+729967796
3278+726449872+726445559+730180104+734178047+735162399+733117248+730407434
3268+729360616+730506561+732291588+733057980+732827676+732393020+731976509
3258+731527501+731014465+730055843+728729268+728390244+730036434+732716279
3248+734747152+735597427+735603376+734780616+733201577+731489055+730009291
3238+728349865+726142973+724138201+723601741+724435805+724873956+723697001
3228+721826010+720764245+720390865+719509134+718173041+717993750+719841912
3218+722669741+725263845+727627793+729623641+729952477+727911267+725134972
3208+724155453+725446556+726820426+726131595+723813603+721616081+720243178
3198+719660018+719989672+720893786+721444227+721540007+722222294+723730688
3188+724719874+724488305+724249672+724957243+725469460+724205277+721307323
3178+718009292+715181017+713296640+712645288+712889573+713136833+712754529
3168+711907749+711108636+710332800+709166107+707777514+706963305+707030456
3158+707400267+707314153+706414947+705043234+703980948+703328332+702034701
3148+699486331+696804478+695298166+694876970+695238452+696944282+699753817
3138+701372418+699809144+696224589+693513511+692823490+693096108+693251156
3128+693245579+693264839+693285438+693531582+694300874+695122519+695051279
3118+694081799+693249446+692881197+691741870+688772378+684892005+682057557
3108+681028438+680883801+680591328+680274241+680253196+679946371+679182136
3098+679148449+680377607+681317192+680630071+679256648+678611468+678491743
3088+677881812+676335121+674034530+671666269+670264959+670234098+670841426
3078+671327914+671761380+672209347+672030577+670680429+668705700+667351760
3068+667148673+667190912+666324425+664968031+664555536+665162939+665320590
3058+664416104+663624353+663904333+664529434+664180296+662673241+661021549
3048+659871142+658754050+657112248+655232705+653871775+653414884+653600719
3038+653737846+653158032+651777841+650233232+649383999+649669407+650790737
3028+651783270+651630006+650098411+647876646+645947577+644754411+643689002
3018+641651362+638700758+636698664+637439475+640455370+643343136+644073685
3008+642403253+639362893+636407753+634757324+634495118+634635145+634505454
2998+634285338+633996732+633233909+632100234+631134250+630356331+629590831
2988+629251732+629507469+629302151+627488048+624479292+621846556+620742180
2978+621243355+622583649+623624109+623587559+622606702+621315934+620092502
2968+619223227+619277141+620213008+620470678+618436199+614804237+611877356
2958+610831988+610973056+611120631+610723268+609838786+608847406+608145822
2948+607718602+607090266+605817568+603992310+602360919+601754929+602037363
2938+601927156+600448173+598219901+596563189+595710497+594692421+592892373
2928+591011826+590170512+590467930+590801265+590067778+588248693+586094822
2918+584324929+583448813+583494249+583516075+582371468+580309511+578679570
2908+577984046+577487780+576663607+575708256+574862220+574317840+574215367
2898+574019270+572792157+570499449+568073296+566281762+565477072+565856699
2888+566941926+567435701+566539432+564909938+563684572+563142461+562782354
2878+562183020+561249049+559929316+558301234+556810464+555870470+555267120
2868+554424839+553241006+552246651+551854197+551787344+551558341+551165849
2858+550718105+549809381+548147686+546304544+544903420+543752121+542601119
2848+541807064+541516934+541112915+540014340+538409385+536935348+536008962
2838+535565196+535231229+534650225+533674796+532406225+531158700+530186617
2828+529350509+528316593+527089331+525971496+525043585+524162189+523441828
2818+523194977+523305668+523121246+522230145+520963545+519824107+518825514
2808+517667448+516226019+514620506+513043549+511758247+511031304+510753035
2798+510359725+509505435+508528258+507854672+507318212+506532485+505569772
2788+504753891+504018545+502921457+501259651+499386355+497835574+496831292
2778+496311266+496125468+495892189+495048161+493522032+491983261+490987679
2768+490357335+489700518+488939107+488069275+486924780+485414750+483717919
2758+482153604+480968953+480159541+479431855+478424189+476966921+475189442
2748+473507334+472375779+471849358+471486909+470818045+469783199+468648409
2738+467643197+466801698+466068769+465424035+464859243+464298912+463614431
2728+462725599+461667329+460547858+459433778+458228416+456717457+454858959
2718+452988377+451573421+450683845+449905517+448928564+447917292+447097655
2708+446368965+445569778+444756685+444023868+443368946+442810140+442356819
2698+441895950+441258392+440284079+438843059+437036392+435322234+434178818
2688+433655855+433392459+433001231+432312846+431344519+430183255+428912974
2678+427662437+426660794+426045881+425606354+424967086+424059366+423173433
2668+422565584+422225147+421962049+421599116+421127464+420610005+419905260
2658+418762921+417264827+415842100+414785429+414010001+413302431+412569279
2648+411825195+411065124+410228569+409327207+408548098+408105485+407996617
2638+407943112+407565158+406680490+405502383+404486389+403914271+403686272
2628+403520813+403216405+402676785+401820524+400638327+399368380+398413847
2618+397958927+397806407+397652586+397377775+396992199+396446555+395666517
2608+394737714+393873087+393184033+392658207+392341418+392259952+392161272
2598+391719440+391049088+390593127+390423986+390064289+389142811+387926183
2588+387035232+386789237+386932535+386949305+386586410+386023216+385524161
2578+385072104+384500991+383866482+383427588+383307304+383369175+383365345
2568+383104775+382596015+382064686+381701271+381446352+381147187+380785184
2558+380451105+380254227+380267538+380409276+380426454+380098435+379402205
2548+378529547+377816101+377500465+377480349+377489310+377483510+377608998
2538+377863062+378069384+378176579+378340923+378633396+378834327+378668161
2528+378148953+377533594+377015687+376618622+376312207+376095474+375963999
2518+375852527+375677735+375439139+375172062+374842891+374478360+374274827
2508+374309740+374314500+374014814+373526319+373159334+372976882+372767474
2498+372405881+372058379+371952411+372061948+372154531+372069124+371822795
2488+371546273+371371258+371271016+371051903+370599437+370035723+369560093
2478+369238284+368984443+368704464+368464232+368461220+368731606+368996044
2468+368985001+368818389+368818314+369014188+369103574+368895318+368528631
2458+368222624+368049505+367972204+367884381+367613436+367093113+366518505
2448+366154197+366018818+365908462+365681764+365361666+365008327+364651976
2438+364307114+363935332+363495211+363098555+362949902+363085690+363323133
2428+363447544+363331685+362946481+362365366+361755397+361352643+361340968
2418+361622398+361833107+361754096+361551752+361497244+361661030+361935618
2408+362133053+362054339+361651102+361131932+360828453+360962866+361508956
2398+362211916+362768566+363035085+363046389+362856835+362461258+361900406
2388+361305906+360696235+359795988+358198915+355651586+352063908+347394871
2378+341781191+335714376+329801716+324331372+319265976+314555890+310175607
2368+306064687+302400378+299630831+297956197+297279357+297771924+299854220
2358+303695217+309215143+316402638+325311263+335465964+345172548+352042008
2348+354451132+352606652+348639199+345011923+342318766+339660486+336561453
2338+333244013+329819080+326181430+322552592+319585629+317783387+317054548
2328+316949100+317064104+317189890+317433208+318219307+319862113+322134854
2318+324454444+326405414+327972332+329408518+331016113+332953623+335123890
2308+337266458+339183629+340829149+342215289+343348704+344228055+344811141
2298+345048770+345022073+344969052+345118188+345515700+346003637+346394604
2288+346733405+347278752+348092849+348808934+349012430+348727840+348319286
2278+348023913+347812944+347631124+347498236+347349992+347041085+346594643
2268+346250896+346198470+346405722+346698417+346864992+346769286+346498230
2258+346293656+346256994+346274804+346271458+346329239+346485886+346607545
2248+346574118+346458855+346432344+346584752+346892990+347271910+347638300
2238+347984203+348330701+348573090+348543530+348306830+348177177+348338695
2228+348649796+348904008+349084972+349295198+349592133+349944282+350259064
2218+350475908+350654790+350881488+351102646+351207796+351258401+351458699
2208+351914772+352555006+353246217+353900729+354501365+355053032+355512005
2198+355830394+356074121+356382024+356797828+357253938+357706181+358166902
2188+358628143+359075589+359584237+360255258+361013247+361635449+362067799
2178+362515729+363117108+363747490+364262384+364717713+365257891+365960033
2168+366849423+367931527+369154067+370431970+371779701+373358405+375343247
2158+377805951+380741458+384094407+387713726+391364873+394812189+397882853
2148+400536709+402915195+405258321+407741103+410359115+412940726+415357026
2138+417746146+420375908+423298476+426370181+429577600+433054736+436782403
2128+440549743+444240006+447880593+451347207+454281487+456397098+457624285
2118+457922967+457264699+455820073+453891078+451660241+449161620+446429236
2108+443576718+440781498+438214983+435958341+433967476+432075737+430042894
2098+427675971+424887034+421603244+417728262+413299716+408640011+404225632
2088+400329568+396845888+393531312+390311957+387267470+384486267+382061005
2078+380079435+378542226+377377913+376505850+375808578+375131831+374408756
2068+373732529+373237787+372928248+372661022+372291398+371770740+371140768
2058+370520500+370043903+369748344+369602145+369589652+369646169+369652824
2048+369613597+369650742+369819659+370157419+370801892+371851871+373285492
2038+375108518+377347424+379915389+382691647+385619495+388606054+391469652
2028+393968161+395750474+396450868+395993457+394682016+392925768+390951225
2018+388753331+386288918+383714371+381330679+379267904+377392935+375568755
2008+373839278+372285077+370839446+369367156+367880551+366557360+365502176
1998+364606465+363773666+363141797+362826346+362547036+361866906+360788743
1988+359758248+359119389+358845954+358713810+358523327+358188579+357735666
1978+357248696+356818985+356496432+356221472+355885534+355544911+355413994
1968+355514199+355537809+355254038+354823286+354506608+354325718+354185914
1958+354084519+354020158+353897123+353658527+353367058+353085815+352824054
1948+352662573+352795424+353282507+353780446+353776282+353228816+352658298
1938+352457516+352496780+352456437+352239481+351986905+351853087+351839776
1928+351864167+351961621+352231561+352600443+352952295+353399072+353949624
1918+354119545+353519727+352605388+352136450+352268669+352591445+352691575
1908+352463390+352066474+351754146+351691495+351856173+352069486+352157421
1898+352139536+352171587+352285140+352421412+352686556+353156014+353489758
1888+353264920+352617100+352029404+351717411+351570022+351447879+351339457
1878+351317706+351407686+351562028+351885882+352726563+354218671+355727363
1868+356181948+355338589+354063103+353171779+352781853+352648816+352574638
1858+352476887+352385531+352421709+352642012+352978954+353388438+353991453
1848+355067347+356737073+358387762+358819629+357781400+356452037+355800611
1838+355783805+355947963+356183287+356878773+358327304+360006883+360883743
1828+360787293+360516721+360390116+360011085+359344154+358941995+359152146
1818+359770704+360418821+360998560+361674378+362473937+363133840+363463048
1808+363658922+364110533+365098232+366668050+368505429+369953105+370538199
1798+370611187+371148873+372864630+375488517+377660681+378158881+377529280
1788+377260567+378048005+379596592+381375855+383163225+384876453+386403289
1778+387906403+389950438+393022775+396814135+399922762+401109793+400828586
1768+400231260+400066061+400983858+403323415+406338975+408667749+410056454
1758+411337704+412916185+414750850+417133426+420362113+423905953+426588922
1748+427884487+428342716+428795182+429862822+431748054+433992165+435908295
1738+437812080+440906355+445324415+448905214+449824238+449620035+450035802
1728+451065963+452377739+454084609+456363783+459454005+463869313+469797514
1718+476007331+480006798+480950325+480665586+480967391+482525497+485415903
1708+489484156+494130773+498490309+502712235+508053632+514719224+520481483
1698+523662614+525237898+526087168+526846422+528800403+532511859+537342526
1688+542869238+549824365+558346819+565591407+568934837+570428767+572886525
1678+577261714+583174596+589239999+594344547+599219387+604932565+610618304
1668+614571814+617417155+621235137+626650935+632389063+637168345+641497503
1658+646788110+654089809+663809519+674141837+679966598+681087260+682849605
1648+687026541+691605338+694096820+695051353+696498397+699391963+703903238
1638+709706360+715055119+716786604+714536283+711812340+710785303+711110942
1628+711654987+711823197+711702579+711199063+710051259+708746622+707881623
1618+706701099+703652038+699057401+694964496+691984073+689338955+686417130
1608+683297201+680465653+678295571+676678160+675248667+674065019+673671263
1598+674227802+674951584+674765897+673361315+671302035+669306559+667741575
1588+666495239+665167623+663662948+662483688+662218210+663060974+664950630
1578+667535513+669601486+669861982+669405984+670489835+673587158+677131407
1568+679581915+681552553+684383506+688571076+694692548+704080819+716431591
1558+726174205+730170065+733171236+738325311+745603809+754462982+764365998
1548+774413132+784011034+793129067+801628319+809230820+814660486+815009029
1538+811319399+808709753+809057255+810773123+811963537+812933092+815297114
1528+819766894+825673753+831680557+836800127+840430415+842504494+844255239
1518+846618592+848755582+849930901+851001664+853019747+856177974+860409864
1508+865101620+867675125+866160634+863326930+862305990+863941174+867746068
1498+871859348+873833631+873445601+873043219+874387566+877040343+878930594
1488+878532451+876856516+875911651+876359841+877587288+879157404+881490417
1478+884948701+888975869+892447985+894262757+893871084+892311676+891508251
1468+892060253+893159943+893849518+894077071+894750509+896621351+899409173
1458+901629748+901583196+899761136+898028238+897081886+896875080+897392726
1448+898465497+899370132+899346484+898652745+898352910+899055871+900429964
1438+901694147+902066411+901493885+900883359+900706968+900621896+900653798
1428+901362485+902412054+902601682+901746127+901083918+901375870+901828150
1418+901375498+900268669+899310715+898646052+898096356+897607191+897158852
1408+896727245+896171079+894996876+893011216+891152792+890619456+891555472
1398+893005192+893663534+892620286+890171191+887889563+886897998+886554214
1388+885066568+881329791+876694701+874048393+874969537+878680286+883414950
1378+888090271+892376670+895945906+898639880+901094255+904233519+908089575
1368+911555966+913458413+913851945+913993311+915068387+917002067+918715630
1358+919483287+919451905+919173413+919346011+920517537+922348521+923668328
1348+923799060+923340012+923353546+924382740+926381340+929042594+931914818
1338+934386668+935914843+936421408+936306740+935992330+935733990+935940498
1328+937160584+939392313+941634082+942601257+942113431+941365480+941473308
1318+942198651+942593523+942441821+942276213+942323805+942298373+942168683
1308+942361285+943033756+943735378+943998774+943866258+943727346+943837033
1298+943958617+943546271+942464279+941218091+940217081+939273183+937940734
1288+935919081+933229123+930318973+927903491+926375316+925199328+923200283
1278+919842017+915951531+912866998+911244902+910809354+910676912+909820911
1268+907881877+905416646+902924420+900134368+896582162+892420173+888425280
1258+885433181+883733375+882888678+882167647+881004822+879224257+877264178
1248+875956864+875659260+875843682+875764633+875273759+874863643+875049478
1238+875813193+876852947+878192683+879881781+881409435+882240821+882536342
1228+882723590+882936345+883310841+884256896+885972318+887916409+889203645
1218+889736758+890650614+893077251+896715644+900240039+902882925+905073755
1208+907782974+911487254+915436264+918054165+918613677+918304250+919012564
1198+921228380+923702684+925242757+926215806+927761084+930073126+932185651
1188+933486272+934755512+936951845+939607448+941436498+942069630+942175970
1178+942432005+943414349+945908806+950187694+955128197+958753651+959838172
1168+958931380+957847975+958198675+960297070+963185729+965593403+967019848
1158+967972447+969237151+970995481+972591252+973399511+973999403+975651542
1148+978308186+980309834+980713852+980690725+981755613+983660663+984744812
1138+984091080+983037793+983945774+987436407+991718344+994797597+996347262
1128+997282014+998930584+1002393404+1007063892+1010288675+1010418886+1009097666
1118+1008721385+1009392666+1010053016+1010867001+1012467457+1014430808
1110+1016024125+1017094591+1017489165+1017005280+1016440785+1017270982
1101+1019944060+1023480129+1026876990+1029643171+1030866231+1029424319
1093+1026330491+1025045114+1027701534+1032697140+1037316168+1041130432
1084+1044644638+1046464914+1045032073+1041746461+1039186193+1037864303
1075+1037290513+1038276130+1041204945+1043569637+1042659648+1039801106
1067+1038709596+1040611373+1043378001+1044925436+1045547414+1046557943
1058+1048430718+1051074944+1054338767+1057381061+1058968132+1058996093
1050+1058532286+1058201888+1057549346+1056815451+1058313805+1063837989
1041+1070830930+1073741823+1070725184+1065764604+1062889479+1061837828
1033+1060039415+1056435527+1052412821+1049829128+1049091366+1049407932
1024+1050252332+1051911015+1054689913+1057891271+1059586094+1057821889
1015+1053430117+1050298289+1050821289+1053108122+1054281135+1054396399
1007+1054714601+1054552637+1052587948+1049518288+1047663434+1048523301
998+1050999762+1051969762+1049309995+1044218683+1039669036+1037251026
990+1036510066+1036209339+1034941512+1031900705+1028301427+1026223927
981+1025402580+1023586767+1020630809+1019025222+1019492747+1019229276
973+1015647176+1009727675+1004246028+1000296571+996833229+992649303+987779149
963+982981648+978571508+974417179+970784734+968159323+966277698+964345357
953+962029224+959457132+956847783+954759130+953944921+954436540+955359840
943+955965830+956277116+956468454+956199257+954950096+952615298+949508605
933+946189380+943658857+942983412+943963228+945017408+944952191+944009110
923+943169172+943215426+944345011+946225521+948432190+950629043+952016373
913+951222019+947576933+942459445+938526645+937233683+937715114+938319988
903+938380818+937849341+936467291+934426304+932773794+932356836+933022243
893+933960639+934362054+934017452+933546284+933600049+933876682+933453329
883+932054027+930491645+929638024+929289556+928665496+927666047+926640943
873+925735045+925276815+925459378+925386502+924384971+923721573+924680567
863+926167247+926485523+926051462+926073028+926232017+925748728+925189587
853+925475366+926123892+925836328+924376122+922843560+922297433+922812327
843+923751541+924435464+924481942+923982961+923837803+925445249+928910598
833+932009781+932345236+930079299+927287462+925483175+924775901+924492873
823+924203970+924604865+926729287+930040704+932682326+933923605+934769865
813+935762992+935904878+934460735+932475893+931479865+931700279+932295932
803+932595321+932712146+933321111+934950345+937091797+938548136+938807889
793+938265926+937402489+936612969+936513173+937144670+937607807+937354078
783+936669188+935883164+935214634+935029914+935579760+936712989+937794237
773+937943113+937015649+936125813+936358645+937454320+938315973+938037481
763+936064834+932537763+928971354+927572795+929241517+932692886+935862937
753+937682989+938211194+937899090+937327679+937353929+938833247+941520082
743+943752630+944194945+943470271+942989212+943019106+943036359+942969803
733+942804344+941631628+938842840+936189394+936609400+940212471+942825686
723+940286091+933598859+927823252+926870876+930884137+937097226+942002480
713+943852352+943614611+943069748+942261042+939570414+934565216+929583664
703+927202613+927282405+927825037+927615108+926625104+924907376+922276462
693+918485623+913519911+908054922+903241135+899661861+897085232+895310988
683+894212116+893154515+891078354+887422039+882793641+878395622+874515769
673+869850784+863015420+855303754+852336195+858266479+867249021+872420423
663+873232475+871771971+869877555+868994858+870210110+872962609+873927924
653+869328007+859849905+851093949+848265005+851558648+856738007+859776508
643+859223168+855535545+851093429+848869730+849192469+849188379+847085447
633+844899303+844475504+843694982+839562591+833249111+829249607+830198191
623+834430899+838308595+839079301+836521114+832644757+829176210+826477848
613+823933568+820956045+818468727+818606672+822277265+827974269+833103655
603+835058083+831805265+824559710
##END=
