##TITLE=<SNM>
##JCAMP-DX=4.24
##DATA TYPE=INFRARED SPECTRUM
##DATE=3/5/2025
##SAMPLING PROCEDURE=Instrument type and / or accessory
##ORIGIN=Admin
##XUNITS=1/CM
##YUNITS=ABSORBANCE
##RESOLUTION=4
##FIRSTX=4497.3318
##LASTX=599.83466
##DELTAX=-1.4281778
##MAXY=1.7272134
##MINY=0.17467378
##XFACTOR=1
##YFACTOR=1.6085928e-09
##NPOINTS=2730
##FIRSTY=0.19658425
##XYDATA=(X++(Y..Y))
4497+122208835+122263425+123015795+123876141+123953324+123090959+122112467
4487+121897564+122436115+123027977+123249754+123295256+123329327+123111672
4477+122570324+122210503+122504507+123291513+124121623+124721896+124908008
4467+124611633+124161382+124008933+124099715+123969526+123461943+122934842
4457+122696872+122545729+122115886+121569757+121518716+122116108+122632565
4447+122331595+121448137+120707587+120194492+119415795+118359185+117772788
4437+118235832+119321947+119890474+119259511+117977529+117173339+117311328
4427+117943421+118364854+118094935+117128838+116042371+115437206+115245767
4417+115033801+114784104+114868336+115432241+116146001+116415207+115863752
4407+114816572+114038505+113796182+113617823+113173806+112784323+112714143
4397+112590577+111984570+111136897+110712046+111095656+112129525+113291804
4387+114041868+114148759+113684918+112724333+111344084+109965095+109218635
4377+109289760+109716250+109918787+109661096+109077033+108587940+108690793
4367+109459754+110368816+110887987+111005559+110930553+110720337+110511427
4357+110647304+111260527+112035547+112483519+112332840+111785535+111389947
4347+111451661+111728231+111876558+111810926+111458979+110757298+110014886
4337+109645005+109550916+109356540+109117005+109199367+109595686+109962918
4327+110241063+110598819+110810276+110403545+109578854+109304618+110167965
4317+111615217+112611439+112697506+112211840+111756420+111694077+112022485
4307+112477081+112777672+112923646+113208599+113837052+114582410+114928114
4297+114510312+113476814+112543139+112506104+113426124+114423560+114549858
4287+113802685+113069258+113057883+113523808+113704334+113331109+112893058
4277+112960051+113567374+114270805+114624994+114565634+114349961+114237910
4267+114332194+114595295+114799490+114579723+113883833+113318668+113608726
4257+114631812+115493843+115714777+115713990+115951811+116365925+116811036
4247+117265159+117501415+117297785+116947366+116968042+117446417+118066348
4237+118541962+118756051+118715958+118549327+118354247+118001216+117333023
4227+116631815+116547425+117294848+118196611+118380769+117771788+117108578
4217+117123678+117898142+118851529+119264245+118919690+118216286+117608639
4207+117191403+116963800+117130727+117835669+118877374+119976838+120997562
4197+121679242+121678084+121209834+121080599+121649266+122261322+122175765
4187+121564514+121068983+120859295+120671552+120425283+120349026+120660028
4177+121336799+122064964+122395856+122196459+121865438+121838000+122035858
4167+122110494+122045715+122143148+122485174+122741624+122557531+121981037
4157+121441171+121291075+121469332+121750775+122164352+122857668+123681256
4147+124250329+124300537+123803311+122971664+122227205+121877796+121872367
4137+122091421+122579374+123233042+123712427+123931582+124162614+124461472
4127+124491078+124049692+123342231+122704153+122421627+122712055+123505833
4117+124318925+124659868+124558812+124515395+124906878+125561398+125981543
4107+125960636+125848631+126137225+126866317+127525756+127564709+127006306
4097+126444458+126328062+126427515+126263477+125875968+125747391+126029871
4087+126300652+126189684+125880766+125778414+125984369+126313287+126597592
4077+126828707+127105259+127458586+127727755+127742688+127553815+127275457
4067+126885344+126408293+126054642+125997995+126222246+126619121+127051540
4057+127368554+127519799+127634351+127874933+128152254+128086993+127502226
4047+126871773+126848299+127380134+127778491+127640039+127195253+126776377
4037+126456843+126229110+126180180+126453193+127130131+128050143+128809766
4027+129185511+129389715+129626638+129723543+129569084+129506657+129847729
4017+130324048+130370050+129742302+128725089+127884965+127619020+127912793
4007+128587341+129567417+130705351+131623112+132021561+131952317+131591356
3997+130991481+130239491+129628407+129464305+129777355+130328717+130872066
3987+131370747+131913049+132366015+132307266+131596229+130855521+130913298
3977+131823953+132878702+133507330+133758389+133932987+134134097+134266898
3967+134284573+134287463+134385999+134572213+134764421+134841808+134623718
3957+134027641+133305553+132988604+133557816+135099120+137030138+138290934
3947+138347052+137834041+137578424+137412099+136658432+135419868+134522654
3937+134555187+135662274+137704491+139979934+141262842+140999102+140127483
3927+139910477+140451084+140810868+140428916+139906892+140105121+141020834
3917+141726285+141270874+139704753+138016077+137090137+137148914+138292490
3907+140974554+145239755+149750206+152597845+153200425+152028688+149300038
3897+145768671+143378676+143652115+145952931+147572872+146698067+145205248
3887+145776341+148050849+149685593+150363976+151325756+151507654+149215398
3878+146287028+145776786+148094156+151736860+155449430+157852098+157471462
3868+155487540+154516728+154664452+154005791+152110651+150621853+150778767
3858+153006271+157992421+165507119+170482662+167003708+158812776+152088687
3848+149055723+149521000+152254012+155831511+159553520+163404033+166658088
3838+167545566+165653557+162744714+160099991+157774155+156058077+155636552
3828+156405161+157794683+160305993+164709312+169160746+169974820+167635199
3818+165774334+164504719+161567363+157564597+155295545+156291461+160074962
3808+164327786+166863478+168873004+172607166+176484561+176759445+174131342
3798+171844023+170117477+167932705+166072136+165825413+167060753+168939719
3788+171224296+174036021+177069790+180116122+183737344+188118802+191982153
3778+194243404+195892544+198768687+203968443+211487736+219894933+227195905
3768+233249605+239344065+245795946+252644953+261085925+271808436+283136722
3758+293057905+302655941+315105479+332391162+352994393+371082812+382586271
3748+391256218+401808947+413683872+422447713+427864734+434451103+444370359
3738+456543938+469064600+480296158+488369055+492528911+494545941+496620404
3728+499239337+501487100+502534096+502624248+502498524+502603312+503450365
3718+505815626+510073491+516040577+523330044+530759574+536168332+539028523
3708+541244384+544942438+551028986+558238231+563567916+565583315+566363819
3698+568453288+572328645+577433487+583872381+592025056+600068606+603421540
3688+600313644+595091859+591868244+590878126+591022673+592323377+595799144
3678+601109191+604399281+601889213+597199819+595520054+595753345+594139277
3668+590908622+589171646+589956596+592517910+596375740+601445826+606992869
3658+611403618+613534106+614530226+617135301+622975515+630414531+634302968
3648+631631974+626481185+623464182+623322859+624769221+626081596+626716848
3638+628501512+633405448+640040765+645114112+648531593+652960943+657688725
3628+658009611+654185352+651206811+651712523+655663729+661963115+668650530
3618+673995703+678031392+680664221+680532383+678157969+677067102+679405499
3608+683226202+685539477+685853990+685482710+685370585+685609435+686039408
3598+686390086+686330355+686233941+687874021+692792631+699949518+706079938
3588+708165554+705785360+701113900+696802382+694606567+694763972+696087834
3578+697593334+699188876+700311387+700225570+699985164+701667708+705247337
3568+708168667+708972366+709165417+709666830+708739964+704830629+699260019
3558+695008454+694261818+697271707+701679120+703668322+702077894+700075353
3548+700754329+702998906+703360404+701002886+698502415+697883466+698114609
3538+697094292+694972882+693846592+694301762+694662296+694097150+693853336
3528+694911817+696854109+699256536+701869874+703492761+703059971+701637916
3518+700988510+701171778+701300207+701043423+700357111+698946321+696984094
3508+695797480+696623189+699023689+701173483+701343115+698991230+695096791
3498+691657744+689971346+689307414+688132139+686525407+686285520+688791105
3488+693594255+699009683+703574057+706549560+707266182+705456247+702337123
3478+699697033+698247706+698178564+699865480+702170381+702252196+699402973
3468+696484311+696076273+697855972+700152648+701665262+701712988+700669105
3458+699938550+700550162+702037802+703128817+703242573+703226936+704248957
3448+705951880+706754097+706184949+705042429+703276662+699975159+695343644
3438+691404369+690573769+693695264+698682275+701559658+699987239+695271611
3428+690559985+688430867+689898572+693933817+697948459+699977012+700320798
3418+700237946+699961820+699205846+698478108+698295876+697935342+696421319
3408+694358825+693423510+694188970+695455028+695626810+694241661+692060075
3398+689940147+688146145+686623081+685296107+684263192+684001295+684930829
3388+686786267+688965407+691223027+693370820+695009343+696276068+697607711
3378+698759569+698920309+697167881+693288115+688788808+686010728+685896751
3368+687498665+689472082+691240739+692741200+693722017+693924998+694021634
3358+695364172+698146623+700707641+701422040+700395277+698624322+696787783
3348+695431758+695353055+697143352+700171323+702269167+701799694+699968860
3338+699165457+699840580+700390682+699557265+697630537+695455769+693505844
3328+691709619+689912282+688556776+688532024+689777184+690525969+689273547
3318+687067654+686142566+686796345+687452422+687430412+687864906+689792079
3308+692812491+695824974+697870053+698519978+698138397+697452455+696730645
3298+695463180+693148052+690323951+688310146+687975326+689173279+691110457
3288+692988942+694635766+696354400+698151144+699494051+699844804+699003977
3278+697091254+694927084+693481611+692738902+692365399+692944626+694851271
3268+696710785+696984835+696238125+695875293+695638667+694407662+692720968
3258+692117805+692396524+691934240+690541828+689653424+689759620+689816239
3248+689077754+687948203+687198603+687365716+688627623+690805281+693308569
3238+695098791+695325932+694227506+693159983+693377045+694674821+695583457
3228+695002007+693183623+690954164+688727150+686843923+685946477+686354811
3218+687428930+687699497+686174359+683899249+682922434+683277632+683096958
3208+682142968+682337204+684208797+685703626+685069041+682761916+680329772
3198+679156201+679926551+682052704+684011300+684802030+684407628+682827428
3188+680177703+677754896+677224432+678397707+679033256+677408072+674308957
3178+671920018+671408081+672092318+672507767+672003463+671184794+670796247
3168+670645438+669514256+666604932+662896651+660127613+659058533+659314205
3158+660004594+660067289+659073429+658005906+658067786+658986871+659595148
3148+659288194+657983896+655746581+653002295+650472329+648888126+648717826
3138+649597041+650412079+650485149+649878725+648648980+646997784+645799090
3128+645682000+645840516+645217418+644466706+644835763+645506957+644319602
3118+641129853+638246393+637334051+637675763+637721339+636979890+636040277
3108+635584737+635619345+635456678+634586356+633476073+633001709+633190091
3098+633041875+631860078+630288993+629422746+629293058+629043537+628314390
3088+627645271+627569532+627914801+628218420+628352407+628232649+627370701
3078+625500739+623492121+622650923+623067409+623543477+622964844+621038115
3068+618299387+616076449+615627541+616744197+617958565+618301017+617938815
3058+617153532+615892291+614458379+613442917+612867544+612343638+611838297
3048+611564506+611435040+611088252+610250278+608894476+607315646+606004160
3038+605293800+605230511+605556549+605587526+604562652+602428236+599954072
3028+598056876+597178513+596961117+596486642+595320815+594032747+593188141
3018+592487674+591541762+590771040+590768447+591271268+591483142+591122311
3008+590481649+589651753+588359128+586517141+584420816+582404565+580635797
2998+579184284+578063256+577299278+577021633+577344743+578170971+579117217
2988+579534851+578753014+576729834+574440792+573050789+572626447+572277177
2978+571548105+570861866+570576181+570489437+570372755+570179037+569768702
2968+568989421+567763604+566061533+564272682+563079361+562377597+561190834
2958+559191109+557287687+556380867+556530453+557364203+558430059+559146644
2948+558948221+557543174+555026806+552008765+549545200+548511914+548823686
2938+549394353+549190297+548254390+547233369+546231765+544937213+543542208
2928+542613711+542254103+542036596+541496091+540355683+538628119+536616388
2918+534690215+533230625+532545869+532446194+532356523+532146279+532201527
2908+532543386+532617679+531982168+530620251+528791938+526918714+525367564
2898+524194919+523202282+522258000+521572207+521529076+521991101+522064394
2888+521099473+519576557+518405395+517775219+517183394+516215472+514875121
2878+513416642+512242256+511782750+512078218+512518159+512364385+511494323
2868+510197806+508572845+506763243+505293426+504482946+503966414+503276100
2858+502403295+501447564+500336206+499132325+498090703+497281445+496504277
2848+495586674+494578919+493723233+493272250+493214075+493221338+493011094
2838+492577378+491900366+490802866+489315041+487774970+486418130+485214619
2828+484151839+483336579+482752832+482191354+481487033+480688596+479948333
2818+479318009+478761941+478299471+477969321+477699605+477329807+476693036
2808+475703771+474538944+473535636+472643748+471320331+469375038+467545909
2798+466711529+466804572+466924997+466313237+464907078+463222904+461975670
2788+461498082+461274202+460389540+458651527+456864306+455869927+455735644
2778+455962970+456044377+455642565+454575227+452899612+450971364+449314388
2768+448308263+447880401+447557773+446948459+446097071+445260172+444483707
2758+443564844+442387123+441180537+440307732+439758111+439073429+437943285
2748+436621202+435510882+434620328+433652554+432435000+431100096+429928637
2738+429080732+428454299+427805930+426971254+425980173+425055011+424418870
2728+423967775+423283464+422158359+420890560+419848382+419006295+418166838
2718+417368512+416706285+415910293+414536667+412631170+410873889+409914007
2708+409747524+409824041+409621430+409067622+408459975+407955597+407243421
2698+405979253+404422989+403186463+402400291+401623122+400573385+399468956
2688+398590186+397899723+397193624+396408267+395668634+395081885+394541046
2678+393803340+392794696+391730804+390822242+389982230+389036392+388110860
2668+387496136+387180214+386854844+386365325+385840086+385360200+384756815
2658+383815645+382591866+381440713+380676328+380248503+379870072+379375143
2648+378759196+377987252+377043933+376102690+375393108+374955612+374703646
2638+374562804+374365455+373836844+372915017+371908559+371168296+370764112
2628+370537416+370272555+369798413+369088608+368267827+367465499+366741614
2618+366131410+365627329+365152335+364651033+364130907+363556164+362864367
2608+362182872+361792398+361725145+361659893+361394958+361081000+360765894
2598+360197079+359380782+358792291+358691320+358711069+358375731+357624204
2588+356711863+355938918+355490937+355315931+355193283+354976295+354650221
2578+354226028+353744846+353286081+352859183+352404902+351966073+351746232
2568+351902711+352298928+352536036+352294926+351644408+350960134+350591707
2558+350632244+350891250+351047544+350904034+350506742+350010368+349495615
2548+348954183+348388667+347863353+347454427+347200200+347131428+347253891
2538+347432639+347448424+347282608+347156884+347165443+347113938+346868975
2528+346623270+346644465+346928743+347218060+347229139+346834700+346172806
2518+345601250+345421168+345593802+345786853+345729827+345444660+345082532
2508+344678978+344211728+343763265+343452901+343289345+343164955+342905800
2498+342373929+341657936+341053809+340748856+340667930+340650922+340595823
2488+340462836+340297835+340192751+340148768+340067138+339879608+339600147
2478+339289413+339022181+338815827+338553152+338066486+337372837+336760151
2468+336524229+336658697+336921521+337120056+337168189+336978843+336523599
2458+335981611+335665134+335708487+335883344+335848662+335558382+335222414
2448+334927761+334595388+334271129+334122469+334130658+334066703+333845898
2438+333686604+333758229+333858867+333694163+333306208+332938115+332657172
2428+332361037+331957557+331410753+330820595+330444646+330441015+330668897
2418+330856167+330864134+330791137+330886699+331251125+331616476+331622775
2408+331287734+331002752+331065855+331356580+331517690+331418275+331321156
2398+331503906+331831315+331895714+331548519+331084345+330847645+330843013
2388+330812406+330496003+329678631+328139189+325720941+322418808+318362665
2378+313771723+308946619+304249907+299972386+296122726+292451444+288845691
2368+285601418+283141984+281542089+280474418+279756016+279893524+281762170
2358+285693831+291287155+298243062+306784394+316631507+326008145+332536302
2348+334865844+333437083+330280164+327436462+325128782+322463087+319182297
2338+315581844+311702374+307464500+303212194+299722754+297661223+297020709
2328+297116234+297166034+296881924+296543547+296597590+297279975+298572582
2318+300306668+302256630+304245887+306129392+307702479+308872586+309895551
2308+311140044+312652325+314162160+315405467+316281532+316823149+317158080
2298+317467294+317905494+318519218+319218944+319832519+320212915+320361316
2288+320465696+320711178+321037586+321235862+321255056+321213704+321173611
2278+321111472+321039550+320982154+320891335+320694875+320402445+320096973
2268+319811287+319493476+319162622+319004883+319181038+319590668+319932157
2258+319981105+319768564+319500924+319345594+319307206+319268966+319141760
2248+319012961+319079658+319357636+319617570+319720357+319795169+319993852
2238+320304512+320658303+321016243+321344689+321648605+322020849+322565615
2228+323251891+323898074+324379626+324814306+325422731+326250478+327160151
2218+328049148+328950374+329961315+331197322+332794568+334799925+337017490
2208+339143421+341124656+343173700+345386003+347608200+349746211+351955957
2198+354427267+357113009+359756323+362153377+364323735+366422024+368561072
2188+370734246+372852136+374843784+376696516+378388879+379883819+381212683
2178+382452025+383620520+384658437+385462099+385955842+386161825+386105058
2168+385713917+384993923+384176439+383524365+383102543+382804333+382546438
2158+382384920+382345717+382239335+381893956+381416998+381002031+380682034
2148+380247021+379350650+378358235+379005085+382910641+389515388+396807226
2138+403742939+410515392+417159565+423461656+429558728+435663470+441755984
2128+447797697+453812435+459772926+465515022+470734731+475187832+478709028
2118+480934189+481545615+480855635+479599915+478359054+477653214+478255896
2108+481009927+486451367+494674629+505280679+517100578+528035778+535665807
2098+538175802+534885934+526712361+515914816+504425401+492819599+481081960
2088+469211741+457049316+444580788+432202190+420287915+409138247+399225216
2078+390825837+383795488+377946418+373135932+369175351+366062712+363847667
2068+362205549+360674148+359052150+357280937+355433614+353791682+352517991
2058+351559740+350920152+350543796+350196860+349841439+349715345+349988358
2048+350743331+352089018+354136542+357160363+361615947+367839002+376152379
2038+387147533+401227423+418007099+436456127+455241493+472820199+487563873
2028+497874678+502605424+501927560+497248578+490068754+481491591+472350244
2018+463096291+453878539+444863880+436206458+427922946+419986815+412328217
2008+404810462+397392344+390190399+383377891+377162320+371720992+367016924
1998+362833613+359094058+355968895+353501550+351286727+348843133+346237206
1988+343939567+342195366+340897923+339876236+339001875+338166087+337324593
1978+336498143+335736463+335095949+334571229+334130954+333879580+333937792
1968+334079153+333824000+333047831+332148385+331498608+331107837+330887515
1958+330848200+330885328+330732036+330306324+329831034+329504848+329299866
1948+329195300+329435557+330270975+331325899+331612178+330654890+329168325
1938+328103210+327679610+327607688+327632514+327648596+327638628+327653376
1928+327835125+328447144+329571175+330711360+331287697+331526028+331948294
1918+332188848+331463999+330042945+329038265+329028039+329630720+330080444
1908+329944419+329393501+328871560+328619445+328603141+328752320+329108557
1898+329728024+330425638+330802031+330856167+331206919+332112702+332763220
1888+332326281+331176609+330220804+329789200+329712498+329771080+329797611
1878+329724652+329609266+329598446+330127057+331922171+335121701+338231265
1868+338899310+336687562+333622612+331573123+330813073+330722143+330755417
1858+330704505+330584858+330512122+330588156+330921641+331670390+332977170
1848+335019914+337842088+340504003+341061035+339028924+336416698+334974449
1838+334669236+334688356+334865807+335997915+338710150+342064491+343966061
1828+343780791+342884383+342034293+340719805+338992204+337844793+337803404
1818+338426020+339091434+339758812+340813292+342283443+343481025+343722135
1808+343250105+343019445+343836557+345877561+348559226+350740960+351587456
1798+351535136+352082607+354499597+358437241+361300915+360585515+357557285
1788+355474781+355727378+357547058+359780556+361953286+363724833+364690161
1778+365329230+367121898+371216206+377021553+381764527+382873661+381059057
1768+378548766+376807455+376882230+379104797+382106756+383976534+384859046
1758+386047476+387506177+388880766+391242656+395654405+400910909+404164242
1748+404355181+403091494+402227249+402666597+404445889+406654857+408096847
1738+409330001+412587261+418383233+422982734+422608156+419516712+416998862
1728+415684931+415576103+416864468+419335704+422969321+428673065+436999522
1718+445811941+450428302+449221308+445614703+442957346+442629419+445048075
1708+449945564+455898199+461104718+465898715+472415274+480676775+487036078
1698+489468778+489596243+487894505+485157815+484335997+487121709+492787066
1688+500456928+510739275+522978328+531199886+530957182+527414866+526434902
1678+529814403+536715656+544429760+550673528+556303906+562656279+567888105
1668+569644201+570161325+573159245+578832458+584158771+587180554+589806787
1658+595001448+604446673+618537940+633631551+640076115+638249728+638471088
1648+643279721+647793998+647162007+643818040+642408954+644401120+649557838
1638+657112685+664375695+666343035+662347883+658148193+657425716+659424848
1628+661682469+663076659+664337751+665513694+665663614+665682438+667951100
1618+672691851+676268664+675024023+670630764+666299385+662726796+659346961
1608+656033749+653227509+651239196+650119057+650099344+651633820+654803559
1598+658894236+662648834+664917571+665239495+663975587+661930952+659832293
1588+657994716+656336331+654716557+653195346+652157466+652494879+655246057
1578+660244258+664646855+665009020+663215389+664048138+668716560+674324075
1568+677847605+680368605+684472843+691148919+701396547+717638459+739352937
1558+755359038+759001659+760102753+765036035+773279418+782846217+792442363
1548+801614316+811038829+821689010+833276507+844078758+850312262+847205218
1538+838137979+831379495+828842489+827829361+826294736+825607312+827860190
1528+832690240+837944854+842478177+847167794+852044680+854934885+855252733
1518+855237615+855892877+856371761+856488555+857450252+860891300+867769616
1508+876074286+878563715+871438249+862920372+859494368+861126741+865563575
1498+869769119+870915345+869165659+867872256+869725988+874530324+879109075
1488+879659844+876076213+871616405+868825208+867810302+867720779+868836324
1478+872205858+877720517+883738145+887908858+887944430+884087489+880103898
1468+879045861+880479476+881412197+880000295+878704001+881150152+887850165
1458+894698467+894924422+888664313+882861005+880687349+881363138+883010258
1448+883578961+881935621+878792857+875649129+873660520+874003195+877610615
1438+883340705+886841558+884890077+880741966+879007992+880046687+881176460
1428+880776352+879950124+879971838+880904410+882816985+885720603+887705877
1418+886074912+881816826+878375481+877021754+876684045+876071396+875193959
1408+874849432+874622217+872634572+868699447+865888464+866742779+870143438
1398+873078552+874151336+873611090+871604696+868839956+866812588+865806575
1388+864122771+860327191+856011597+854411536+856803662+861686032+866736035
1378+870973742+874852619+878745354+882212413+884825677+886794573+888332088
1368+889394349+890412591+892264026+894953028+897008482+897037903+895622295
1358+894459692+894370170+895089609+896241318+897744521+899423952+900838374
1348+901727074+902345356+903171213+904562662+906850147+910222201+914066914
1338+916985650+918190124+918267271+918102899+918083928+918538579+919937142
1328+922405006+925569780+928817999+931425483+932949213+933765511+934588404
1318+935435382+935907449+936228558+936842838+937396201+937384047+937359814
1308+938162031+939370729+939793588+939182051+938426744+938311432+938711021
1298+938789946+937850111+936146817+934698306+934057273+933567643+932233109
1288+930001279+927600853+925519312+923776667+922248194+920599147+918466324
1278+916015949+913672512+911564516+909821500+908693875+907845786+906466047
1268+904433566+902249460+899847849+896912512+894177860+892844512+892639234
1258+891782696+889267773+886090549+883561249+881398635+878529922+875075905
1248+872176067+870257267+868791785+867520985+866804807+866739073+866793617
1238+866652441+866819332+867826087+869227169+870130469+870557108+871348431
1228+872760036+874131920+875056934+876010331+877489078+879238467+880843790
1218+882549011+884800925+887331484+889373747+890567476+891210065+891910161
1208+893157099+894974667+897158550+899846589+903221384+906725276+909391452
1198+910932747+911965365+913415655+916003647+919814197+924103038+927741287
1188+929917907+930597105+930578356+931133127+933261726+936815492+940363477
1178+942567592+943566491+944296823+945064580+946049992+948125900+951564428
1168+955130792+957527661+958651432+959112457+959719325+961146419+963010750
1158+963968667+963644668+963572857+965304979+968424547+971363811+973635734
1148+976130277+979513002+983474732+987313442+990427897+992456376+993317286
1138+993148988+992223900+990996823+990046242+990060026+991917390+995783817
1128+1000100671+1003062686+1004796364+1006162319+1006565539+1005173943
1120+1003284342+1003376458+1006425328+1011210098+1015698215+1018714774
1111+1019870559+1018813782+1015898751+1012920729+1011769612+1012434137
1103+1013345811+1013699231+1014514565+1017169255+1021437865+1025378844
1094+1027555613+1028952026+1031323032+1034209753+1035711696+1035744230
1085+1035887628+1036670133+1037668587+1039131031+1041171515+1042673977
1077+1043184431+1044056754+1046051366+1047819430+1047635198+1045560476
1068+1043209628+1042366281+1044234465+1048408513+1052252707+1053146670
1060+1052101231+1052610129+1055472099+1057664208+1056854951+1054529003
1051+1053716263+1055418148+1057823021+1058716465+1057880825+1056531841
1043+1055506114+1054534042+1053741311+1054987656+1060038844+1067505206
1034+1073037799+1073741823+1070668869+1065835854+1060296591+1055639731
1025+1053483268+1053321342+1053050107+1051618789+1050256836+1050666207
1017+1052214468+1052420117+1049861026+1045568183+1042304253+1042392589
1008+1045721734+1049894523+1052617911+1053651196+1054098288+1054827139
1000+1055510042+1054520184+1050831690+1045781688+1041730510+1039499420
991+1037976801+1035811001+1032523430+1028564072+1025238855+1023756402
983+1023582249+1022559190+1019649718+1016600923+1015380960+1014880732
974+1012218039+1006900581+1001284839+997269752+994620991+992146605+989175030
964+986069913+983582040+981425725+978284740+973572595+967936992+962124420
954+956729001+952559103+949980670+948328140+946812932+945540501+945078142
944+945570588+946607505+947584023+948172514+948431965+948418107+948192449
934+948315542+949172598+949518978+947455743+943453032+940421948+940348211
924+942637846+945672116+948128271+948750851+946709551+942565368+937979133
914+934582105+933039032+932987231+933814496+935255967+937231681+939357760
904+940978053+941364451+939775951+936260054+932419268+930065382+929206472
894+928624356+928205869+928947317+930663432+931739033+931303205+929917982
884+928434862+927773524+928967475+931766304+933915727+933247497+930084131
874+926594394+924165511+922202692+919686583+917270372+916842548+919123216
864+922726041+925841978+927863491+928695796+927965685+926175834+925237555
854+926209404+927465161+926815384+924663071+923264805+923626599+924697902
844+924992925+924131718+922850839+921869873+921135613+919983830+918050283
834+916225007+916145045+918003595+919879856+920637979+921922638+925171969
824+928708838+930097841+929675797+929582199+930581987+931606676+931693012
814+931299870+931902959+933985389+935888625+936174311+935866615+936497866
804+937549974+937374339+935451167+932751271+930876270+931131793+933245422
794+935175338+935450204+935027048+935551138+937050932+938303873+938412737
784+937581544+936615252+935791025+934673776+933511543+933627448+935090558
774+936026466+935545729+934943528+935094708+934753071+932605946+929698104
764+928122201+928091669+928018895+927569357+928570405+931970546+936044104
754+938665149+939420159+938561916+936357728+934587663+935864318+940006574
744+942714103+940394084+934928188+930764515+930063085+932306180+936149781
734+940200959+943103391+944180252+943830611+943068560+943008681+943873223
724+944374785+943560340+942744487+943977196+947097135+949408484+948401655
714+944216194+939182866+935432121+933630264+933548375+934860676+937028626
704+938448087+936895899+931950462+925895780+921475990+919577571+919238009
694+918656336+916040701+911239923+905987903+901468586+897619130+894738782
684+893242842+892457670+892161831+894052692+898604690+902189211+901370245
674+897695313+894014156+888899902+879285303+868665728+866528014+872858451
664+879028223+880006891+876257777+871589429+869383981+869375014+868016544
654+862848191+855646839+850127882+848449488+850270095+853206320+854272732
644+852689937+850853842+851113664+852137612+850966782+848339068+848198930
634+851882903+855250658+852867573+844786932+837006205+833430059+831897064
624+829282986+826311633+824977766+825102490+826280285+829066368+832367278
614+833487937+831906180+829512053+827145272+824342144+821716875+821344557
604+823840508+826230040+825095746+821046792
##END=
