##TITLE=<SNM>
##JCAMP-DX=4.24
##DATA TYPE=INFRARED SPECTRUM
##DATE=2/5/2025
##SAMPLING PROCEDURE=Instrument type and / or accessory
##ORIGIN=Admin
##XUNITS=1/CM
##YUNITS=ABSORBANCE
##RESOLUTION=4
##FIRSTX=4497.3318
##LASTX=599.83466
##DELTAX=-1.4281778
##MAXY=1.8350818
##MINY=0.33169663
##XFACTOR=1
##YFACTOR=1.7090531e-09
##NPOINTS=2730
##FIRSTY=0.34877473
##XYDATA=(X++(Y..Y))
4497+204074833+203805557+204101025+204732888+205543402+206053357+205667508
4487+204344755+202791926+201992607+202513948+204072741+205722786+206625390
4477+206493193+205428905+203911562+202861277+202869002+203319998+203239226
4467+202900773+203441820+205014353+206456207+206787475+206166877+205337931
4457+204794391+204556870+204347423+203784876+202764915+201923221+202198496
4447+203550109+204730447+204693234+203528207+201857916+200184714+198994524
4437+198753514+199471363+200530002+201153215+201150739+201135150+201760927
4427+202870536+203802122+204308414+204551446+204401428+203512199+202073327
4417+200891908+200631508+201236028+202109894+202702487+202889735+202878906
4407+202816967+202582357+201991944+201096734+200198141+199689093+200008399
4397+201405542+203296248+204163662+203009063+200844948+199690209+200246531
4387+201528671+202495080+202944420+202898960+202238045+200980667+199317474
4377+197684064+196931810+197566794+198701532+198764326+197366555+195584138
4367+194606150+194882681+196127940+197462620+197954945+197508098+196887640
4357+196693940+196770283+196835832+197129591+197911856+198753933+198911432
4347+198179336+197027265+196200447+196270582+197130062+197990797+198265148
4337+198093646+197763686+197291833+196783483+196466915+196194553+195543630
4327+194590090+194082106+194534951+195491142+196127783+196278987+196262839
4317+196163775+196026643+196143756+196481354+196513614+196074911+195662888
4307+195645607+195798276+195751507+195532156+195643776+196612504+198282045
4297+199629299+199636779+198464934+197381063+197287509+197729804+197721730
4287+197081898+196397478+196081625+196067308+196135316+196125062+195997574
4277+195868917+195834721+195810605+195736005+195794562+196186671+196760640
4267+197119651+197093686+196965605+197089972+197344112+197285102+196851875
4257+196534487+196751241+197336893+197716202+197433325+196598816+195791789
4247+195372320+195202544+195295541+196105026+197699218+199292694+200062317
4237+199900162+199164665+198305377+197835652+198078806+198837914+199594527
4227+199949947+199739262+198958288+197823655+196836704+196526762+196947975
4217+197545398+197791412+197827387+198111729+198620637+198884333+198654938
4207+198115635+197660697+197730467+198424478+199121803+199054057+198389515
4197+198108852+198660431+199399066+199481809+198779444+197773817+196934635
4187+196401715+196114879+195955147+195718864+195291146+194981833+195362816
4177+196539893+197848905+198562918+198734925+199030167+199789623+200607879
4167+200944222+200794674+200502118+200226425+199975092+199899865+200093147
4157+200161748+199493823+198141810+197067913+197201261+198434209+199762298
4147+200251152+199706845+198606983+197619997+197098220+196899271+196779507
4137+196875416+197475385+198385138+199000051+199078696+199053028+199395142
4127+199965484+200235876+199945291+199281988+198593312+198172622+198217508
4117+198730618+199437621+199928446+199972982+199701056+199398386+199170315
4107+198961304+198789628+198712849+198675741+198592248+198442771+198241711
4097+198096122+198206434+198572404+198881107+198875893+198652549+198534721
4087+198754316+199164683+199296217+198864088+198057741+197233190+196659151
4077+196632820+197354383+198485319+199196490+198879137+197758402+196721666
4067+196483952+196987350+197729577+198423850+198949307+198992274+198385470
4057+197605210+197297588+197488132+197762064+197970534+198259638+198663221
4047+199161701+199843872+200564825+200776661+200155087+199150767+198537720
4037+198537685+198688959+198625694+198670510+199282650+200113462+200221665
4027+199277593+198017965+197389677+197665040+198457087+199229133+199687838
4017+199904678+200110637+200330024+200330564+199962171+199365254+198805148
4007+198474229+198478623+198861403+199602217+200597783+201583914+202169881
3997+202133278+201626690+200998558+200563291+200587111+201179895+202059080
3987+202690594+202776354+202394150+201719791+200959916+200507734+200727347
3977+201511652+202385448+203012934+203312622+203253874+202876221+202380845
3967+202056133+202151344+202664385+203257169+203690432+204136755+204651627
3957+204818020+204424847+203978907+204151368+205114691+206416815+207217425
3947+207065035+206495687+206232514+206161193+205799025+205269854+205032000
3937+205200294+205730842+206703756+207974195+208903287+208951643+208438916
3927+208141913+208279045+208387840+208241693+208332527+209031212+209824480
3917+209821917+208834198+207597728+206948584+207104706+207790434+208938930
3907+210996081+214212783+217761103+220152922+220738696+219818968+217631748
3897+214642105+212173210+211559797+212824673+214431594+214980540+215144073
3887+216199747+217609567+217933407+217612392+217937749+218182124+216984261
3878+215217521+214597516+215469865+217485932+220373721+222880456+223144152
3868+221661336+220673810+220758872+220739847+219961698+218993440+218666148
3858+219920806+223788849+229773838+233400401+230640921+224963502+220739690
3848+219047463+219451656+221227219+223719324+226510437+229248660+231093313
3838+230970672+229221230+227555596+226767977+226161766+225160568+224275559
3828+224045030+224498049+226124414+229511345+233204224+234334637+233310177
3818+232845980+232681819+230784871+227895879+226464976+227588518+230826791
3808+234571671+237229261+239438750+242638084+245619741+245883071+244372546
3798+243556260+243204903+242078362+240750587+240680922+242321795+245304934
3788+249334104+254159454+259184747+264032243+269269720+275603781+282686748
3778+289786055+297269954+306218255+317259315+330075136+342952478+353365145
3768+360244193+364179198+365780731+366067096+366575760+367741589+368772414
3758+369555481+371479825+376189038+384441636+395139971+404637601+410306702
3748+414766204+421828176+431319982+439140468+444117667+450004742+459364229
3738+471554412+484172418+494977717+503543499+511231318+519431951+528454363
3728+537851655+546831169+554721163+561481529+566844873+569828012+570393245
3718+570174922+571022544+573899347+577966810+579795210+576517057+570121597
3708+564282127+560487254+558744474+558503621+558945812+560016151+562446926
3698+566393371+571138123+575897487+580462385+585035827+589034340+590317631
3688+587833496+583625169+579846303+577162259+576051987+577635664+582716096
3678+589969013+595064581+594684295+591787578+590061713+588478350+584127172
3668+577547219+571599809+567644157+565577974+565078866+565986335+567592785
3658+568361518+567553864+566817600+568309135+572227853+576401408+577077581
3648+572944342+567536565+564539406+564493335+565621464+565704189+564014909
3638+561807862+560435254+559825310+559978625+562449821+567951553+572971231
3628+572947167+569972851+568755580+570373540+573226731+575010386+574217902
3618+572194965+572212368+575387952+579830784+583766660+587689249+592132151
3608+595623222+597020836+597680407+599584558+602741797+605183175+605561508
3598+604814398+604799192+606183413+607980286+609180712+610177951+611963943
3588+614368910+615817164+615321578+613683251+612220489+611512789+611580518
3578+612456529+613495550+613016635+610569049+608693776+610393833+615171473
3568+618406485+616654602+612449972+609617148+608729419+608565293+608330021
3558+608122789+608074032+608040621+608016696+608539903+610338729+612993965
3548+614460215+612878247+609061995+605882923+605276293+606609666+607407904
3538+605785271+602609896+600512046+600702747+602273693+603997885+604874733
3528+603888723+601145321+598223215+596239826+594695525+592562100+589660431
3518+586909077+585465636+585461800+585846620+585649432+584819143+583827519
3508+583166796+583022096+582834708+581985552+580933383+580334879+579568273
3498+577801150+575812635+575180510+576116926+577236824+577387941+577011910
3488+577272781+578306431+578903400+577787723+575209422+572984902+572450535
3478+572713324+571681418+568655068+565010788+562593823+562300343+563627787
3468+565095223+565663943+565521022+565089887+564287150+562966751+560953613
3458+558194935+555848838+555801267+558240553+561018796+561969058+560695846
3448+557797281+553956476+550216671+547718271+546797584+546730866+546541456
3438+545935837+545213384+544606266+544124142+543643100+542782713+541323160
3428+539849796+539303954+539854120+540657136+540725737+539671999+537619451
3418+535038117+532854506+531908221+531837109+531318889+530053454+529509740
3408+530917677+533395047+534812435+534128730+532283066+530787555+529901675
3398+528628219+526556769+524779252+524221030+524122575+523249424+521732186
3388+520770938+521153735+522535167+523712505+523560063+522022457+520032268
3378+518476179+517722407+517885521+518847188+520178328+521449273+522382969
3368+522678925+522147801+521001607+519633568+518279304+517087353+516320120
3358+516377491+517428927+518827169+519308351+518292313+516676690+515832451
3348+516153344+516977285+517470046+517153303+515977674+514381965+513106487
3338+512590987+512619341+512739105+512768400+512756856+512770319+512743987
3328+512449914+511870766+511601839+512268909+513431843+513910828+513242084
3318+511872789+510181381+508336729+506776733+505850291+505315505+504763037
3308+504157872+503680422+503380629+503174269+503047286+503115399+503318864
3298+503174478+502289783+501026127+500108300+499900893+500647864+502744669
3288+505870624+508455167+509058798+507994353+506719920+506169893+506424975
3278+507230816+508003351+508001781+507317483+506887917+507036279+507088697
3268+506624046+506076531+505937725+506166197+506372906+506142516+505395964
3258+504458990+503591244+502752655+501989293+501590558+501638791+501805288
3248+501626026+500666383+498699595+496138663+494005588+493101118+493352643
3238+494117539+494849688+495302201+495432428+495365362+495117778+494345139
3228+492673261+490274990+487892622+486271210+485788459+486422397+487698259
3218+488826527+489311406+489362778+489309906+488853765+487568068+485782181
3208+484098237+482515885+480844566+479398091+478625940+478484867+478436913
3198+477795651+476292398+474541876+473522630+473485138+473782001+473640650
3188+472707547+471129067+469517420+468612078+468595233+468786736+468257844
3178+466743222+464780724+463129179+462298123+462221885+462028672+460719294
3168+458429243+456306804+455005587+454110673+453088254+452014985+451238579
3158+450874301+450799039+450814594+450607048+449761065+448201034+446555732
3148+445657679+445638951+445799519+445371174+444231014+442824925+441559142
3138+440480607+439524416+438779608+438349624+438120803+437829765+437334318
3128+436769574+436378512+436185578+435966837+435541457+434909088+434137705
3118+433299429+432453969+431612485+430800576+430036621+429148822+427937375
3108+426646028+425840222+425659146+425633303+425370933+424989182+424746097
3098+424559407+424041989+422972731+421720549+421031054+421225557+421782245
3088+421895173+421336218+420552314+419997614+419640694+419159966+418456730
3078+417825163+417510583+417252816+416577550+415493958+414490511+413768442
3068+412960090+411833740+410827572+410468281+410581140+410499670+409868278
3058+408870899+407827274+406967620+406510119+406506945+406620745+406439426
3048+405965917+405474028+404994241+404326369+403447917+402500584+401485733
3038+400340864+399265712+398644783+398531680+398404244+397686918+396449210
3028+395282718+394581853+394238431+393906273+393327544+392526516+391794681
3018+391333030+390935655+390249717+389282192+388388534+387809595+387451315
3008+387118460+386765273+386429663+386055620+385529762+384854461+384162350
2998+383541212+382955926+382411409+382063279+381998933+382002909+381718706
2988+380962353+379772181+378363163+377131558+376398502+376032446+375608007
2978+374966222+374287329+373675398+373078114+372547234+372167890+371771701
2968+371121650+370365716+369905425+369785034+369614142+369185972+368740573
2958+368437990+368013098+367222114+366255286+365418650+364716948+364005725
2948+363306674+362760763+362393102+362058189+361588970+360949138+360257132
2938+359696677+359374459+359201754+358949672+358478709+357848398+357171458
2928+356523604+356018393+355686864+355239128+354293504+352950366+351833887
2918+351423433+351522132+351508181+351008550+350174599+349373955+348816639
2908+348447618+348078527+347687534+347517654+347642754+347654228+347207817
2898+346619497+346397686+346447698+346230945+345528372+344659859+344017446
2888+343633882+343265349+342758184+342136314+341409641+340589675+339859271
2878+339439993+339305094+339206325+338940502+338499462+338036172+337739832
2868+337691319+337804596+337887880+337769929+337406767+336847255+336120477
2858+335290432+334558179+334077660+333740830+333370762+332969655+332571896
2848+332107699+331590665+331179409+330951426+330804738+330553004+330041829
2838+329331060+328755713+328574882+328616454+328508932+328174019+327831609
2828+327576387+327204681+326506746+325554356+324602351+323839268+323333394
2818+323075731+322954677+322786366+322438131+321883780+321177440+320433783
2808+319792242+319355840+319132705+318984308+318680435+318104182+317363454
2798+316690804+316309541+316283977+316354566+316089126+315350561+314448149
2788+313752027+313331843+313018553+312689884+312393997+312162282+311824440
2778+311213939+310448484+309758291+309174993+308609865+308016139+307323261
2768+306506434+305781784+305370982+305108262+304669803+304072589+303547325
2758+303078314+302460873+301686908+300963967+300440272+300105813+299878980
2748+299660658+299341300+298852166+298251186+297695788+297241879+296732239
2738+296008496+295170011+294498268+294166006+294077526+293976316+293706900
2728+293328707+292909394+292368453+291694861+291083261+290610659+290061818
2718+289343533+288762554+288598759+288669958+288580485+288203616+287720813
2708+287338696+287107678+286917744+286602153+286136247+285718103+285507383
2698+285336440+284904014+284221163+283597252+283206852+282958257+282764713
2688+282655674+282606708+282469629+282106973+281523570+280872804+280324190
2678+279890875+279434019+278866311+278281129+277855539+277661246+277578800
2668+277436750+277235464+277103215+277045810+276943066+276763943+276555682
2658+276285395+275914542+275537500+275274449+275128633+275036212+274929475
2648+274711588+274301919+273749364+273220472+272856002+272680123+272616422
2638+272520235+272249930+271829798+271491816+271419868+271509446+271513213
2628+271334335+271047987+270723537+270346442+269894748+269445652+269159147
2618+269084826+269048050+268868561+268625093+268510805+268487421+268311333
2608+267897740+267443796+267153978+267012923+266892462+266750849+266633561
2598+266543372+266401986+266158762+265921187+265922077+266271079+266739723
2588+266906761+266570976+265945060+265422358+265229983+265298061+265391267
2578+265372329+265340889+265458786+265685235+265816909+265764525+265646244
2568+265598202+265602893+265552655+265435838+265378432+265463495+265596616
2558+265633008+265561914+265491308+265508449+265580520+265550423+265267841
2548+264777923+264327990+264142782+264212847+264290062+264084330+263522445
2538+262829602+262310162+262060276+261955544+261883002+261857107+261872888
2528+261791192+261490161+261041780+260626548+260343949+260191717+260140833
2518+260142611+260135584+260111171+260111589+260127301+260089269+260007084
2508+259996935+260095913+260160259+260052335+259837012+259681780+259618480
2498+259524594+259337573+259165931+259119128+259127271+259042227+258843818
2488+258646665+258557453+258564532+258508068+258200307+257668625+257197400
2478+257024468+257072405+257057339+256801768+256371261+255937824+255617908
2468+255485781+255594803+255847705+255972125+255776663+255343523+254911446
2458+254682713+254718426+254866474+254843700+254525214+254093050+253812265
2448+253739095+253718100+253611659+253461484+253414349+253522429+253647668
2438+253574708+253237528+252814694+252525172+252359024+252157965+251922535
2428+251806957+251821326+251813234+251763188+251826522+252052047+252284267
2418+252365598+252267318+252047862+251839374+251812729+252007196+252261616
2408+252415924+252477480+252516087+252535931+252534746+252586310+252788241
2398+253160802+253634171+254185105+255046032+256749926+259935152+265165899
2388+272951126+283798712+298137316+316157692+337707397+362312748+389287598
2378+417826419+447058885+476036689+503648476+528739333+550480820+568456625
2368+582508829+592877378+600086630+604090654+604057871+599532453+590834840
2358+578221508+561841726+541779336+518160273+493659062+474172157+464684083
2348+466706916+478575545+495333973+510169698+519394215+523864599+525562180
2338+526234795+527478328+529769425+531893329+532188797+530441448+527878074
2328+525170210+521526140+516004633+508780907+500780218+492593361+484118918
2318+475096855+465659421+456223730+447002352+437802108+428199920+417781534
2308+406389588+394394814+382650483+371954380+362503693+353908615+345676071
2298+337602246+329767984+322328307+315354083+308832268+302769384+297213839
2288+292164081+287573898+283466345+279892340+276774075+273961670+271447420
2278+269364391+267772937+266551202+265480758+264415197+263392794+262527194
2268+261760797+260885449+259863831+258917981+258218268+257702960+257265756
2258+256888365+256525447+256086849+255596826+255163808+254754296+254210616
2248+253537199+252967136+252680038+252592483+252475439+252199083+251834299
2238+251540802+251392196+251347956+251363825+251420602+251437395+251280559
2228+250920326+250513395+250272560+250263161+250361319+250417103+250402001
2218+250358180+250280442+250127686+249916216+249752178+249777480+250043844
2208+250411331+250658984+250742076+250831201+251060544+251376851+251677550
2198+251938770+252154599+252286534+252326363+252332204+252394161+252590617
2188+252926576+253294428+253555683+253663624+253680608+253712206+253829075
2178+253993044+254075019+253984255+253751720+253482706+253271131+253141986
2168+253047351+252934632+252800168+252652696+252480514+252283082+252087324
2158+251922588+251801080+251715164+251652858+251623196+251647086+251727335
2148+251857998+252083016+252535129+253375497+254672965+256387531+258463462
2138+260837320+263407809+266162877+269261629+272833821+276826755+281164785
2128+285884932+291031575+296584295+302539832+308915831+315593227+322233794
2118+328464919+334118779+339141491+343321150+346306626+347848068+347873736
2108+346418996+343557434+339386424+334157212+328369324+322521554+316788038
2098+311055637+305198660+299283022+293582603+288387517+283790778+279711544
2088+276060690+272819539+270030467+267742403+265931441+264502770+263352949
2078+262392713+261596096+261020785+260640778+260245687+259694474+259154335
2068+258901572+258956345+259033769+258859721+258473873+258136937+258001305
2058+258015831+258071475+258077474+257986745+257859204+257813290+257895178
2048+258077892+258339618+258677391+259054154+259341025+259392642+259263043
2038+259208096+259376651+259660819+259887547+259994930+260037775+260137363
2028+260373298+260692499+260998342+261290846+261644556+262093060+262571835
2018+262954126+263154383+263191108+263142735+263091642+263096367+263153163
2008+263221711+263296851+263370178+263386360+263372444+263468981+263664146
1998+263721429+263605432+263707200+264322654+265119654+265467767+265194794
1988+264683723+264344259+264285999+264409320+264596499+264801778+265038916
1978+265320905+265604550+265783672+265777133+265677859+265760061+266214842
1968+266869880+267302898+267317563+267165801+267192516+267456892+267826977
1958+268237710+268674355+269065313+269364548+269632621+269941865+270283753
1948+270647525+271159921+271991448+272983037+273562115+273375879+272791743
1938+272391264+272328383+272437823+272614208+272845644+273080428+273274460
1928+273563354+274241828+275374455+276519900+277230634+277708939+278342249
1918+278828976+278580521+277829627+277448416+277882167+278813578+279630144
1908+280010953+280114168+280267151+280582829+280954623+281316599+281775966
1898+282478139+283339171+284024638+284421629+284897109+285664325+286232400
1888+286054986+285382249+284863209+284786779+285057311+285453483+285743702
1878+285808641+285728601+285750712+286268758+287661140+289806649+291719484
1868+292151735+290992026+289382332+288339109+288035602+288159097+288421416
1858+288700614+288972541+289277635+289709991+290373922+291295411+292445162
1848+293954658+295973794+297896394+298331191+296971522+295327824+294687399
1838+294994795+295552250+296081700+297070988+299013153+301351542+302705666
1828+302668070+302199792+301853824+301286499+300451885+299928085+300056568
1818+300571998+301069746+301558461+302390040+303633363+304769269+305264296
1808+305246161+305315843+306014476+307582772+309773950+311769929+312746766
1798+312814948+313069158+314563099+317205257+319362048+319381056+317916759
1788+316918892+317245783+318438362+319833011+321225394+322494805+323435057
1778+324315951+325980434+329052646+333037558+336085706+336666040+335422542
1768+333788993+332619537+332651343+334235439+336423862+337753433+338285290
1758+339063718+340211028+341470325+343450958+346776543+350628404+353198543
1748+353885980+353755649+353951407+354934871+356600262+358346773+359561219
1738+360806077+363586727+368080792+371488823+371117046+368638526+366495720
1728+365287761+365083319+365866944+367272265+369286519+372742365+378149130
1718+383948457+386731234+385342200+382282613+379980948+379417110+380869340
1708+384092424+387947738+391079064+393809807+397729850+402812653+406542763
1698+407637899+407136384+405242592+402628858+401466621+402773732+405810998
1688+409980892+415786845+422590736+426351083+424812431+421747718+420647350
1678+422267646+425865786+429744431+432713480+435542154+438949593+441425846
1668+441456467+440801220+441969246+445064511+448274901+450317264+452022065
1658+455132466+461056823+470473401+481158518+486414027+485862884+486402029
1648+490144659+494041963+494762149+493760376+494273957+497566480+503710485
1638+512374373+521834930+528211173+530006930+531124351+535082479+542229094
1628+551105446+560544589+570752396+581874716+592706137+602469277+612472711
1618+624008938+635483783+643706806+648910838+653501404+658322011+662971238
1608+667052965+670469402+673368350+676035165+678668779+681347382+684066720
1598+686793522+689721696+693210953+697281521+701590848+705869833+709944097
1588+713595178+716773761+719755017+722873265+726102278+729221433+732656562
1578+737371705+743042654+747447402+750291595+754176902+760617910+768597011
1568+776207475+783266134+790925075+799981212+811212345+826144571+844233338
1558+857233652+860021486+859518228+860446902+862270210+863040966+861971812
1548+860126044+859336525+860455063+862998278+865685879+865471811+858954983
1538+849631209+843810085+842260691+841829068+839257813+834868271+831492360
1528+830508513+831130280+832155629+833227154+833957872+833748338+833431108
1518+834143760+834879222+833888958+831520191+829964381+831166550+835582807
1508+841061311+842163806+836446890+829617715+826045872+825770702+827410633
1498+828946146+828435564+826214880+824750235+825411690+827229279+828122728
1488+827054551+824833379+822723740+821341192+820577202+820253555+820824891
1478+822896306+826317903+830159546+832765886+832017869+828087363+824418984
1468+823429836+824428750+825060351+824005078+822701210+823405772+826710466
1458+830542482+830947251+827276710+823000584+820082105+818450126+817542726
1448+816794919+815982242+815348130+815119135+815287027+815938438+817253466
1438+818904837+819737044+819013580+817715152+816946698+816460878+815477868
1428+814171350+813412103+813317171+813393130+813838216+815197048+816488500
1418+815546085+812414026+809369645+807688910+807067980+806770908+806401433
1408+805898803+805068967+803542243+801624840+800515300+801031532+802881555
1398+805239789+807256240+808078612+807517809+806624848+806397667+806485554
1388+805756649+803863240+802227355+802924383+806658608+812166408+817433216
1378+821513618+825017384+828790111+832432892+834716910+835566067+836350145
1368+838163060+840833712+843380694+844724180+844337338+842849883+841488052
1358+840984933+841522509+842857626+844208506+844918160+845118696+845076077
1348+844648290+844036778+844062446+845099723+846590665+848015761+849529442
1338+851197204+852376077+852607373+852629345+853705125+856020880+858482765
1328+860419071+862525571+865396828+868264388+870315575+872301475+875453692
1318+879452554+882755575+884795462+886755344+890051458+894825680+900055102
1308+904599283+908039295+910982606+914566376+919047153+922892144+924207660
1298+923024183+921134123+920102426+920302264+921276904+922371378+923055641
1288+922704791+920559090+916647836+912401703+909381108+907726389+906616780
1278+905711473+905218259+904846831+903814786+902159440+901234602+902271182
1268+904921256+907820693+910159467+912164827+914354610+916794663+919128414
1258+921040097+922431434+923288263+923691288+924033978+924769579+925725874
1248+926170541+925734872+924883484+924164832+923323976+921545657+918614135
1238+915592632+913995947+914425687+916291893+918465773+919913887+920185640
1228+919483938+918009318+915719022+913014053+910801042+909684807+909844956
1218+911285468+913307359+914506948+914397926+914211898+915345433+917904063
1208+920904291+923428115+925505878+927717354+930221229+932720501+934930512
1198+936497832+937262450+937984101+939593760+941731857+943390273+944587839
1188+946260553+949031717+952480727+955025826+955163237+953437580+952122762
1178+952890100+955570307+958760051+961266367+963183701+965232795+967298839
1168+968772273+969985673+971716282+973542589+974284398+973964796+973767748
1158+974365171+975747021+978187492+981891095+985792445+988187508+988864099
1148+989354732+990507657+991306244+990455413+988470072+987593224+989378029
1138+993125298+996661009+998164576+997570710+996429015+996359542+997617583
1128+999220058+1000374657+1001450437+1003165351+1005416028+1007728854
1120+1010026264+1012298564+1013832612+1013648049+1012117837+1010998811
1111+1011719764+1014787512+1020391709+1027458947+1033006227+1035404777
1103+1036380114+1037084536+1035940261+1032545726+1029535733+1029198832
1094+1031341394+1034632696+1037800328+1040028893+1041896494+1044470400
1085+1046866091+1047316477+1046591129+1046981739+1048401185+1048545431
1077+1046389408+1043260627+1040767424+1039627054+1040174605+1041967083
1068+1043476160+1043353606+1042398915+1043758584+1049662574+1057615240
1060+1061598896+1059614392+1056565756+1056782614+1058915759+1059213180
1051+1056811282+1054319822+1054211149+1055857149+1056172845+1053587081
1043+1050637353+1050554279+1053155040+1056054895+1058343726+1061212263
1034+1065706920+1070872728+1073741823+1072276829+1067875011+1063432877
1025+1060064918+1057657788+1057056529+1059109041+1062709133+1065446747
1017+1065748911+1063577960+1059988540+1056724441+1055337360+1056003000
1008+1057421818+1058721989+1060557086+1063167890+1064833211+1063407208
1000+1058825431+1053505263+1050076411+1048645595+1047162465+1044955872
991+1044308018+1047151584+1051864006+1054808503+1054113427+1050837471
983+1047366070+1045593472+1045472522+1044848454+1041832811+1037383771
974+1034414652+1034216558+1035097381+1034680964+1032028657+1027263433
965+1021406596+1016563250+1014378000+1014674235+1016263806+1017973838
957+1017953610+1014268769+1007907488+1002684762+1000890889+1001160410
948+1001000190+999484975+997005931+993955831+990308098+986041807+981967125
938+979624864+979622632+980697087+981248404+980915828+979571783+976696550
928+973047841+970953687+971669129+973735592+974994331+975322303+976024074
918+977280720+977735850+976290037+973398761+970387373+968190684+967413790
908+968728679+971906146+974735273+974570240+971424371+968134743+967125367
898+968151623+969299108+969360489+968965346+969611804+971714329+973764818
888+973757355+971480033+968598313+966500532+964937815+962676815+959031454
878+954665698+951026684+949263362+949731256+951775956+953725864+954275368
868+954182040+955072001+956598935+956529602+953846744+950344792+948648013
858+949474291+951080602+951399577+950309846+948990075+948102346+947944568
848+949008908+951014687+952467056+952326437+951221431+950254743+949605076
838+949075451+949117651+950080921+950956933+950499431+949315467+948984495
828+949652925+950249790+950090129+948972079+947404062+947261978+949857507
818+953767855+956665478+958159419+958934778+958895090+958354584+958971538
808+961663324+965089735+966813717+965330726+961815243+959797885+961526680
798+964816169+965441353+962869121+960605610+961282480+964348344+967791286
788+969927500+969720687+967245270+964013955+961719404+960893824+961407963
778+963397001+966402879+968845861+969976536+970869775+972079130+971760225
768+967999425+962388602+959341710+961748560+967877918+973065209+974681773
758+974008112+973013314+971518884+969019334+966979935+967233412+969288226
748+970273538+967656944+962245122+957760858+957431351+961240699+966132382
738+968924541+969031749+968154274+967797494+968213214+969426335+971500121
728+972660022+970186070+964868971+960769666+960256712+962097249+963669102
718+963603745+962132125+960152363+958808109+959396883+963038129+969354351
708+975182520+976114472+971124160+964451228+961071899+961038628+959976729
698+955315644+949580105+946128583+945128554+945248806+945347783+943646959
688+938909077+932969584+929229779+928488598+928651119+928261487+928100360
678+928990880+930147641+930841810+931661741+932762143+932196875+926827253
668+916700219+908737230+907490559+909909546+912209189+912978201+912387055
658+910310200+906864468+904513767+906569628+912704914+918389255+920377666
648+920172387+919378473+916101680+909201986+901199308+895580603+893352456
638+893062638+893523278+894489617+895971421+897050340+894847234+887352209
628+877381628+870296603+868665740+870926949+874161961+877057910+879585780
618+880924942+879788688+876189432+871322301+866667773+864408866+865265486
608+866202669+864965135+864636047+868783062+875101167+878668127+879393196
##END=
