##TITLE=<SNM>
##JCAMP-DX=4.24
##DATA TYPE=INFRARED SPECTRUM
##DATE=2/5/2025
##SAMPLING PROCEDURE=Instrument type and / or accessory
##ORIGIN=Admin
##XUNITS=1/CM
##YUNITS=ABSORBANCE
##RESOLUTION=4
##FIRSTX=4497.3318
##LASTX=599.83466
##DELTAX=-1.4281778
##MAXY=1.7170064
##MINY=0.27597249
##XFACTOR=1
##YFACTOR=1.5990869e-09
##NPOINTS=2730
##FIRSTY=0.29823026
##XYDATA=(X++(Y..Y))
4497+186500350+186154577+185815046+185733099+186126845+186833805+187512624
4487+188066444+188534272+188747312+188457487+187789925+187253475+187156525
4477+187261247+187198999+187048076+187278449+188126735+189169126+189590659
4467+189079649+188458773+188946394+190665069+192424000+193037831+192244692
4457+190412145+188162462+186289341+185313597+185097723+185223971+185450710
4447+185610150+185558283+185398712+185349287+185466831+185821271+186542918
4437+187302286+187258377+186048345+184454986+183611173+183764295+184171814
4427+184076914+183427039+182634329+182035762+181709426+181537462+181401038
4417+181417029+181721689+182003091+181788242+181218991+180898508+180917387
4407+180744249+180174066+179690303+179679605+179838840+179631726+179057331
4397+178688895+178987293+179716544+180152763+179929640+179507175+179595030
4387+180226175+180660773+180242669+179119691+177995427+177330810+176960417
4377+176565366+176214877+176099215+176092469+176071017+176284971+176886781
4367+177448559+177448857+177006022+176593713+176153505+175204822+173872866
4357+173017964+173194849+174095393+175088191+175752640+175952765+175851193
4347+175750665+175756871+175791592+175865357+176069992+176385686+176649159
4337+176649811+176248834+175542991+174902957+174707193+175059415+175817423
4327+176737144+177427742+177420902+176651656+175722672+175388956+175865767
4317+176686414+177033567+176375361+175087016+174108122+173839990+173896759
4307+173883284+173757465+173599106+173642568+174203171+175157707+175903451
4297+176020418+175631946+175121644+174853568+175108505+175927512+176917775
4287+177370321+176768026+175266529+173630864+172643433+172581297+173234061
4277+174236793+175222937+175858965+176051355+176024835+176008341+176075453
4267+176355494+176944146+177520927+177589325+177208737+176953279+177119130
4257+177454560+177688512+177830675+177846032+177602893+177245154+177050788
4247+176897106+176433509+175734916+175205008+175009393+175162124+175821635
4237+176911047+177832539+178078921+177838783+177694718+177957948+178340381
4227+178223825+177510136+176995268+177355579+178149202+178473804+178169479
4217+177710410+177472023+177635787+178226173+178867158+178948565+178202168
4207+176977507+176062724+176075174+176794751+177474465+177884182+178371263
4197+178903203+178907918+178178145+177250876+176756042+176778071+176989024
4187+177207843+177533880+177911579+177944492+177408881+176680059+176359445
4177+176617475+177132940+177621195+178139119+178805488+179540945+180195778
4167+180654008+180783741+180566563+180210930+179911264+179667864+179453854
4157+179260028+178934830+178418470+178166516+178804500+180237618+181548681
4147+181941141+181382550+180272954+179006601+177897527+177189410+177105898
4137+177823146+179129569+180302568+180724475+180493580+180174662+180096013
4127+180043830+179614916+178780049+177949170+177527469+177623375+178093030
4117+178640941+179019554+179219940+179304981+179217405+178985113+178815906
4107+178764505+178612352+178299286+178179524+178531803+179026450+179101725
4097+178787168+178654696+178942676+179282710+179271061+178856181+178330373
4087+178163273+178519409+178959393+178994897+178706488+178493075+178549396
4077+178842091+179279019+179678207+179758384+179354984+178689100+178300945
4067+178510948+178984628+179079491+178642358+178157067+178048860+178189383
4057+178251631+178232398+178299939+178405760+178417185+178405611+178569431
4047+179051032+179816774+180530463+180774329+180547888+180191435+179779537
4037+179071831+178167671+177772490+178521571+180105872+181322166+181231702
4027+180157274+179287816+179464291+180535178+181696473+182278808+182251560
4017+182019193+181855392+181775979+181768580+181733859+181381879+180618113
4007+179871492+179712443+180312725+181363224+182257263+182423618+181817074
3997+181040597+180733420+180899868+181060818+180985338+180963570+181355303
3987+182166109+183138723+184024152+184642233+184869717+184799306+184841668
3977+185344981+186033473+186179178+185501608+184501802+183734569+183256248
3967+183049321+183416211+184458788+185568086+186025701+185954563+186057049
3957+186507936+186849591+186974683+187477586+188851885+190676978+191729023
3947+191216913+189980733+189593157+190191053+190248902+188857159+187006049
3937+186224522+187273566+190022872+193385562+195443301+194985984+193134185
3927+192239269+193246902+194768396+195008610+194222870+194060746+195038485
3917+195797219+194765526+192040150+189144823+187456806+187550960+189808993
3907+194815977+202423729+210604591+216381697+218299155+216351691+210719190
3897+203160136+197485926+196688706+200274575+203973813+203973459+202434110
3887+203816237+208002425+210977649+211483236+211549212+210499869+206450142
3878+202160014+201897567+205878598+211418062+216624202+219868323+219064617
3868+215910737+214749554+215962828+215532442+211473396+206860288+205328673
3858+208513062+217238760+230430333+239462929+234332530+220887026+209228149
3848+203128957+202697825+206442594+212236454+218645842+225223187+230620003
3838+231861885+228100455+222436327+217691996+214365481+212300510+211706229
3828+212265658+213333992+216096307+222851972+231915243+236229506+233557395
3818+229436641+225830234+219914916+212232913+207033240+206979547+211822469
3808+218522968+223407543+227202949+233003016+238830293+238898486+233838535
3798+228959420+225292219+221273653+217490883+215867574+216955943+220038181
3788+224396054+229306107+233583580+236815586+240409022+245540632+250976791
3778+254912348+257997214+262386565+269666025+280091258+291721584+301423120
3768+308628982+315055460+321138643+327166623+335411111+347364119+360773765
3758+372469469+383413056+397401532+416804045+440039685+460466642+472610680
3748+480126272+488809888+498513586+504184031+505540029+508308680+516533823
3738+530841441+548297422+561777516+564912684+559844067+554320966+553024682
3728+555343434+557904729+557705685+554405504+549451952+544087304+539426504
3718+536792524+537477251+542552763+551692764+561048694+564974112+562682495
3708+557852247+553729313+552633527+555156988+558831402+560873766+561760891
3698+563239111+566118764+571442598+580397159+592246732+602938382+606009215
3688+599248984+589097138+582521601+581455895+584448415+589657332+596820310
3678+605611909+611592401+609344060+602668256+598425001+595849169+590075213
3668+580864689+572227256+566185970+562326900+559976241+559671077+562782875
3658+568971133+574862727+578208755+581822710+589776497+601904657+610983826
3648+608867808+597764801+585451649+576332112+571042832+568849769+569258741
3638+572036934+576182046+579981291+583241813+588450990+597281988+605278193
3628+605538032+600636850+597865329+600153330+607167323+617037003+625925254
3618+630682855+632734128+635141816+638082003+639956074+640734135+640928259
3608+639702460+637478981+637042650+640191348+645598191+650281989+653277640
3598+656380492+660871359+665303482+667344989+667640499+669368604+673943860
3588+678827001+680089477+676870628+671222696+665846120+662838467+662639050
3578+664203000+666210363+668001163+670043117+673753091+679936504+686722864
3568+690125101+688347720+683516837+677403873+670012329+662609156+658143411
3558+658211698+661789646+666485148+669669183+669800910+668054391+667413573
3548+669059452+670587991+668830290+663858661+658638934+655541898+654879610
3538+655877663+657818977+660151669+662340558+664135682+665283056+665028921
3528+662954836+660042381+657949511+657465021+658076989+658636549+658576015
3518+658777147+660249104+661920925+661618408+659296674+657030554+655964438
3508+655460193+655081561+655598554+657617025+660037536+660859506+659564676
3498+657401133+655477637+654046383+653177298+652639730+651814480+650657117
3488+649975596+650395750+651583902+652368076+651580547+649134094+645710685
3478+642033960+639639616+640408880+643768849+646321832+645878567+643989661
3468+643210631+643938819+644880589+645329668+645860750+646759207+647236466
3458+647134931+647618973+649057086+650217132+650430415+650288177+649807116
3448+648412839+646845609+646552112+647080585+646344569+643736942+640793699
3438+638519378+636271074+633598441+631476199+631378839+633804642+637410844
3428+639893826+640294672+639734069+639417462+639034954+637657003+634912505
3418+631274396+628278596+627542879+628701435+629615025+629419633+629545844
3408+630938929+632442196+632848336+632650410+632690890+632694692+632000199
3398+630584973+628839647+627174088+626164181+626124373+626602004+627322290
3388+628982631+631687692+633798678+634139513+633807773+634199599+634874038
3378+634750288+634059746+633728826+633935176+634166798+633960299+632962618
3368+630787596+627523123+624291340+622574865+622716767+623756121+624900289
3358+626228815+627813713+629438569+630915148+631660557+630812569+628826750
3348+627768536+628913301+631136407+632385018+631819867+629922611+627667523
3338+626157696+626005915+626839142+628079701+629715814+631447572+632117016
3328+631316963+630409337+630512661+630688670+629481881+627187059+625262221
3318+624383259+624421055+625416014+627219786+628914419+629617932+629292752
3308+628258692+626747075+625160537+624159315+624425043+626179464+628545628
3298+629942515+629840832+629295287+629185775+629115923+628672510+628717462
3288+630422905+633451134+636089847+637096399+636437988+634493618+632132448
3278+631091231+632257689+634133102+634633694+633785930+633159948+633476182
3268+634071376+634229493+634339377+635491597+637962129+640438923+641079741
3258+639130973+635511054+632206996+630832399+631234737+631918718+632210873
3248+632990127+634578379+635270262+633473125+630373256+628437906+628135538
3238+627962809+627142778+626636445+627472579+629313476+630968674+631699546
3228+631549182+630962933+630255469+629030640+626519777+622923080+619901225
3218+619221941+621200976+624386203+626539458+626355845+624379680+622001513
3208+620207321+619346772+619166141+618768799+617477174+616059562+615921238
3198+616996859+617717965+617111812+615721262+614487822+613873283+613970457
3188+614578622+615196702+615397200+615128752+614424344+613149642+611408453
3178+609739539+608447691+607161359+605606877+604301088+603930620+604315811
3168+604456521+603692289+602237515+600495768+598697699+597449871+597609814
3158+598956866+599949589+599470280+597870398+595907987+593937265+592445664
3148+591999380+592304208+592413496+592022117+591664323+591660893+591735591
3138+591585488+591002557+589554940+587158807+584916728+584223130+584966712
3128+585609431+585085915+583796713+582790273+582707487+583243602+583194251
3118+581580055+578988233+577066861+576661951+577150243+577409820+576803593
3108+575393325+573812788+572915710+573094030+573854200+574283076+573912608
3098+572876125+571378822+569516865+567602463+566186156+565747812+566508839
3088+568099850+569332469+569029095+567346799+565636697+564920139+565063570
3078+565352780+565357477+565097079+564706930+564326436+564117551+563904939
3068+563080919+561386547+559336281+557588234+556477463+556027825+555805224
3058+555243129+554491048+554233744+554508753+554527055+553805650+552866006
3048+552664017+553435481+554166241+553573842+551612736+549381467+547728022
3038+546751028+546329830+546281374+546138427+545375350+543885762+542103721
3028+540777320+540457358+540827267+540756260+539577762+538001065+537045951
3018+536665046+536307512+536087744+536315713+536561238+536128261+534934891
3008+533449664+532212460+531494112+531119432+530717169+530160479+529509001
2998+528657435+527458772+526123611+525104759+524537371+524031151+523090388
2988+521578100+519788790+518319778+517735915+518037799+518644883+519096348
2978+519409712+519653262+519642862+519064777+517679258+515730117+514120730
2968+513545180+513655325+513704527+513510328+513061734+511971911+510200680
2958+508560728+507781064+507647510+507470794+506889764+505967936+504884152
2948+503751017+502647292+501755954+501313361+501279218+501304191+501246603
2938+501333414+501487170+500971631+499287174+497168398+496076264+496651554
2928+497956560+498393302+497344556+495551519+493847157+492258233+490613287
2918+489202720+488308103+487738404+487282168+487052895+487061766+486925492
2908+486278859+485289901+484582996+484500695+484479486+483595491+481869995
2898+480427373+480091905+480419135+480424689+479772279+478859099+478101911
2888+477504295+476726420+475491452+474099224+473340173+473556736+474036939
2878+473795775+472676059+471223372+469902748+468947821+468567923+468749895
2868+469027364+468802265+467865379+466527646+465332226+464598298+464139825
2858+463487005+462488654+461557023+461124270+461069290+460941142+460536382
2848+459984016+459448497+458977799+458512692+457950896+457263746+456462314
2838+455451028+454139574+452704183+451577943+451120515+451153987+450843009
2828+449505276+447626471+446396870+446187725+446254632+445958004+445417081
2818+444888086+444340640+443772172+443313066+442877964+442110526+440811820
2808+439230202+437827314+436896130+436494911+436500539+436514182+436000506
2798+434837999+433495234+432409251+431523841+430679021+430020387+429666804
2788+429323173+428649331+427810885+427239398+426946646+426482136+425565154
2778+424403690+423319944+422349436+421341169+420322205+419565949+419209161
2768+418957001+418388794+417462120+416499701+415789069+415338685+414910479
2758+414269997+413513816+413031563+412999134+413077149+412751298+411894738
2748+410924342+410286618+409795829+408846008+407366037+406008363+405221840
2738+404732281+404115804+403376098+402745940+402239086+401654105+400930912
2728+400218751+399537789+398721969+397839317+397255566+397051080+396752551
2718+395889281+394591544+393402460+392572662+391806268+390841202+389976181
2708+389632214+389646640+389484981+388974139+388385505+387918572+387457975
2698+386774292+385769790+384619770+383734843+383401687+383400084+383177259
2688+382501478+381746117+381368008+381293609+381030006+380256604+379096520
2678+377883357+376871624+376154581+375681273+375308382+374935641+374594768
2668+374303247+373906463+373275933+372598103+372158752+371836069+371148845
2658+369906199+368512256+367480694+366898918+366538291+366263021+366084142
2648+365944960+365708307+365322333+364851970+364388875+364003908+363720624
2638+363473198+363119056+362554129+361859412+361284197+360963677+360684866
2628+360112931+359249027+358449795+357967951+357681350+357320983+356780881
2618+356136000+355523474+355051582+354697590+354304049+353769314+353161745
2608+352598345+352148409+351824123+351491824+350931519+350170343+349524344
2598+349162486+348924938+348648252+348355538+348090518+347804812+347421969
2588+346926371+346409080+345993883+345704598+345490980+345308188+345053530
2578+344602736+344038443+343612958+343391810+343144347+342638536+341907404
2568+341212874+340769274+340463998+339958151+339182400+338534128+338378546
2558+338574682+338724897+338670216+338488504+338218453+337858645+337470845
2548+337065563+336558187+336016146+335729917+335821947+335957364+335692121
2538+335034903+334418276+334142708+334110727+334121089+334143491+334187698
2528+334137974+333907247+333593771+333295876+332902000+332263903+331474101
2518+330774614+330304474+330096000+330151017+330362212+330522976+330531474
2508+330442501+330297020+330063497+329749276+329441018+329216255+329059964
2498+328886490+328644171+328371585+328140522+327990195+327903943+327778254
2488+327463810+326936492+326365489+325933034+325682402+325588471+325615309
2478+325637748+325477655+325095371+324623890+324212830+323962944+323938716
2468+324088260+324226846+324224572+324124006+324008158+323871921+323685513
2458+323487140+323342292+323236843+323074104+322804799+322504369+322269728
2448+322108070+321980629+321874472+321773907+321638676+321466432+321314726
2438+321213266+321120639+321016346+320931138+320832622+320627204+320333372
2428+320078863+319888840+319684428+319509090+319525677+319730984+319853877
2418+319652596+319224875+318895408+318841473+318976480+319160018+319321340
2408+319389478+319313848+319173511+319124719+319223757+319378631+319491385
2398+319589454+319737544+319876017+319897264+319838594+319807321+319759685
2388+319544240+319069255+318237631+316827959+314640039+311696777+308173566
2378+304207575+299897507+295414150+290965645+286708878+282804520+279432735
2368+276634526+274313071+272459743+271211785+270792973+271608942+274170330
2358+278604205+284420337+291167019+299089123+308238237+317080119+323208142
2348+325254159+323743325+320719346+318174489+316345743+314240945+311308306
2338+307792680+304152037+300655048+297403286+294573971+292481399+291289222
2328+290786934+290577434+290430257+290446882+290922481+292004159+293493673
2318+295022361+296345893+297460987+298562029+299884442+301462221+303062364
2308+304437240+305537182+306400061+307024590+307473930+307912964+308408170
2298+308856578+309204160+309560930+310016308+310498860+310879634+311098359
2288+311187873+311263651+311427676+311618483+311684999+311647818+311687832
2278+311825280+311839127+311586017+311204013+310930234+310861407+310913610
2268+310916666+310777335+310602911+310574564+310685529+310769209+310801582
2258+310958096+311316171+311712078+311963139+312060816+312086665+312091977
2248+312120268+312213174+312336831+312397383+312357425+312252237+312104482
2238+311946384+311907693+312121908+312528196+312912605+313179712+313453677
2228+313863320+314334503+314672953+314774897+314679736+314511145+314431267
2218+314533957+314735610+314907854+315091467+315377509+315651511+315699334
2208+315515237+315318616+315305421+315486871+315746188+316005243+316279581
2198+316562828+316798512+317020778+317324786+317661596+317874506+317935337
2188+317946259+317976563+318063486+318247397+318468470+318577161+318545292
2178+318524829+318639074+318853550+319081444+319297783+319530598+319799307
2168+320048038+320167091+320168247+320250884+320545946+320899976+321089143
2158+321131374+321218596+321441607+321709758+321881778+321913312+321899632
2148+321981897+322215419+322540525+322846732+323039775+323091884+323067917
2138+323087747+323229314+323451021+323639032+323760769+323916575+324194268
2128+324549416+324888649+325182891+325442431+325665368+325856696+326034457
2118+326195108+326315914+326388785+326437018+326521332+326715978+327028857
2108+327362983+327608657+327737178+327773073+327759394+327790369+327968837
2098+328279779+328596013+328834791+329020193+329167239+329186026+328963797
2088+328545432+328187935+328170118+328528845+329013185+329317827+329353200
2078+329291400+329377503+329694333+330093875+330361541+330454018+330543551
2068+330797798+331143703+331316319+331158538+330795711+330458864+330238425
2058+330093204+329992788+329940418+329943586+330052986+330330082+330705545
2048+330993860+331120369+331228650+331491620+331882290+332197518+332284814
2038+332183950+332038954+331943755+331920422+331995716+332209222+332521058
2028+332792041+332941212+333066006+333315594+333743986+334380704+335250683
2018+336162335+336709520+336697667+336389446+336203299+336332417+336666021
2008+336971967+337190096+337511325+338063169+338689151+339184339+339504300
1998+339686534+339944210+340729726+342120500+343283790+343251175+342101416
1988+340705274+339670058+339060514+338695488+338363077+338016576+337826291
1978+337858496+337873816+337636976+337242280+337044540+337399092+338334935
1968+339280692+339386626+338459878+337268073+336631468+336608059+336769457
1958+336868830+336908713+336840203+336578687+336221414+336023414+336179295
1948+336777359+337959957+339756870+341446247+341654051+339945925+337648456
1938+336216084+335744790+335529680+335195182+334840332+334598795+334471466
1928+334575946+335374620+337118157+339022718+340006719+340304800+340761111
1918+340801926+339193993+336569369+334931765+335168680+336410096+337186331
1908+336777321+335655704+334727764+334327141+334165334+334008111+334036775
1898+334568528+335509142+336292347+336785037+337724086+339300038+340119361
1888+338996551+336870619+335352553+334784234+334641325+334561334+334445710
1878+334302503+334227991+334397030+335406675+338383056+343679865+349071947
1868+350667804+347444669+342535212+339024954+337532012+337241683+337324693
1858+337333229+337175820+337028549+337066495+337429098+338407619+340409914
1848+343899037+348982489+353940812+355072493+351197097+345980427+342968413
1838+342429615+342748868+343081540+344554019+348545487+353871035+356955510
1828+356450594+354720551+353221719+351027388+348044037+345916688+345552855
1818+346141638+346636341+347225757+348873910+351603349+353832680+354010962
1808+352539564+351240037+351700187+354484158+358728792+362203938+363044396
1798+361959792+361746136+364680061+370262875+374246777+372320186+366417522
1788+361945031+361230560+362933170+365055599+366948493+368347318+368751631
1778+368896292+371024983+376844488+385304906+391732055+391781369+386869192
1768+380935926+376351649+374807268+377095716+381153383+383372464+383277937
1758+382953092+382890322+383086310+385567801+392166299+400866129+406381924
1748+406177774+402891161+399991342+399133812+400412167+402582866+403894619
1738+405012732+409297324+417747342+424324855+422233849+414955656+408266320
1728+403701874+401602182+402069489+404197919+407786192+414862172+427126010
1718+441278380+448372364+444526527+436071178+429401039+426918914+429141201
1708+435601635+444025189+451038772+456512075+464167073+475276976+484459134
1698+487023374+484689376+478895441+471695114+467788408+469413077+475066004
1688+483416948+495961423+512243528+522641532+519493355+511153333+506698473
1678+508432691+515056014+522944720+529000320+534423862+540942146+545328534
1668+543743114+540031911+540318102+544947517+549058896+549251268+548379127
1658+551343579+561110084+578316850+596813228+601258323+593716415+590541177
1648+594297892+596210803+589088416+578388342+571621812+570568928+574959304
1638+583980587+592995905+592629276+581534916+570070423+564605358+564294454
1628+565776401+567278364+569247149+570691858+569062306+565778265+565623950
1618+569740510+572642379+568818160+561689772+557056070+556121010+556949280
1608+557389488+556885280+556175766+555841678+555637564+555140141+554668958
1598+555032977+556297056+557392954+557339131+556334852+555159374+554158898
1588+553294398+552632595+552330190+552331867+552627153+554115995+558558369
1578+566373422+573407245+573322297+568421414+566731105+570410438+574554581
1568+574174944+571173254+569722059+571926528+580312547+598224615+621450862
1558+629337854+616606039+602101353+593809563+590719795+590702500+592081495
1548+594864460+601185228+612797364+628912555+646843298+660704147+660430480
1538+648370719+639577517+640281701+646337785+650133116+650477903+652991673
1528+660689387+671305146+681830032+692471063+703094949+709856261+711085340
1518+710022802+708134492+704966784+702701557+705110736+714207797+729681202
1508+747238457+754033912+742082470+725809906+717573133+718269788+724727241
1498+731772283+733757059+730412745+728047773+731731505+740477071+747797272
1488+747863172+742412942+736981349+734633822+735325929+737828293+741691985
1478+747435936+755157654+763849246+771008348+772458537+767159939+760867089
1468+759294715+762812353+767106040+768000546+767546546+771367149+781921332
1458+794587023+797717531+787905179+775492506+767380229+764376452+764995874
1448+766032767+764429754+760529757+756915579+755050230+755443025+758974530
1438+765112766+769154405+766645182+761102289+758286299+758674547+759026862
1428+757839382+757124090+758561681+761541900+765438319+770563294+774921838
1418+773666370+766382101+758392680+753383030+751249009+750337581+749852644
1408+750485112+752493892+754086021+753735868+753284254+755577361+760575381
1398+765870923+769503068+770258093+767444564+763111963+761268606+763588998
1388+767620796+769287847+767966626+767082185+769282554+774251201+780568205
1378+787681758+795646056+803563166+809333805+811967002+813000391+814175944
1368+815800800+818204611+822144193+826532482+828089275+825165713+819988255
1358+815597730+813051755+811691993+810577569+809398513+808245250+807179730
1348+806300656+805627932+804999489+804760263+805962654+808865194+811723527
1338+812377763+810977745+809678591+809966646+811445834+812898260+813831679
1328+814811618+816560820+819125060+822101775+825476579+829555269+833915825
1318+837363761+839408548+840886096+842686439+844738979+846527766+848019404
1308+849810801+852511688+856008751+859362160+861599132+862704311+863655772
1298+865217038+866810285+867029458+865292108+862397247+859354630+856351674
1288+853146840+849932688+847179915+844770364+842030190+838712937+835332468
1278+832541899+830684303+829833259+829849958+830363000+830867469+830987417
1268+830844731+831060400+832090733+833649091+834967404+835528604+835530170
1258+835653995+836272150+837110148+837940616+839146585+841160658+843751064
1248+846263418+848249311+849642024+850718726+851983364+853649072+855311128
1238+856638610+858114668+860372290+863080333+865252299+866523274+867577239
1228+869440724+872462094+875765853+878159974+879579822+880777441+882040886
1218+883292926+884877749+887248760+890201918+893014553+895252643+897181209
1208+899352579+901788446+903904129+905500209+907312032+910199812+914111811
1198+918064812+921183020+923519365+925530829+927358680+929106019+931075288
1188+933253367+935202434+936757140+938402497+940893902+944590755+949046585
1178+953245819+956178998+957346798+957152600+956707993+956711423+956894364
1168+957233708+958676592+961609398+964821463+967137159+968991623+971356744
1158+974058675+976176668+977537697+978674560+979474389+979230019+978281093
1148+978227717+980090084+983381170+987203338+991104603+994474785+996346768
1138+996447408+995541422+994557160+994090637+994471504+995601956+997169931
1128+999221949+1001774708+1004475819+1007469606+1011287376+1015402892
1120+1018352472+1019487546+1019649017+1020297737+1022346699+1025304330
1111+1027574476+1028071266+1027205164+1026373204+1027071051+1029767614
1103+1033091874+1034792173+1033480420+1029512286+1025388868+1024740968
1094+1028862672+1035038481+1039612171+1041754244+1042956261+1044033187
1085+1044155446+1042532528+1040624762+1041117675+1044122645+1046863191
1077+1047740700+1048073111+1049272594+1050660461+1051397222+1052329449
1068+1054192562+1055882424+1055606818+1053302380+1051155611+1050976769
1060+1052288149+1053788435+1055702613+1059447549+1065082361+1070367094
1051+1073280443+1073741823+1071961608+1067956722+1063630606+1062285009
1043+1064979484+1069090155+1071158275+1070744756+1070307604+1071232451
1034+1071705833+1069302245+1064679427+1060937100+1059996374+1061429343
1025+1064176748+1067418483+1069767352+1069594027+1066908050+1063620915
1017+1061343612+1059970133+1058710639+1057579591+1057316063+1057705727
1008+1056890765+1053931046+1051209136+1051930690+1055688672+1058388217
1000+1056967997+1052655822+1048563192+1046080881+1044773079+1043986967
991+1043221355+1041929432+1040047161+1038035772+1036020134+1033423316
983+1029801012+1026200252+1023840573+1021630214+1017830187+1013419832
974+1010840608+1010061056+1008793063+1005985423+1002290285+997899983+992723495
964+988056022+985491261+984197847+981228064+975218125+968175543+962557579
954+958738019+956375955+955640908+955573367+953798968+949590862+945100964
944+942515404+942043065+942951064+944781375+947075303+948801097+948728785
934+946536989+943160992+939881759+937529908+936378807+936141967+936027088
924+935551917+935415642+936881263+940135149+943517110+944576367+942482751
914+939245042+937507618+937640240+938032662+937642402+936880443+936283460
904+935833709+935350562+934639147+933515703+932235633+931568575+931924394
894+932612922+932550526+931613900+930593855+930040930+930019162+930614728
884+931439979+931105406+928852405+926118643+924856017+924972164+924756048
874+923342686+921603846+920588273+920098193+919231717+917784808+916570266
864+916325897+916854817+917590833+918538045+919997925+921524824+922088857
854+921595496+921301776+922093106+923222663+923496181+922897781+922137164
844+921265098+919631743+917182010+915288109+915416929+916954861+917571078
834+916609330+916514877+919247223+923092427+924885539+923993120+922033468
824+920177214+918918912+919156349+921720439+926176865+930744592+933802416
814+935693111+938183697+941510119+943166956+940661312+934533586+927801870
804+923485819+923089892+926243959+931052178+935282126+937780092+938797454
794+938987403+938350536+936750952+935271018+936141669+940494323+946415252
784+950213416+949844550+946187208+941473590+937985175+937294633+939065530
774+941154225+941882637+941312939+940062166+938761969+938477716+939941175
764+942305699+943308971+941279988+937396541+935037608+936276005+939872590
754+942979094+943793311+942182993+939250782+936929421+936769068+938512232
744+940133435+939807435+937926431+936637117+937671625+940800717+943816272
734+944257151+941946152+939264574+938439994+939338526+940628436+941680238
724+942567513+943444798+944240825+944291593+942451292+939106829+936816555
714+937665586+941000134+943747017+943420048+940858119+938704939+937877005
704+937616533+937863587+938795739+938979650+936100145+929384159+921292233
694+915937351+915368323+918517693+922988358+926193713+925418559+919691382
684+911281434+903426572+898173895+896356332+897567519+899649878+900297107
674+899581368+897850504+892516421+881805686+872115519+873545133+882246342
664+887066713+884905929+879259935+874378583+871932652+871157573+870647065
654+870262545+871160480+873344448+874753040+873592173+869772464+864650620
644+860909709+860639247+862439739+862589209+859579170+855245152+851361780
634+848606845+847821255+848891769+850318848+850234161+846850113+840365898
624+834396215+832949977+836294291+841024383+843171376+841381097+837886867
614+835283639+833035857+829268481+825264266+825099737+830142933+835930718
604+836400075+830986746+824545769+821084116
##END=
