##TITLE=<SNM>
##JCAMP-DX=4.24
##DATA TYPE=INFRARED SPECTRUM
##DATE=2/5/2025
##SAMPLING PROCEDURE=Instrument type and / or accessory
##ORIGIN=Admin
##XUNITS=1/CM
##YUNITS=ABSORBANCE
##RESOLUTION=4
##FIRSTX=4497.3318
##LASTX=599.83466
##DELTAX=-1.4281778
##MAXY=1.7935166
##MINY=0.25974718
##XFACTOR=1
##YFACTOR=1.6703425e-09
##NPOINTS=2730
##FIRSTY=0.28125101
##XYDATA=(X++(Y..Y))
4497+168379244+167820324+168382581+169308636+169991808+170488941+170745063
4487+170217974+168882087+167813152+167924165+168831058+169685300+170184930
4477+170100359+169070748+167621225+167047800+167695270+168505691+168531473
4467+167978762+167633857+167921417+168625447+169157675+169036367+168312319
4457+167649630+167785193+168597328+169009229+168366023+167426800+167203739
4447+167464947+167340445+166747821+166203211+165821231+165436271+165245432
4437+165562503+166301021+167182882+168052075+168692515+168790949+168258650
4427+167221278+165846334+164604493+164271614+165062730+166139551+166526134
4417+166180034+165705257+165402246+165084961+164586543+164001663+163507956
4407+163294530+163655314+164773278+166230616+167190322+167304101+166964959
4397+166606602+166312154+166078299+165877076+165522376+164894337+164207364
4387+163824331+163851487+163992671+163842084+163339813+162842412+162716091
4377+162992286+163354657+163262450+162254250+160479555+158862888+158377299
4367+159023751+159767622+159691561+158990101+158522836+158703308+159213948
4357+159518119+159350297+158924621+158756157+159052780+159455529+159643263
4347+159752617+159888698+159758433+159199335+158608478+158450629+158713550
4337+159106021+159441416+159619711+159520295+159153427+158789949+158728733
4327+158997738+159395669+159737826+159977516+160166998+160298369+160084550
4317+159088911+157381534+155862677+155505336+156390266+157759232+158849131
4307+159436491+159731866+159983957+160193618+160206108+160049580+159964241
4297+160038143+160161003+160408258+161036155+161952719+162589145+162497900
4287+161776921+160761102+159579281+158295921+157272609+156957036+157365530
4277+158122514+158914166+159595874+160049954+160257564+160377445+160622737
4267+161165974+162032419+162891353+163199557+162790920+162071993+161469200
4257+160990498+160554920+160399230+160796787+161649297+162683476+163685181
4247+164289366+164130679+163485636+163097036+163195792+163315066+163042903
4237+162449531+161903939+161721772+161823114+161780472+161395298+160952797
4227+160823603+161195039+162030867+162913995+163301702+163174631+162938099
4217+162721550+162456560+162363229+162604988+162771151+162394773+161730907
4207+161506632+162136456+163402278+164633950+165181005+165001371+164720733
4197+164838830+165024726+164543152+163315708+162180116+161980428+162661476
4187+163444778+163731428+163584820+163413286+163498839+163827329+164173714
4177+164393457+164636947+165108762+165713893+166168437+166336241+166282537
4167+166214630+166435496+167016790+167513566+167367672+166589063+165730308
4157+165206144+164933143+164683604+164490535+164503667+164690366+164943117
4147+165273748+165647860+165824085+165607073+165139451+164802700+164902633
4137+165452418+166176947+166738633+166977413+166975093+166941657+167017682
4127+167132549+167062841+166693082+166209438+165960060+166042115+166106454
4117+165801087+165311269+165141574+165483124+166068646+166504848+166557126
4107+166279040+165937097+165708469+165608946+165767044+166334992+167022125
4097+167205381+166638075+165687665+164852265+164375026+164265922+164358665
4087+164356096+164091016+163806543+163985106+164797758+165844336+166517891
4077+166574950+166275703+165998027+165830259+165577508+165126069+164690991
4067+164582654+164799506+165036341+165095220+165088850+165195136+165401265
4057+165589141+165745937+165971264+166288514+166531861+166494910+166198090
4047+165948766+166058637+166490289+166849842+166793729+166385360+165989695
4037+165892474+166125384+166582711+167101130+167450602+167455508+167175370
4027+166852661+166634132+166478068+166366751+166387858+166549489+166735100
4017+166880602+166995183+167029494+166961569+166936376+167026817+167018896
4007+166780080+166626192+166961391+167756057+168600914+169045627+168835911
3997+168145424+167560348+167532390+167963239+168483620+168828828+168899714
3987+168834787+168949601+169318093+169618517+169587846+169385839+169386677
3977+169764090+170319995+170736339+170996583+171306285+171578412+171454552
3967+170977706+170771755+171306767+172282155+172980100+173068294+172757592
3957+172357092+172133656+172448193+173577809+175373093+177110390+177786550
3947+177174319+176475856+176901639+177894691+177922275+176803329+175783442
3937+175800588+177109356+179674506+182613429+183949120+182555996+179959818
3927+178623217+179185741+180284418+180744654+181093163+182332168+184087075
3917+184639643+182855796+179668779+176995577+175846335+176176377+178078393
3907+182236695+188852364+196387397+201979432+203680011+201426382+196146137
3897+189842044+185586842+185629020+189205475+192249702+191688267+190137133
3887+191466044+194803042+196618862+196955595+197853745+197631023+194120369
3878+190431402+190675428+194624389+199653579+204307408+207272060+206757674
3868+204415620+203911904+205187021+204658379+200900667+196861656+195952515
3858+199804077+208872670+221107190+227535731+220542329+207734526+197801165
3848+193214279+193733143+197924293+203795270+210027050+216211119+221005651
3838+221705737+217995324+213073454+209206869+206277776+204108791+203282544
3828+203553261+204171202+206382117+212378042+220375577+224359188+223123626
3818+220978513+218365885+212836797+206010164+201903443+202418257+207107021
3808+213197759+217331225+220243136+224875733+229694761+230064823+226793181
3798+223882413+221458982+218298389+215698107+215485270+217518656+220857758
3788+225203259+230096207+234451182+238500184+244362687+252896232+261707346
3778+268503166+274806028+283597516+296197692+311973215+328160729+340911402
3768+348924977+353419423+355279599+356102046+358596221+363343489+367763712
3758+370102483+372710061+379499351+392303586+408477504+421038481+427331369
3748+433273411+443754291+456371042+463854851+466254784+470926045+482631745
3738+501493852+522910512+538766093+544160849+542916081+542655659+547593337
3728+557565575+569484738+578826367+582946166+582662050+579877906+575963112
3718+572189163+570458628+573030237+579943136+585974996+584133411+574923849
3708+564750851+558292032+556934003+559123043+560842588+559377256+556844721
3698+557231537+562133674+570292483+579711796+589110128+596254510+596803795
3688+590077666+581967102+576958198+575479093+576805720+580451849+586578021
3678+595587967+604743754+607870964+605222991+602965259+601558378+596009539
3668+585799180+575842143+569152983+565817984+565148408+567043697+571783043
3658+577961885+581581250+580772399+579728354+583752627+593307718+601228301
3648+599308425+590123556+580709738+573645752+568557986+565327007+564688761
3638+567104716+571616469+576096499+579653453+584231900+591427167+597452603
3628+596488491+591098624+587677519+589335723+596437962+606243556+612784449
3618+613081055+611380209+611637348+612510752+611826188+611017301+611928744
3608+612923117+612054352+610888910+611964286+615478597+619775817+623288630
3598+625191305+625354596+624620860+624772945+627615539+633542523+639996704
3588+641718318+636812327+630518154+627869467+628794684+630201708+629630334
3578+627270903+624911043+623662242+623663242+625629221+630785357+638459647
3568+644741616+645516032+641219811+635556033+631303561+629084296+627810089
3558+626530815+625990986+626977365+628079932+627392942+625734631+625435099
3548+626862034+628110620+627712957+626510617+626255548+627203460+627673919
3538+625769959+621758068+618242829+617297843+618115366+618031793+615830299
3528+612942529+611142624+610715842+610987470+610970413+609749303+607270116
3518+604550774+602805252+602231095+601902872+601151437+600492281+600653715
3508+601632458+603238528+605340392+606996062+606690892+604216200+601073003
3498+598768168+597912179+598704080+600871674+602952841+602957266+600356253
3488+596720937+594025825+592825412+592217926+591187477+589843936+589060099
3478+588879609+588190085+586061708+582552392+578538861+575414112+574270616
3468+574966206+576506117+578061622+579038795+579077762+578506888+577791707
3458+576815248+575561309+574668957+574748997+575865124+577468374+578146835
3448+576352497+572481416+569026590+567647329+567412277+566530274+564662640
3438+562587968+560754948+559400844+559016205+559592146+560207340+560057716
3428+559250007+558510347+558575756+559500902+560224860+559437241+557192070
3418+554946792+553912524+553817819+553372481+552006816+550676228+550371700
3408+550649072+550428259+549380538+547951105+546851786+546696382+547300977
3398+547623704+547044872+545877789+544216338+541600052+538284322+535534578
3388+534329634+534743640+536415654+538668033+540464656+540978899+540150457
3378+538543996+536858743+535592815+534909928+534687616+534749350+534886876
3368+534706565+533883797+532747865+532210784+532756180+533707410+533970402
3358+533517357+533304858+533560071+533257220+531747426+529907412+528961998
3348+529111479+529943917+531343554+533201196+534668668+534657214+533116553
3338+531076173+529486483+528573148+528089201+527675944+527186929+526993236
3328+527482643+528197466+528278826+527750702+527423800+527558293+527604183
3318+527219294+526688244+526239588+525651764+524809834+524094261+523813926
3308+523714296+523478817+523328159+523666016+524345441+524643581+523974862
3298+522616369+521618071+521766052+522737837+523528953+523684072+523826880
3288+524759947+526105059+526380647+524927734+523088647+522629536+523606959
3278+524549233+524494672+524041377+524136189+524589698+524559367+524057756
3268+523726358+523412231+522380425+520750234+519568270+519625150+520673763
3258+521530002+521012761+519119221+517011541+515792073+515663896+516167327
3248+516821951+517545303+518442401+519127643+518748820+517102785+515145941
3238+513879941+513292724+512710966+511802556+510839157+509906625+508455782
3228+506438097+505127706+505475340+506435277+506212894+504582988+502799248
3218+501911999+502094523+502906550+503703340+504096364+504078879+503727034
3208+503089359+502326719+501585703+500833697+500054142+499335286+498629063
3198+497713730+496451192+494848869+493033049+491393329+490471110+490402454
3188+490652992+490438602+489330789+487550796+485804845+484647325+483896175
3178+482993439+481919276+481131443+480705018+480275382+479641918+478775937
3168+477582768+476185201+474996492+474161235+473392814+472515521+471718338
3158+471157456+470630616+469750825+468343159+466672537+465281643+464488636
3148+464006008+463246223+462030537+460686318+459468527+458305476+457073911
3138+455739754+454358887+453232519+452746788+452807807+452851342+452583247
3128+452197110+451772184+451072990+450100884+449310196+449020084+448995248
3118+448788031+448126698+446931388+445433905+444263217+443870050+443895921
3108+443603098+442833642+442106971+441890797+442079459+442118426+441525249
3098+440319805+438980331+438019074+437632793+437661376+437718328+437410910
3088+436664470+435829498+435291168+435033886+434766969+434318170+433628504
3078+432598590+431298726+430070586+429116108+428353896+427865917+427907239
3068+428292591+428407101+427955270+427115338+426051631+424903959+424087757
3058+423967323+424252118+424196808+423422784+422154036+420725924+419367109
3048+418407065+418094793+418102929+417725320+416760780+415814616+415564613
3038+415999317+416500357+416512739+415990574+415200600+414235952+412913536
3028+411157879+409314617+407931145+407221424+406895772+406563981+406129955
3018+405740107+405527108+405445285+405245383+404644463+403604664+402416206
3008+401481889+401018424+400879756+400640244+399948366+398826244+397652023
2998+396876680+396655081+396701685+396601912+396210922+395572141+394635541
2988+393403940+392194107+391383614+390996620+390793792+390626826+390470673
2978+390229484+389717631+388869207+387938066+387369440+387302640+387302140
2968+386855982+385984077+384988455+383915827+382781323+381956736+381698561
2958+381576272+380958759+379844916+378783921+378228748+378245305+378538165
2948+378531063+377709687+376136126+374477994+373332856+372666634+372100506
2938+371521960+371077729+370720923+370178811+369393226+368677474+368353606
2928+368359707+368248480+367637926+366634667+365644898+364877191+364261711
2918+363691516+363112862+362576816+362284135+362291022+362253875+361841831
2908+361243123+360855095+360646236+360231301+359494710+358755051+358262753
2898+357870192+357344280+356705250+356042703+355304293+354471818+353665287
2888+352967199+352417236+352101824+351940104+351609741+351001684+350435877
2878+350168032+350067046+349946149+349807516+349637945+349314362+348787772
2868+348135003+347464999+346884312+346431480+346011479+345535310+345036982
2858+344516744+343885742+343230868+342825568+342723726+342684830+342571676
2848+342431651+342184503+341675113+341017955+340499572+340176774+339867001
2838+339487465+339158350+338940071+338644392+338037263+337168177+336337737
2828+335713551+335174365+334606488+334083931+333655579+333245747+332859039
2818+332572103+332253765+331639357+330766167+329987648+329469943+329008369
2808+328400741+327687737+327005957+326484755+326247384+326250667+326204278
2798+325880017+325393536+324963864+324510604+323734725+322596403+321493444
2788+320834359+320576541+320378566+320082424+319743389+319272609+318481743
2778+317517559+316801986+316403252+315877911+314952337+313969062+313380203
2768+313134946+312881661+312520431+312229927+312074415+311844860+311336790
2758+310632172+309970874+309407137+308774744+308003325+307295888+306921312
2748+306892587+306889482+306525719+305699953+304636996+303622426+302768720
2738+302007435+301272807+300665179+300316795+300107543+299745885+299152584
2728+298511769+297949780+297442906+297010985+296724549+296509660+296164934
2718+295627853+295072091+294642098+294206502+293529129+292632709+291845839
2708+291480309+291511800+291592928+291422001+291067105+290802115+290670958
2698+290410411+289798625+288926703+288108163+287602163+287428471+287388879
2688+287231923+286840950+286333826+285963746+285856016+285877551+285796441
2678+285491681+284984682+284357320+283673916+282972849+282334050+281875617
2668+281617371+281436345+281207022+280907757+280593166+280338507+280168561
2658+280003540+279762030+279501429+279327951+279200291+278940155+278416544
2648+277676224+276922344+276360945+276021928+275748998+275408287+275056352
2638+274827617+274714499+274603361+274501786+274513615+274565446+274424940
2628+274057323+273702373+273507306+273323908+272988299+272591456+272311247
2618+272118303+271838611+271428583+271025549+270778937+270734510+270805557
2608+270803434+270587045+270176447+269643308+269018587+268409032+268020307
2598+267935308+268023251+268139617+268261389+268380627+268423198+268339929
2588+268177513+267987389+267753997+267500907+267357564+267373819+267369358
2578+267138089+266727169+266362817+266183505+266173281+266264311+266376841
2568+266414684+266328650+266178170+266093081+266185503+266458450+266743941
2558+266811776+266617940+266336786+266094687+265847432+265564546+265304534
2548+265050606+264694586+264246911+263880436+263706726+263643672+263556121
2538+263401484+263171482+262833857+262437532+262126902+261952389+261819002
2528+261655212+261459503+261221561+260983994+260867450+260865113+260777080
2518+260499083+260204511+260100956+260148469+260159442+260093569+260083542
2508+260177677+260259554+260258234+260226100+260164938+259997811+259739244
2498+259505032+259368701+259327450+259329627+259258080+258994696+258559921
2488+258129874+257886295+257834678+257764130+257466471+257006040+256643079
2478+256509496+256529122+256600668+256670395+256681743+256600704+256440108
2468+256225950+256022104+255932787+255969756+255995074+255872035+255589346
2458+255231042+254929868+254821478+254925372+255062042+254972743+254580735
2448+254104138+253817916+253734880+253648774+253437952+253164327+252935610
2438+252817263+252812624+252850985+252855124+252808699+252704341+252509381
2428+252234257+251953958+251753003+251695177+251790133+251963468+252123440
2418+252243606+252338686+252432357+252585263+252848255+253138545+253276981
2408+253206773+253067391+252984176+252915287+252808057+252778064+252985978
2398+253414097+253891997+254336638+254936149+256133118+258481862+262543050
2388+268881471+278074334+290669870+307098983+327516203+351638752+378757978
2378+407955553+438364567+469261882+499838718+528875357+554985188+577441147
2368+596191242+610630486+619427755+622317024+620867822+616831738+610377771
2358+599947599+583597472+560305792+530966837+500465330+476627897+465124740
2348+467531774+482301810+504252732+524806622+537706704+543243411+544721053
2338+544654538+544173517+543684930+543304930+542622401+540692927+536791158
2328+531055726+524162381+516465467+507758872+497936934+487369057+476382926
2318+465054906+453694807+442843169+432612578+422463310+411760083+400360767
2308+388628089+377049032+365971229+355618063+346127630+337466746+329434116
2298+321865557+314767422+308202264+302146960+296515316+291236962+286278337
2288+281652627+277442618+273783590+270796814+268505985+266785691+265405431
2278+264176953+263069569+262137964+261358320+260635040+259953741+259364294
2268+258802715+258135637+257399689+256786404+256380355+256075274+255711475
2258+255191522+254526085+253830620+253247364+252857872+252627781+252413873
2248+252119247+251824621+251624755+251426333+251096541+250681928+250310867
2238+250021112+249784277+249577773+249404955+249326450+249428560+249694727
2228+249959682+250052960+249977595+249891704+249898751+249945212+249980093
2218+250094550+250391977+250804271+251147926+251331878+251439197+251609999
2208+251907747+252313083+252774639+253232876+253651147+254041495+254422244
2198+254773037+255083934+255426055+255904401+256517257+257107597+257518410
2188+257762828+257952364+258127644+258274876+258418737+258574034+258686706
2178+258723140+258762071+258925040+259219470+259481694+259512115+259276868
2168+258934729+258661299+258504396+258407015+258286688+258072262+257759134
2158+257463527+257332388+257375013+257484046+257620716+257880942+258393615
2148+259204251+260251971+261520986+263227649+265683463+268946184+272807862
2138+277099230+281790867+286860255+292264324+298004930+304123216+310651049
2128+317561950+324767708+332206091+339903969+347877293+355958810+363776265
2118+370973460+377418398+383085958+387863058+391650210+394452446+396208245
2108+396781724+396217737+394822383+392997213+390990483+388695425+385838022
2098+382451709+378897039+375408742+371916126+368232244+364179210+359594661
2088+354369512+348517536+342162308+335377586+328131468+320559805+313133198
2078+306339305+300341096+295031250+290263446+286007887+282367522+279444174
2068+277224267+275574753+274235743+272918269+271565021+270358114+269414681
2058+268677554+268052351+267472128+266930462+266503002+266236370+266124840
2048+266250698+266740087+267603678+268789246+270276594+272079461+274324989
2038+277232225+280842384+284921200+289178026+293426376+297593992+301685708
2028+305655669+309356929+312675193+315571277+318039759+320169136+322005296
2018+323213809+323242642+321984564+319933799+317595350+315038978+312094327
2008+308760577+305242269+301687028+298128433+294656728+291419646+288452158
1998+285722664+283403520+281830672+280947099+280010516+278314666+276070137
1988+274037340+272593437+271632946+270975574+270458458+269924553+269374500
1978+268946434+268701962+268566416+268436455+268330687+268484628+269105353
1968+269891795+270123991+269524159+268653771+268157887+268087804+268227079
1958+268586953+269196597+269786687+270073534+270148738+270353975+270885953
1948+271703404+272835500+274442907+276156528+276791509+275663570+273748566
1938+272530115+272435981+272946138+273495263+273875994+274155722+274481785
1928+275037315+276182364+278137423+280341683+281966682+283171663+284524232
1918+285393371+284694070+283040149+282259863+283236037+285301021+287133845
1908+287915755+287856126+287710928+287959218+288589345+289419857+290383684
1898+291540134+292775677+293700216+294347847+295488649+297289179+298369711
1888+297517378+295532469+293913428+293050391+292588568+292320848+292172009
1878+292011271+291766192+291590341+292156701+294553530+298996270+303307228
1868+303985832+300371855+295534628+292289803+291043714+290836015+290807361
1858+290645391+290392301+290194076+290152665+290442973+291394578+293311831
1848+296465768+300864974+305020207+305846686+302498341+298160602+295775852
1838+295476534+295853037+296241387+297731233+301591787+306725193+309856007
1828+309707454+308286514+306788782+304482947+301580047+299699210+299550479
1818+300277400+300921569+301679142+303399793+306045268+308157480+308401096
1808+307264807+306452102+307307664+310139446+314003640+316953072+317601238
1798+316807303+317041925+320173275+325564641+329295483+327635924+322546160
1788+318847540+318425576+320008308+322006902+324067087+325910027+326854157
1778+327429027+329726975+335375480+343374889+349426588+349716914+345668555
1768+340785081+337091064+336073568+338424364+342267719+344503505+344916441
1758+345310501+345861320+346507131+349264868+355817644+364064022+369089518
1748+368996097+366576003+364919583+365208981+367208111+369555695+370686560
1738+371631938+375845408+384143171+390536438+388584912+381706019+375349435
1728+371011106+369103292+369688262+371852252+375433257+382249416+393550316
1718+405911604+411245233+406689803+398358854+391979467+389621534+391653243
1708+397424288+404572559+410142345+414597146+421475967+431296584+438606327
1698+439571224+436149156+429598664+422067467+417948560+418859075+423116579
1688+429694726+440101490+453516921+460907988+456039108+447006931+441887264
1678+442590847+447697953+453678321+457971401+462190616+467839906+471357180
1668+468991682+464811184+464966410+469974350+475216949+476970857+477437320
1658+481311112+491656714+509221491+528331639+534460559+529118615+527849582
1648+533579661+538216558+534383588+526778025+522905338+524800199+532043676
1638+543803473+556605174+562596924+559193412+554611254+555401443+561769161
1628+570671697+579723858+589055888+598458573+605830192+611361082+618871154
1618+630401110+641803032+646828993+647069789+648021555+651346170+655467325
1608+658492978+660110395+661412293+663263012+665385431+667249068+669129833
1598+671707508+675172719+679092901+682867920+686261262+689492813+692806651
1588+696186006+699478576+702486602+705004542+707224877+710295992+715988246
1578+724858596+733771481+737811562+738748555+742931586+752079701+761872056
1568+767763213+771758831+778318565+788905391+803922824+825668491+853749225
1558+874135757+876605667+872094770+868530644+866754504+866201900+866031759
1548+866260208+868501954+873695487+880776209+888063826+891441753+883656628
1538+868352580+857459157+854035840+853096492+848868499+842175877+837800224
1528+837214077+838798093+841961559+847668729+854105638+856594960+854941930
1518+852935200+850565563+845856691+840487878+838479149+842436157+852641520
1508+865391729+869635494+858655573+843995766+835437224+833662583+836495542
1498+840166293+840067733+836047564+833501005+836079894+841703920+844353963
1488+840385536+832789108+826462676+823628289+823853170+825700250+828586807
1478+833073296+839452611+846728025+851959240+850689101+842635488+834294048
1468+831068207+832895518+835746034+836168176+836034290+839691837+848421877
1458+857853109+859197971+851077772+841780426+836292642+834910669+835990327
1448+836655621+834710053+830848250+827219179+825008407+824818853+827409803
1438+832206886+835666387+834708269+831613745+829822190+829361794+828474616
1428+826871259+825858901+825932767+826550316+827926580+830717075+833308382
1418+832155644+827137105+821786134+818127944+815870926+814310889+813426138
1408+813650948+814741882+815192643+813966038+812384662+812407714+814280058
1398+816966856+819244785+819527546+816941020+813599705+812773904+814878052
1388+816927889+815848731+812630668+811306147+814076017+819561660+825101542
1378+829798496+834574525+839489865+842736189+843405194+843300640+844338690
1368+846520129+849257170+852606335+856091600+857879159+856801357+854209907
1358+852344628+851930622+851916562+851219081+850353813+850541083+851670770
1348+852477659+852587994+853070443+854817393+857368948+859465816+860262070
1338+859965322+859527977+859871187+861282207+863262388+865124384+866841573
1328+868904756+871464875+874214262+876989699+879895240+882873862+885662573
1318+888093302+890170543+892048454+894086229+896780235+900468328+904919061
1308+909217281+912484658+914924094+917569212+920780423+923587476+924828069
1298+924493423+923486276+922475417+921470767+920232244+918710175+917063925
1288+915370145+913441777+911196891+909205862+908241107+908005663+907187855
1278+905365755+903734778+903174181+902928960+902163750+901648972+902631212
1268+904769331+906484950+907120698+907626127+909007173+911071711+912966179
1258+914126412+914502236+914584738+915233689+916861811+918837995+920083441
1248+920130616+919362123+918465810+917814790+917379373+917140718+917125159
1238+916985635+916239266+915157396+914691362+915210708+915890419+915653762
1228+914423731+913089075+912293534+911634021+910331266+908440581+906840007
1218+906119902+906109340+906391886+906975464+908475551+911375740+914979832
1208+917898077+919883610+922131565+925333427+928530578+930563643+931859974
1198+933667516+935841890+936902564+936700735+937485927+941190221+946662375
1188+950718799+951702253+950814433+950206447+951103260+953332159+955682384
1178+957041591+957637801+958720027+960985967+963897788+966471039+968367006
1168+970063213+972025695+974049768+975623222+976843475+978180843+979403165
1158+979907881+980130407+981332033+983856539+986618701+988266664+988416965
1148+987894193+988139843+989976574+992525203+994238253+995148911+996775391
1138+999789697+1002981781+1004721024+1004845847+1004757921+1005424000
1130+1006071024+1005855706+1005738091+1007111500+1009523245+1011392092
1121+1012430784+1014061904+1017504062+1022014816+1025335719+1026228250
1113+1025938495+1026046190+1026019427+1024909223+1024228014+1026488815
1104+1031233228+1034886850+1035067840+1033229539+1032557893+1034815339
1095+1039237597+1043415989+1044931064+1043375309+1041304776+1042032160
1087+1046662955+1053128198+1057791108+1058806249+1057257346+1054957507
1078+1053294343+1053145326+1054591673+1057390019+1061458290+1065913948
1070+1068376864+1067109365+1063158066+1058688064+1054667110+1051614193
1061+1050538175+1051818306+1054770308+1058760360+1063524542+1067955292
1053+1070456746+1070987083+1070487434+1068852461+1065738168+1062339259
1044+1060238965+1059346078+1058371617+1057233152+1057584926+1060224478
1035+1063512909+1065789125+1067416676+1068375650+1067057266+1064099769
1027+1063612396+1067651049+1072562607+1073741823+1071574372+1069360317
1018+1068270525+1066597655+1062740776+1057807880+1054079678+1052436212
1010+1052356137+1053213839+1054922964+1057667641+1060918604+1062922551
1001+1062440031+1060720201+1060036351+1060931451+1062178324+1062654564
993+1062416622+1061941167+1061095954+1059581093+1057664573+1055791301
984+1054056341+1052749875+1052577878+1052931222+1051077433+1045626975
975+1039698849+1037546528+1039142106+1040416242+1038386745+1033877062
967+1029294869+1026049972+1023962382+1021802281+1018675142+1014913397
958+1011151938+1007792067+1005571161+1004902299+1004326929+1001575115+996974080
948+993476612+992721965+993138969+992261354+989566207+986294476+983795519
938+982854816+983153063+983053219+981337600+978895952+977651220+978118752
928+978721100+977866680+975989412+974866362+975513101+977289811+978822157
918+979064452+977531178+974499601+971268978+969417188+969309351+969670474
908+969067627+967732114+967567825+970037235+973929369+975640065+972900526
898+967935871+964834495+964682267+965140308+963927906+961307338+959158228
888+958580503+959013850+959348995+959234306+958818587+957900935+956292725
878+954432727+953047400+952777343+953756799+955006956+955290930+954748175
868+954128342+953178789+951978733+952285331+954997250+958005418+959043254
858+958964392+959673649+960778214+960442641+958205820+955327185+953186925
848+952391027+952769492+953347717+952838220+950751272+948199788+946951059
838+947254874+947537278+946887970+946714260+948628497+951989438+954485468
828+954359361+952179063+950730004+951969526+954233539+954250096+951686766
818+949485486+950190960+953941001+958934061+962671612+964174340+965341709
808+968230621+971530899+971921212+968827116+965428493+964194394+963980861
798+963047436+962736628+965469743+970569856+974732975+975655837+973325809
788+969400131+966243303+965146374+965385244+966165369+967898045+970486212
778+972762143+974250598+975038645+974343519+971916359+969414690+968214635
768+967678374+966980108+966659522+967147110+967519866+966851360+965742156
758+965782764+967619067+969794298+970499415+970206378+970605183+971373604
748+970656711+968382778+966519569+966614560+968758317+972312024+976295010
738+979075229+979189917+977133372+975303492+975476132+976732140+976795444
728+975287220+974004449+974285639+975519666+976045364+974624067+972107126
718+971482084+973894470+976177966+974874855+971136733+968432308+967518295
708+967152890+967540205+969650634+972447338+973124337+969621373+962425748
698+954663318+950300796+951161139+954841881+956905206+954696647+948802635
688+942250038+937778822+935679456+935038213+935445939+936442881+936436316
678+934368994+932407011+933556610+937263687+940130974+939545113+934117921
668+924246775+915573401+913846577+917782603+922804567+925180556+924560652
658+923965013+924659069+923550150+918512200+912101768+906850998+903092893
648+901357932+901781074+902666254+902760888+902016518+900406951+898684124
638+898751709+900358707+899423213+893308102+885055801+878783966+875693153
628+876882932+884023603+894376198+899301958+893464755+882294638+875158606
618+876365085+882763812+886664868+883465861+876107731+870765609+869584252
608+868456706+864385438+861374914+863602600+868306476+869658261+866391811
##END=
