##TITLE=<SNM>
##JCAMP-DX=4.24
##DATA TYPE=INFRARED SPECTRUM
##DATE=2/5/2025
##SAMPLING PROCEDURE=Instrument type and / or accessory
##ORIGIN=Admin
##XUNITS=1/CM
##YUNITS=ABSORBANCE
##RESOLUTION=4
##FIRSTX=4497.3318
##LASTX=599.83466
##DELTAX=-1.4281778
##MAXY=1.8456064
##MINY=0.35477191
##XFACTOR=1
##YFACTOR=1.7188549e-09
##NPOINTS=2730
##FIRSTY=0.40097636
##XYDATA=(X++(Y..Y))
4497+233281092+233776123+234568959+235199196+235213274+234436875+233225037
4487+232343670+232428577+233405253+234381201+234386853+233300789+231826290
4477+230729094+230369425+230817052+232050234+233848355+235489892+235871166
4467+234554551+232704172+232184399+233560172+235601310+236869515+237088881
4457+236662181+235761621+234528474+233482583+233125011+233477346+234227305
4447+234948620+235202490+234921312+234544686+234388570+234292099+234163239
4437+234227912+234388171+233982121+232619421+230875743+229805543+229897749
4427+230725921+231546551+231979250+232104573+232236917+232709235+233604958
4417+234669540+235538024+235918014+235760477+235459585+235418839+235313786
4407+234509332+233237139+232458399+232560332+233002879+233157001+232917400
4397+232568828+232304832+231918115+231181282+230466798+230458406+231214641
4387+231979909+232023775+231409456+230802609+230544908+230153821+229029941
4377+227471888+226449508+226383067+226689733+226747088+226798029+227396067
4367+228370524+228929638+228573714+227459301+226136739+225384735+225873142
4357+227406228+228831364+229264652+229065502+229123257+229598348+229815773
4347+229175602+227758962+226145790+224944858+224431327+224471760+224750511
4337+224936761+224719059+224099590+223545955+223390325+223408131+223479497
4327+224108554+225504041+226708579+226613200+225468809+224470772+224060665
4317+223559722+222545369+221667349+221721913+222620618+223701325+224543004
4307+225105048+225524622+226078274+226954716+227880556+228310325+228068037
4297+227438564+226670209+225857867+225303938+225444518+226267731+227245084
4287+227893629+228054166+227775745+227325344+227024729+226764253+226205417
4277+225644431+225805817+226618073+227212193+227338746+227647978+228253975
4267+228270290+227279969+226137519+225678102+225641483+225516386+225484136
4257+225793229+226109483+226162938+226203544+226371381+226441203+226388841
4247+226485780+226774795+226963958+226812524+226404150+226100086+226243163
4237+226785892+227281200+227371603+227135609+226824504+226504558+226155395
4227+225887724+225849354+226112881+226780898+227915060+229224808+230157687
4217+230442489+230285559+229995261+229663437+229261860+228890540+228738932
4207+228746492+228572101+228084023+227611619+227539821+227909945+228516913
4197+229155368+229585570+229453555+228640623+227691758+227408395+227850959
4187+228230481+227936438+227180307+226487687+226077858+225939843+226116176
4177+226664366+227471923+228287230+228958229+229439875+229555921+229136815
4167+228439653+228064379+228266979+228528582+228151505+227278755+226859736
4157+227433137+228469319+229191120+229484313+229660611+229791100+229623923
4147+228990323+228173524+227763435+227985593+228450368+228745972+228933227
4137+229279442+229847225+230473976+230901317+230931504+230649216+230422290
4127+230500452+230628392+230205888+228925182+227256059+226264229+226782320
4117+228540164+230248766+230854278+230534262+230129374+230060835+230247501
4107+230547959+230820087+230904057+230755293+230309937+229407608+228253992
4097+227551143+227655988+228009069+227932520+227570752+227480090+227737340
4087+228049190+228381187+228815655+229102225+228963465+228546839+228162012
4077+227886711+227707900+227743010+228091964+228648859+229165961+229419276
4067+229291613+228824723+228289276+228032892+228101899+228192701+228129554
4057+228081318+228067257+227692486+226779008+225908270+225851781+226677023
4047+227829720+228854770+229572063+229740125+229155645+228090386+227187399
4037+226848189+226945180+227162275+227432669+227955250+228828433+229761434
4027+230255702+230133795+229821148+229930675+230529112+231021265+230974191
4017+230783728+231055855+231638393+231818349+231268806+230393005+229844745
4007+229902222+230317045+230795345+231353505+231921426+232070936+231611519
3997+230929631+230339169+229705604+229015290+228698568+229104132+230067059
3987+231165348+232164772+233011011+233466857+233155770+232222960+231538628
3977+231809298+232795077+233663180+233859400+233490316+233029910+232758476
3967+232575156+232486799+232976629+234416832+236262755+237339596+237066827
3957+236036471+235256846+235221857+235890030+237122535+238621828+239675036
3947+239666436+238813401+237823374+237103983+236696095+236511267+236362971
3937+236196141+236383188+237399032+239106299+240603269+241039366+240530066
3927+239830389+239270633+238643553+238108019+238391105+239815391+241740586
3917+243036099+242844006+241208347+239164435+237886815+237802776+238739799
3907+240661959+243716097+247496387+250711842+252088569+251434145+249524937
3897+247379682+245879765+245643684+246554006+247376908+247120610+246853494
3887+248033793+249983366+250913939+251001533+251406803+251177969+248866161
3878+245897884+244958000+246781869+250034722+253012883+254530589+254157361
3868+252843746+251926315+251502615+250862323+250056846+249953318+251038360
3858+253363675+257216405+262369105+265731954+263905641+259246498+255378007
3848+253413037+253160260+254206828+256180865+258752230+261496165+263588936
3838+264058861+262981292+261497708+260328453+259409896+258697822+258437606
3828+258541030+258723483+259707268+262823286+267343877+269860678+269229974
3818+268070498+267441164+265856652+263183632+261363127+261863099+264617177
3808+268015119+270203997+271555428+273685251+276126716+276747832+275713038
3798+274963634+274786209+274421391+274215444+275116976+277163973+279766825
3788+282817096+286551422+290670333+294674723+298838384+303708137+308995123
3778+314122526+319530674+326325761+335238569+346330268+358831412+371296561
3768+382789751+393074067+401617253+408400342+414626380+420759449+425257465
3758+427154745+428489357+432007507+438569877+446701309+453262950+457105919
3748+460944380+467077345+474381143+479223848+481810471+486606016+496283797
3738+510504190+526358837+539198948+545746754+546980733+546839563+548590506
3728+553118380+558842504+562765784+563406614+562282075+561844348+563252128
3718+566064082+569247738+572147390+574000977+573043061+568359315+561869385
3708+556194017+552873768+552560324+554935244+558530030+561418758+562555989
3698+562514342+562949745+565159915+569048554+573435222+576805302+577940556
3688+577223991+576283448+575988521+576260111+576898271+578188045+580807854
3678+584516033+586821218+585351609+582304962+581122859+581441228+580481336
3668+577394914+573593973+570096665+567300246+565570941+565198268+566095950
3658+567318868+567493154+566785848+567128283+569669410+572856117+573084500
3648+569386827+564585492+560246192+556439911+553751130+552607866+552239909
3638+551835471+551533678+551451285+551628727+553242905+557440411+561987564
3628+562371195+558825963+555177774+553760181+555303652+559644581+565204961
3618+569524634+571592628+572038192+571599251+570919722+570665228+570900268
3608+571181949+571459052+571831518+572059553+572312487+573360008+575787811
3598+579769869+585068576+590560156+594662786+596911447+597867560+597695771
3588+596585761+595798872+596158333+596626333+595958594+594858780+595566328
3578+599034301+603329110+606009222+607601518+610613142+615441630+619277594
3568+619135488+615318596+611166101+609362830+609901848+611051459+611374301
3558+610811633+609815572+608473019+606729462+604634628+602680582+602098772
3548+603756538+606355576+607550196+607168195+607061321+608057243+609075913
3538+608914457+607201901+604126333+600905608+599675547+601186213+603458108
3528+604166697+603282920+601906384+600219351+597923459+595196048+592542360
3518+590560850+589856908+590670845+592598467+594700584+595907550+595640815
3508+594199571+592365854+590614321+589048380+588032831+588381334+590376091
3498+592825324+593923820+593110368+591374232+589722638+587968609+585445306
3488+582506712+580480226+580131376+580650351+580450577+579039295+577397098
3478+576584618+576793650+577469747+577778649+577132479+575573680+573662148
3468+572084035+571181498+570517504+569337725+567825151+567152834+567799802
3458+568836608+569276624+568993972+568125869+566820733+565845929+566172170
3448+567375010+567653257+565947464+562916178+559828300+557676352+556925180
3438+557023316+556703005+555678787+555061225+555529190+556513600+557243341
3428+557032297+555072148+551712403+549021159+548472570+549062633+548963076
3418+548049373+547567016+548298249+549840992+550936263+550215087+547366098
3408+543942720+542163099+542631516+543893306+544413009+544125919+543550593
3398+542727571+541761887+541025314+540194108+538413516+536023754+534808327
3388+535814929+537890032+539067523+538909951+538592518+538976253+539659216
3378+539753155+538733410+536715906+534562640+533329702+533074236+532791654
3368+531957049+531368512+531893348+533083565+533755500+533577122+533349675
3358+533738300+534339043+534263136+533266243+532128492+531908744+532676492
3348+533347040+533155172+532590077+532278088+532091630+531949906+532080881
3338+532188136+531710149+530943858+530838440+531633652+532256658+531315803
3328+528791876+526268712+525111681+525167788+525590951+525929779+525936680
3318+525480262+525141191+525756499+527071032+527771992+527151136+525945800
3308+525249140+525372105+526016853+526877951+527681139+528125732+528256117
3298+528575665+529380309+530293839+530771791+530720885+530205378+529047376
3288+527444364+526293645+526122687+526453887+526804089+527457160+528720476
3278+530191611+531168183+531349266+531101118+531105453+531522408+531809880
3268+531586214+531080659+530424709+529185737+527064791+524722328+523502670
3258+524189655+526071677+527462292+527414334+526541446+525764682+525031889
3248+523964810+523014454+522997427+523843683+524562294+524295316+523015043
3238+521344412+519896094+518768608+517859899+517433372+517757081+518529684
3228+519285572+519811275+519801946+518993627+517774767+516692603+515536682
3218+513928157+512402406+511837206+512206377+512757047+512929114+512329445
3208+510518060+507776535+505479500+504813147+505572954+506697389+507417282
3198+507504183+506966031+505989979+504960351+504162504+503413378+502202701
3188+500339856+498403183+497166395+496583406+495979750+495160403+494541905
3178+494156782+493377002+491813973+489848484+488101494+486783770+485733821
3168+484911561+484568363+484855211+485469062+485822421+485543202+484718653
3158+483675779+482697681+481888494+481071367+479881496+478131455+476057669
3148+474201100+473067788+472706836+472609914+472342138+472081922+472078663
3138+471998628+471467863+470769331+470321790+470023568+469564064+468841916
3128+467870511+466715006+465580064+464726283+464361239+464536322+464956122
3118+465079572+464593054+463621822+462402546+460957349+459266224+457666368
3108+456726588+456547066+456532120+456100669+455334655+454771571+454814536
3098+455298453+455423949+454423484+452525198+450857792+450286489+450692764
3088+451356689+451710117+451683277+451517174+451336958+450921251+449927791
3078+448400757+446935794+446159204+446132121+446455311+446779124+446946371
3068+446838560+446349269+445465457+444341924+443291455+442547565+442074190
3058+441731062+441394661+440857376+440054813+439338040+438960027+438555416
3048+437792523+437170246+437337284+437915869+437814994+436624708+435057171
3038+434041934+433903538+434313524+434574711+434030248+432589663+430852418
3028+429555638+429004587+428983816+428948549+428364659+427191399+426024727
3018+425455020+425342389+425079815+424520511+424121969+424129598+424239870
3008+424152762+423846911+423256640+422277536+421071750+419896236+418822429
2998+417942606+417510011+417597882+417851371+417716443+416894634+415621157
2988+414419462+413522300+412746092+411963363+411275408+410677542+410050444
2978+409546796+409524048+409967289+410286976+409871303+408734801+407452309
2968+406467241+405686489+404812144+403816292+402962580+402517189+402484246
2958+402518299+402195838+401468454+400648518+399928624+399218649+398458218
2948+397768909+397306562+397163866+397273653+397300008+396917105+396255122
2938+395719918+395406646+395074302+394643545+394339775+394298544+394317478
2928+394093846+393554308+392860179+392189458+391575814+390900307+390056271
2918+389135355+388300854+387502521+386610977+385793988+385354631+385251120
2908+385162590+384924117+384570863+384125715+383624217+383175462+382783786
2898+382272197+381560592+380899198+380639398+380766073+380764374+380121706
2888+379008541+378167972+377984739+378053469+377923049+377753097+377778099
2878+377696921+377166467+376399032+375770963+375305355+374915274+374690082
2868+374619723+374424492+373919838+373270131+372693488+372135050+371410579
2858+370561514+369869536+369522974+369437218+369429693+369367934+369113301
2848+368604174+368046464+367687801+367403311+366904830+366312825+366034612
2838+366087668+366013528+365510851+364788912+364200028+363761538+363195749
2828+362373385+361504901+360809628+360227263+359612164+358998174+358525561
2818+358279043+358243291+358249741+358015047+357401057+356586288+355898471
2808+355544662+355512689+355618038+355626187+355413652+355023467+354540556
2798+353954238+353208163+352349458+351545438+350959849+350619321+350355395
2788+349899289+349153284+348367088+347884454+347715335+347550827+347196221
2778+346745490+346304746+345819442+345243458+344617747+343900836+343002183
2768+342095762+341580046+341538538+341543011+341181435+340485885+339714114
2758+339062812+338695514+338672974+338759042+338596268+338115646+337540841
2748+337034349+336564927+336068908+335544974+334977000+334297610+333505380
2738+332768703+332301501+332103842+331927926+331576163+331126819+330751198
2728+330429535+330008036+329449772+328887971+328479338+328251268+328047436
2718+327685652+327192615+326719968+326261435+325701125+325069970+324487432
2708+323958816+323442823+322976626+322614495+322373317+322253126+322188627
2698+322016942+321595131+320932802+320194356+319601311+319288733+319175200
2688+318991794+318550634+317985365+317602913+317524231+317593966+317551626
2678+317197054+316559137+315936616+315557909+315268149+314804726+314232209
2668+313829125+313691527+313653382+313532151+313345347+313225642+313131216
2658+312826545+312226425+311537741+311007011+310738264+310726474+310844064
2648+310819443+310432795+309802680+309337281+309240705+309188447+308765909
2638+308094667+307656142+307625141+307731703+307665644+307342420+306855798
2628+306353641+305962832+305775958+305824922+305980517+305944384+305495006
2618+304744146+304032921+303565649+303265763+302994451+302740234+302546459
2608+302439273+302439516+302465801+302306217+301886834+301400178+300993799
2598+300588391+300160373+299898597+299908029+300028635+300079437+300037755
2588+299887084+299543540+299045405+298608059+298378602+298275369+298135482
2578+297913584+297679376+297480400+297274939+297013440+296722466+296444461
2568+296158237+295848329+295589535+295463797+295446285+295446285+295402349
2558+295284933+295069138+294766755+294466453+294293380+294280411+294275972
2548+294057612+293597206+293125634+292848357+292722861+292633811+292608289
2538+292690438+292779489+292773143+292717521+292671817+292583911+292411254
2528+292214150+292038477+291834334+291575505+291354890+291264765+291261089
2518+291251484+291242745+291286750+291344938+291324305+291210842+291091657
2508+291061835+291117804+291117492+290918273+290606943+290447169+290490706
2498+290456896+290178423+289900834+289881987+289968298+289863053+289572928
2488+289319405+289210624+289212704+289286722+289391967+289440948+289358660
2478+289172600+288985952+288847417+288713876+288565112+288439495+288310688
2468+288089397+287811201+287644370+287629667+287580929+287339126+286995131
2458+286776857+286825682+287138399+287587049+287921578+287912666+287592563
2448+287219387+286958963+286770927+286620828+286586671+286696493+286838755
2438+286902127+286886696+286835114+286748335+286621105+286517872+286542995
2428+286696164+286809713+286731638+286535297+286428562+286501262+286676155
2418+286839137+286914316+286889349+286844616+286886054+287017289+287146010
2408+287216474+287266963+287340270+287394141+287364267+287304605+287357540
2398+287547535+287717781+287741015+287696316+287763000+288006709+288306266
2388+288410505+288002462+286768933+284495010+281111770+276649454+271162243
2378+264728819+257555234+250049911+242693318+235785479+229375133+223441057
2368+218079966+213536749+210056206+207686366+206400146+206473071+208492345
2358+212929954+219858044+229122147+240583156+253474398+265366268+272892259
2348+273942883+269321643+262750985+258132778+256186049+255243027+254240811
2338+253294425+252636534+252072115+251217328+250047154+249108779+249041783
2328+249951064+251360786+252704882+253830496+255066122+256822978+259187426
2318+261854152+264342345+266357180+268030342+269729704+271667954+273814388
2308+276034077+278114850+279789989+280921498+281609454+282053648+282381033
2298+282646052+282919428+283292118+283780040+284278539+284665863+284938302
2288+285199992+285517234+285821368+285973305+285886960+285561759+285055857
2278+284493831+284046168+283805580+283700127+283591190+283428971+283243761
2268+283028521+282763503+282544327+282513343+282643937+282762064+282782939
2258+282758735+282724977+282674019+282640469+282674626+282754903+282799914
2248+282757469+282655207+282561440+282512026+282506165+282544327+282602030
2238+282617756+282582732+282560816+282566416+282554279+282578137+282782696
2228+283159566+283468589+283503752+283330402+283169448+283144758+283217095
2218+283272474+283215014+283057425+282931166+282931721+283002774+283039323
2208+283018413+282977304+282945418+282916983+282857997+282782332+282798093
2198+282983043+283252968+283440657+283456244+283334580+283185383+283112266
2188+283142088+283228365+283312907+283361229+283361160+283309023+283205408
2178+283092639+283071226+283199409+283389820+283491909+283467618+283410679
2168+283399530+283410557+283401038+283408875+283507098+283693278+283880829
2158+283974561+283934266+283803464+283687331+283686395+283848198+284138912
2148+284415062+284508846+284417663+284334334+284431360+284677930+284893118
2138+284940608+284870838+284866660+285039611+285331955+285611313+285772734
2128+285777311+285700970+285699964+285852803+286102581+286368484+286599571
2118+286741434+286785093+286816909+286924979+287105352+287307501+287506044
2108+287708921+287939783+288197623+288430323+288604713+288771388+288981791
2098+289200897+289388673+289598277+289903088+290268063+290568573+290736219
2088+290842902+291003335+291216564+291364322+291351180+291191458+291000665
2078+290955897+291179841+291590624+291947727+292104814+292150379+292275390
2068+292557556+292887126+293097164+293160103+293193150+293272075+293382486
2058+293543699+293778115+293953477+293892515+293659451+293525910+293648111
2048+293951015+294304442+294660228+295020590+295365973+295627506+295730982
2038+295701507+295683995+295794615+295983361+296111180+296127721+296111943
2028+296171380+296373338+296740498+297213249+297625939+297835526+297885981
2018+297941014+298058915+298149179+298149353+298122617+298175499+298347878
2008+298587184+298808978+298972029+299076372+299123914+299130780+299130849
1998+299154083+299287693+299687137+300346970+300945008+301136945+300937900
1988+300624351+300407065+300350784+300443926+300614710+300763301+300844203
1978+300890496+300946569+301007011+301046369+301113330+301356485+301874593
1968+302519550+302954017+303010298+302884768+302864863+303026145+303298949
1958+303632507+303941062+304070372+303994707+303932913+304121902+304537679
1948+304996420+305517892+306323368+307318770+307898916+307642584+306909097
1938+306346463+306201236+306336927+306566523+306787346+306968915+307134740
1928+307366555+307812362+308534926+309318278+309899637+310386952+310978159
1918+311369281+311083439+310329111+309846720+310062168+310784280+311482605
1908+311746219+311608413+311419215+311412661+311548768+311743549+312057167
1898+312596671+313290661+313871708+314248646+314726079+315494554+316129351
1888+316100361+315570740+315136446+315114981+315423189+315827939+316164097
1878+316446333+316784051+317245948+317996704+319399179+321559761+323689134
1868+324434965+323433564+321815018+320791874+320647029+320997647+321419943
1858+321724788+321945819+322231107+322663216+323229629+323973172+325037789
1848+326615036+328766636+330878324+331579249+330392916+328689862+327875786
1838+328063492+328574526+329038504+329869918+331624502+333971092+335667176
1828+336042658+335656079+335015041+334118919+333272386+333044107+333452671
1818+333968629+334286097+334720842+335729906+337205133+338419901+338787165
1808+338520326+338374856+339020749+340637145+342702262+344250345+344745844
1798+344665289+345016255+346511975+348961000+350909879+350806611+349211610
1788+348061723+348306022+349469434+350777656+352044301+353259693+354147701
1778+354755518+355871769+358305536+361791679+364591427+365091746+363785500
1768+362042532+360674665+360373843+361569608+363514846+364818457+365345373
1758+365932072+366668021+367402167+368921919+371967006+375584436+377628884
1748+377435318+376402985+375914872+376359084+377496904+378738616+379481362
1738+380165295+382248201+386115686+389261302+388890778+386312651+383955624
1728+382595074+382324767+382998922+384140903+385766038+388856344+394073560
1718+399903622+402843985+401644509+398782482+396597383+395877317+396752632
1708+399082611+402142782+404948668+407690747+411628662+416730854+420564460
1698+421615970+420838686+418748567+416134029+414904940+415895209+418362682
1688+421751106+426709216+433043446+437146145+436230153+433258200+431730022
1678+432714050+435604963+438687743+440812920+442945241+446047891+448623660
1668+448633647+447349768+447492672+449602278+451920675+452856849+453108465
1658+454562781+458675363+465909842+473897573+476727108+474835029+474543743
1648+477368354+480042675+479136081+476135588+474374901+475135332+478404883
1638+483737434+489463153+492185675+490833482+488867889+489091555+491413697
1628+494257068+496661741+499030870+501484819+503188532+504255854+506161075
1618+509437006+512310755+512866557+512225553+512450468+513975283+516031140
1608+517793111+519095196+520336734+521884609+523645470+525239743+526542764
1598+527856015+529485103+531322738+532991705+534352984+535682775+537293589
1588+539171831+541044664+542622500+543755638+544610460+545822939+548230664
1578+552037360+555772172+557053763+556327627+556410748+558464005+561111936
1568+562540072+562970031+563667732+565548193+569645656+576874829+585339195
1558+588893374+586664825+584019806+583101699+583677406+585409520+587892736
1548+590907619+594995754+600875508+608500692+617030597+624308664+626682024
1538+624727423+623796763+626458358+631263196+635268522+637888018+641283793
1528+646963878+654413457+662308635+670168166+677714009+683637456+687310161
1518+689940615+692378405+694627968+697225757+701171647+707000287+714572415
1508+722449284+726574037+724581361+721086341+720311311+722602486+726703452
1498+730760377+732964444+733304625+733916257+736493101+740534353+743859525
1488+744984029+744705088+744583580+745487192+747431944+749785677+752120337
1478+754848511+758415313+762350314+765490104+766814902+766485471+765976483
1468+766579446+768402552+770405562+771389555+771719679+773131586+776706155
1458+781114150+782602901+780132030+777179981+775941459+776195918+776935786
1448+777053271+775944788+774209345+773006888+772814708+773497428+775153529
1438+777930459+780759405+781684100+780566670+779000798+778033589+777697500
1428+777760542+778155652+778706738+779243398+780233980+782325277+784683379
1418+785000742+782737309+779906491+778065283+777231372+776754287+776327205
1408+776278311+776829189+777414189+777476816+777590695+778606799+780319840
1398+782002088+783550067+784934163+785418322+784761263+784086519+784501394
1388+785829452+787116036+788278546+790502102+794598420+799809464+804591207
1378+808346929+811757684+815250346+818101901+819788588+821187803+823375918
1368+826327481+829435091+832423342+835033546+836543796+836572162+835848870
1358+835401260+835456119+835499812+835171213+834765840+834742121+835111777
1348+835545308+835811072+835987647+836357095+837021436+837644720+837776284
1338+837463013+837328605+837908473+839137909+840580540+841938073+843184432
1328+844312612+845275174+846249319+847679396+849846290+852496163+855065725
1318+857201201+858912231+860377887+861843335+863641681+866121291+869369481
1308+872808186+875349174+876585823+877538399+879354292+881776616+883687732
1298+884535028+884545085+884178203+883879426+883714017+883102524+881565364
1288+879540230+877716916+875952206+873703684+871225669+869406932+868388332
1278+867155913+864959544+862533406+861203198+861221924+861753938+862229012
1268+862827189+863733229+864729289+865507648+865943884+866145565+866396904
1258+866941262+867945646+869602302+871747349+873488756+873916669+873183183
1248+872432010+872813457+874616520+877030590+878985122+880386209+881991197
1238+884231120+886950347+889819171+892174152+893233394+893210091+893434382
1228+894992140+897806729+900982513+903627879+905530742+907325482+909814385
1218+912830378+915121831+915857676+915914199+917053753+919918763+923321473
1208+925748859+927181156+928943924+932064433+936172958+939797740+941456685
1198+940734017+938832472+937961595+939610137+943416834+947705818+950833956
1188+952222144+952588540+953315300+955241465+957869701+960069468+961615990
1178+963314398+965609180+967995925+969971470+971699423+973408511+974861406
1168+975835065+976674733+978004594+980025011+982286087+984271620+986066499
1158+988014650+989848921+990817518+990730410+990455768+991156173+993348103
1148+996987657+1001640749+1005782216+1007321526+1006308821+1005372266
1140+1006449886+1008825604+1010895263+1011852347+1011163801+1009057662
1131+1007577511+1008846202+1012321387+1015362694+1016233017+1015091798
1123+1012730575+1010094295+1008712973+1010059271+1014116058+1019397011
1114+1024381198+1028014649+1029328836+1028498600+1027845841+1029495354
1105+1032496367+1034034983+1033111675+1031254932+1030185495+1030181056
1097+1030422477+1030529005+1031578676+1034859185+1039657226+1043432505
1088+1044613464+1044429676+1045089231+1046541987+1046415208+1044457209
1080+1044122507+1047346770+1051493023+1053155159+1052654771+1052858948
1071+1054988737+1057413072+1058168613+1057320623+1056453838+1057253073
1063+1061101937+1067854925+1073661164+1073741823+1069000374+1064956626
1054+1064702652+1066687630+1067985796+1067257442+1065547244+1065034094
1045+1066017949+1066339543+1064989222+1063435071+1062280051+1060452923
1037+1058173746+1057173038+1058217022+1060293756+1061963104+1063264044
1028+1065111285+1066986545+1067459053+1066700114+1066087788+1066043055
1020+1065882847+1065005382+1063242753+1061053389+1059938456+1061320193
1011+1064768400+1068573501+1071592476+1073095722+1071796793+1067283449
1003+1061983841+1058954254+1058037465+1056788956+1054490499+1052738203
994+1052790496+1054295129+1055734430+1055459442+1053633978+1052190793
985+1051859073+1050920299+1047608720+1042917899+1039443200+1038112576
977+1037972342+1038404417+1039993592+1042929274+1045734639+1046300289
968+1043501096+1037852152+1031643453+1027776071+1026813925+1026186480
960+1023664633+1020216011+1017834329+1016316172+1013671430+1008737733
951+1002500945+996905126+992904307+989919038+987154661+984963772+983985743
941+983617266+982923241+982126850+981726540+981128362+979659308+977853263
931+976499198+975695178+975285990+974922368+973869714+972053058+970741160
921+971153677+973193375+975807739+977573698+977217149+974759941+971764962
911+969650223+968504219+967949388+967896540+968261203+969216345+970870574
901+972083435+971472982+969670336+968523153+968439165+968310583+967226304
891+964757930+960890132+957106947+955794771+957664344+961168866+964028119
881+964524138+962369104+959282994+957350864+956271856+954051353+950266156
871+947354679+948002098+951761842+955242090+955580051+953119999+950445158
861+949995259+952183860+954768264+955094435+953416071+952267986+952860407
851+954392227+955917458+956740134+956018298+953818254+951730078+951257500
841+952197107+953103770+952815952+951296408+949169046+946953605+945404031
831+945799210+948221603+950448903+950233212+947825314+945264977+944735321
821+947514054+952685358+957358354+959232019+958164455+955340017+952532364
811+951589081+953125339+956292732+959705152+961861434+961987588+960772994
801+959566583+959064114+958501237+957177757+956090357+956168935+956111649
791+954001418+950461317+948377163+949607571+953370713+957847646+962180947
781+966255697+969147823+969023957+965161708+959475313+955265323+954416223
771+956261731+959039493+961709271+963770053+964150875+962166175+959152470
761+957487769+958157866+960062255+961880783+963514553+964823955+964170225
751+960215596+954978684+952504622+954705568+959929373+964494385+965229536
741+962166313+958714015+958211615+960657311+963046206+963098846+962178242
731+962974980+965313246+966904572+967623772+969304147+972045776+974281052
721+974992484+973033514+967213266+959589469+954788515+954610206+956165814
711+956476589+956682986+959347147+963439928+964875623+961989946+957429095
701+953997811+951989045+950834719+950571937+951116018+952105906+953436738
691+954717635+954775060+952410509+947882046+942841405+938383267+934521295
681+931978365+931451692+931546776+930237860+927187814+923400606+917724059
671+906885709+891462581+881709412+887631819+900338978+906121360+903977423
661+900347232+899755157+902347537+906966992+911613842+913202323+911142166
651+908742243+908315440+907786269+903777545+896194736+888431261+884404227
641+886406682+893893227+902676898+907417445+907363973+907669339+911754144
631+915010241+910272953+897542768+883122636+872373545+867591594+869596962
621+876762329+883201492+882037941+871453982+856807826+845664458+842448726
611+847990102+860043324+873293247+881744436+884097891+884668604+887566071
601+892529244+896725918
##END=
