##TITLE=<SNM>
##JCAMP-DX=4.24
##DATA TYPE=INFRARED SPECTRUM
##DATE=3/5/2025
##SAMPLING PROCEDURE=Instrument type and / or accessory
##ORIGIN=Admin
##XUNITS=1/CM
##YUNITS=ABSORBANCE
##RESOLUTION=4
##FIRSTX=4497.3318
##LASTX=599.83466
##DELTAX=-1.4281778
##MAXY=1.7060198
##MINY=0.17636861
##XFACTOR=1
##YFACTOR=1.5888547e-09
##NPOINTS=2730
##FIRSTY=0.19646692
##XYDATA=(X++(Y..Y))
4497+123653170+123526879+123608350+123508262+123264270+123354257+124041086
4487+124888851+125162893+124748257+124310138+124396496+124811985+125105055
4477+125267013+125605476+126163772+126563402+126378091+125574958+124575251
4467+123856807+123523315+123377591+123375134+123729634+124514525+125488000
4457+126425227+127238470+127600876+126960396+125317507+123567844+122691128
4447+122926135+123846425+124731826+124825902+123841970+122397776+121553771
4437+121795335+122639752+123159427+122784679+121708574+120543542+119676635
4427+119178934+119121340+119480351+119834345+119669188+118957928+118074618
4417+117340080+116908770+116818773+116958777+117149330+117230380+117016361
4407+116463842+115938137+115934151+116485178+117099764+117203257+116591981
4397+115676597+115164237+115279274+115551196+115475427+115000788+114404011
4387+114088479+114280393+114656313+114691783+114392129+114113210+113835202
4377+113273924+112461478+111669178+111098024+111003610+111693450+113079150
4367+114507410+115264512+115136608+114404143+113477504+112700078+112349761
4357+112549130+113170337+113967149+114718577+115202530+115281460+115113518
4347+115031756+115090306+114971808+114472878+113830953+113383803+113102737
4337+112711445+112150166+111690992+111655204+112108497+112754877+113192227
4327+113354476+113476472+113607453+113563393+113379929+113371883+113739541
4317+114469239+115488969+116555442+117174568+117049814+116523846+116205463
4307+116240060+116345119+116408818+116553698+116741879+116770343+116515537
4297+115927576+115114015+114553534+114764729+115662660+116580446+116944953
4287+116761255+116490487+116514843+116786952+117062860+117242665+117318125
4277+117307790+117381974+117698229+118104433+118354615+118491054+118682864
4267+118878351+118909263+118757143+118507673+118218345+118047289+118311061
4257+119080581+119912674+120317987+120281402+120082708+119900473+119804418
4247+119872994+120108292+120363586+120478698+120458572+120449709+120532606
4237+120610711+120565647+120373884+120019768+119540111+119212978+119449496
4227+120388617+121702909+122823562+123334224+123267721+123103803+123241020
4217+123357024+122781743+121667102+121086466+121649301+122712032+123300640
4207+123275290+123305367+124011384+125260261+126242496+126332126+125747364
4197+125155755+124878891+124771347+124640151+124475988+124356534+124323821
4187+124391666+124553127+124711793+124739413+124688657+124777903+125066125
4177+125322018+125365394+125420653+125960914+127192356+128734471+129829868
4167+129990982+129502594+129120183+129239178+129592543+129734366+129467012
4157+128805167+127945050+127310206+127269822+127724195+128161526+128172433
4147+127806069+127414205+127276697+127461370+127894012+128381378+128654144
4137+128584480+128345308+128247330+128468374+128988546+129698812+130466719
4127+131095204+131382685+131333044+131106993+130741810+130232461+129798590
4117+129676763+129825676+130135581+130642201+131298249+131832499+131994663
4107+131772523+131370849+131096995+131189599+131647563+132241854+132726500
4097+132995186+133023791+132811723+132467793+132152036+131870426+131591742
4087+131533660+131950228+132666412+133180244+133228384+133036302+132967154
4077+133040194+132985705+132780099+132741440+132961555+133134871+133114397
4067+133128156+133339201+133680477+134119328+134625479+134937251+134832183
4057+134579515+134626783+134907727+135002113+134900252+135020082+135536062
4047+136237259+136895643+137345832+137450741+137284525+137067514+136797403
4037+136240232+135357325+134537133+134349647+135061817+136313216+137326663
4027+137581769+137290368+137126140+137471965+138057168+138394449+138377989
4017+138258572+138141800+137819665+137185037+136617194+136726444+137676276
4007+138926513+139773959+140048197+140156754+140541781+141200203+141715348
3997+141716858+141222627+140548074+140073819+140089810+140585401+141207874
3987+141667227+142000062+142216829+142069998+141468654+140783654+140506771
3977+140814331+141483088+142099756+142436052+142608308+142743078+142709841
3967+142467574+142380231+142824737+143687105+144477979+144779144+144469933
3957+143728642+142954715+142612679+143099116+144586930+146630114+148079438
3947+148139067+147404783+147046306+147325365+147544589+147144978+146285311
3937+145578712+145746682+147090836+148924512+149872956+149253737+147934315
3927+147282721+147649957+148262770+148523813+148903363+150092648+151847020
3917+152966397+152364406+150264154+148049661+146930762+147176687+148718277
3907+151851137+156595710+161627671+164914967+165657917+164185128+160679593
3897+156083172+152865456+153118667+156289763+158986538+158568761+156952939
3887+157181326+158790752+159442974+159353915+160021255+160248085+158440331
3878+156624718+157582531+161096338+165244041+168736578+170334308+169072180
3868+166854621+166309989+166714186+165355496+162065049+159543099+159846345
3858+163532080+170758744+180080446+184891983+179538572+169795642+162406653
3848+159102157+159464169+162424660+166689183+171331155+175874296+179287058
3838+179921461+177788384+174985340+172891296+171291334+169897249+169102473
3828+169072574+169712248+172059268+177370513+183486681+185249699+182487640
3818+179758331+177653576+173675775+168634595+165847007+166995318+171487908
3808+176756199+180132479+182462205+186056912+189429046+188930651+185575304
3798+182773723+180555057+177654102+174948351+174177077+175475388+177700357
3788+180079790+182566720+185113879+187882766+191655853+196534352+200797993
3778+202840755+203569600+205263536+209569268+216612112+224480776+230581038
3768+234635594+238242267+242301850+247415488+254760210+264568434+274914143
3758+283705000+291643703+301472728+315260949+332307710+348046913+358616282
3748+366698008+376384855+386975569+394162731+398082592+403714264+414108779
3738+429103588+446149599+461112033+470433604+473807895+474197743+475092157
3728+478251379+483188251+488117694+491907043+494483932+495827354+496489105
3718+498242032+502927258+511532307+523586489+535728641+543524396+547309918
3708+550834792+555873289+562436214+570323992+578431978+584776532+588780650
3698+591703946+594844561+598722969+603436443+608915995+614069511+616270132
3688+614408039+611131960+609407619+610162743+612857914+616697795+622108358
3678+629670849+635580465+633577280+626809265+623433360+624368215+624616896
3668+622392040+620655770+620905389+622341771+624338766+627509018+632389355
3658+637730554+641411150+643998130+648822309+657946817+669172422+675476762
3648+672704386+665875598+660611302+657673939+655495713+653721741+653906236
3638+657147389+662472233+667950809+672784667+677919388+683748197+687296892
3628+685344427+681148237+679748806+682674840+689435353+697464071+701927588
3618+700936387+698120945+696780037+697945604+702853289+711925503+720859139
3608+723468628+720772781+719343264+721855292+724940536+724241946+719834326
3598+714767955+710825886+708721113+709566234+713682294+719606464+724835346
3588+726777532+724935059+721857392+720214570+720551522+721910062+723537279
3578+725209063+726237103+725597410+723814959+723712996+727734820+734484454
3568+738629025+736299017+729990625+724536508+721656391+720240380+719217292
3558+719092670+720634804+722931275+723877683+722975241+722137023+722537375
3548+722776791+721373609+719378303+719184504+722174838+727830031+733089600
3538+733425127+727462542+719594010+715483652+716995775+722149853+727614175
3528+731137060+732739967+733276346+732443755+729689686+726251583+724481737
3518+725382003+727862894+730019661+730764544+730344685+729124422+726308305
3508+721426279+716625584+714918987+716775116+719691847+720940095+720386835
3498+720434103+723440192+728649717+732128861+731102997+726892026+722744229
3488+721410148+724581000+731527958+738024596+739453437+735753860+730664831
3478+726741819+723972669+722068973+721659693+723076980+725354318+727058664
3468+727651689+727664894+727803546+728088129+728095107+728000796+728230458
3458+728000346+726151645+723734604+723592275+726572255+730098141+731469136
3448+731107574+731310676+733014797+735106740+736308545+736318974+735218157
3438+733173332+730688990+728441663+727392841+728459445+730896594+731844203
3428+729531601+726293149+725982831+729373742+733786539+735904592+734036984
3418+729416583+725391532+723970568+724187401+724430568+724752365+725881543
3408+727814350+730106244+732017219+732545569+731739613+730965320+730611786
3398+729509093+727918190+728038610+730461129+732799690+732424473+729742431
3388+727385038+726980109+728066296+729175591+728857846+726393012+723007128
3378+721732245+724232043+728349528+730617788+730493316+729644069+728442188
3368+726148269+723434040+722661922+725552168+731189955+736608809+739231653
3358+738541166+735864152+733269293+731918556+731254029+730363592+729490261
3348+729554410+730873785+732922137+734578614+734576289+732803366+730976949
3338+730976349+732730964+734296808+734167308+733020199+732386433+732554347
3328+733105056+734405824+736878086+739043857+738423297+735054970+732095098
3318+732092772+733767482+733758328+731265058+728809228+728375188+729405028
3308+730298317+730116148+729367514+729733803+732448482+736545710+739130290
3298+738529162+736502344+735632764+736053448+735842393+733741747+730836121
3288+729288584+730115848+732319133+733864794+733877774+733432555+733657190
3278+734355255+735323197+737378901+740876051+744402763+745987139+744821272
3268+741309191+736594028+732417495+730323677+730514174+731644102+732236527
3258+732292498+732828651+733929243+734354204+733589965+732996715+733810698
3248+735250119+735881258+735901516+736467530+737304473+737001658+735653172
3238+735077854+735819210+735865952+733519063+730036243+727786965+727431780
3228+728106361+728652193+728276376+727506209+727906485+729706268+731151240
3218+730928856+729541430+727974686+726701153+726265763+727360128+729633790
3208+731163995+730443722+728749880+728556757+729831565+730421664+729968417
3198+730180147+731115152+730693642+727994944+724365818+721189789+718552240
3188+716183217+714366553+713846681+714953951+716699337+717424637+716829512
3178+716188319+716182166+716442365+717328376+719552519+721879526+721849965
3168+719231772+716415355+715250313+715365182+715249338+713835052+711335029
3158+708951601+708072192+709564883+713032247+716472826+717325900+714674545
3148+710317643+707168325+706508374+707092171+707155345+706606287+706075760
3138+704787672+701651258+697736575+695340766+695096549+695658737+695646507
3128+694769950+693590053+692746508+692466727+692779070+693853403+695222822
3118+695067363+691959235+687235369+683929616+683547571+685040337+686536854
3108+687222239+687192678+686297589+684198068+681638398+680381971+680929079
3098+681604410+680925027+679600850+679106113+679449293+679501738+678741174
3088+677757627+677391488+677844660+678551277+678833760+678600046+678162480
3078+677512209+676364048+674925828+673755835+672751654+671411796+670180429
3068+670064060+670786734+671042881+670612443+670284944+669846628+668230215
3058+665736270+664116181+664165024+664669215+664030498+662118249+659975361
3048+658474042+658142116+659412273+661932928+664002213+663806989+661245743
3038+657767950+654687357+652317659+650481263+649209305+648699862+648827936
3028+649153709+649434841+649596677+649365515+648638789+647819854+647149550
3018+646097876+644053726+641434558+639364374+638338960+637864405+637388950
3008+636904341+636592748+636578943+636965189+637627465+638143661+638076736
2998+637078257+635012649+632475638+630641642+630074803+630187720+630093935
2988+629491682+628539946+627367214+626137685+625336719+625332330+625504895
2978+624672605+622819402+621307692+620952432+621109167+620897812+620145952
2968+618927302+617192607+615190061+613612625+612980623+613009847+612919212
2958+612383434+611632662+610823218+609932368+608979394+608022631+607160329
2948+606545997+606251547+606075081+605487458+604033444+602040201+600398166
2938+599291234+598025955+596448932+595337048+594996719+594682125+593770004
2928+592523782+591353150+590141441+588742723+587520773+586768462+585981114
2918+584511682+582688003+581333740+580516380+579794119+579289065+579498657
2908+580266948+580713105+580188468+578837694+577190257+575590688+574102049
2898+572659515+571250631+570071409+569366967+569071917+568871891+568568251
2888+568152856+567753780+567561370+567511701+567241036+566588551+565721560
2878+564766185+563853989+563120549+562138727+560270744+558072973+557064891
2868+557593879+558104185+557040994+554656178+552372050+551036431+550379782
2858+549723133+548621491+547022147+545303620+544096000+543753383+543946356
2848+543981844+543576503+542955080+542190465+541123186+539981065+539177323
2838+538424300+537015979+535031964+533378450+532651500+532566530+532455075
2828+532026288+531506978+531003387+530148776+528761538+527324781+526350649
2818+525760775+525170902+524323605+523140932+521715617+520312585+519223697
2808+518457582+517594417+516261837+514749939+513646383+512944305+512184042
2798+511333444+510743495+510304692+509390057+507740820+505846839+504233578
2788+502923806+501906158+501488587+501687188+501819876+501284960+500268888
2778+499230907+498223012+497101825+495955052+494947083+494003150+492974585
2768+492004468+491286745+490527270+489308058+487927910+487049439+486546824
2758+485569128+483793130+481823859+480240233+478921421+477516588+476104066
2748+475072087+474573598+474357178+474035156+473340543+472167023+470540744
2738+468624555+466674641+464913499+463461586+462388192+461703332+461301180
2728+461052460+460855211+460455684+459493444+457920098+456084040+454356885
2718+452985102+452108658+451520022+450688819+449407259+448066613+447073612
2708+446432306+446002206+445673393+445194825+444260083+442859189+441301636
2698+439866567+438602113+437455941+436451010+435684520+435180254+434753229
2688+434101645+433164577+432311166+431928071+431829746+431371397+430179908
2678+428504936+426892425+425775064+425231745+424922590+424439482+423784334
2668+423224134+422773551+422279151+421853365+421666769+421442959+420680895
2658+419336160+417885523+416699999+415681000+414623136+413640151+412954466
2648+412447162+411741519+410663360+409396280+408272017+407573577+407404013
2638+407517756+407355657+406534583+405319272+404354144+403939612+403835998
2628+403689542+403323366+402693389+401863838+400967060+400044698+399070754
2618+398164748+397574949+397386403+397357104+397108347+396506657+395820634
2608+395382543+395130298+394671536+393832231+392940818+392411755+392180967
2598+391792958+391009961+390044232+389153345+388304323+387356451+386397025
2588+385733061+385550817+385713253+385961635+386148943+386174866+385924046
2578+385390969+384657491+383749121+382766136+382056142+381939210+382291431
2568+382614016+382535724+382149778+381801646+381635983+381508735+381263054
2558+380869942+380390623+380004827+379912955+380012630+379883018+379305524
2548+378624454+378371045+378635746+378992318+378984515+378521252+377847159
2538+377328938+377233802+377553385+378073595+378600070+378953528+378869347
2528+378233330+377348895+376698286+376499123+376609940+376721057+376564060
2518+376088830+375504246+375061053+374811133+374662239+374573968+374537317
2508+374463226+374286197+374044080+373709491+373195696+372642811+372343786
2498+372307884+372265456+372091653+371871819+371627302+371284046+370837327
2488+370384118+370040225+369840724+369691680+369470647+369179724+368938395
2478+368848211+368897317+368965968+368918475+368697441+368348934+368000727
2468+367784345+367694236+367583756+367390408+367253444+367304763+367461835
2458+367521933+367370375+367038825+366657718+366396244+366330406+366331794
2448+366205972+365945998+365706132+365562753+365476395+365403467+365261401
2438+364935477+364495136+364209727+364196672+364245366+364109339+363809451
2428+363537285+363377662+363273110+363201533+363196693+363194930+363057966
2418+362761679+362425439+362199565+362196902+362406231+362629066+362650561
2408+362476758+362280896+362171767+362131365+362112870+362083459+362001490
2398+361863813+361795575+361972042+362380459+362759540+362847361+362596541
2388+362125212+361554696+360862296+359797342+358030685+355480394+352392636
2378+349050681+345533273+341824242+338092028+334806682+332461856+331036766
2368+329912877+328606632+327295960+326293130+325601180+325494002+326807825
2358+330036974+334697141+340112919+346352996+353598530+360874338+366396431
2348+368969907+368707045+366906137+365026112+363319402+360993258+357528145
2338+353239031+348814454+344691829+340993940+337858201+335481713+333868489
2328+332833397+332241047+332060416+332277023+332838724+333636539+334546709
2318+335484864+336381342+337189023+338000380+339036673+340373605+341757279
2308+342828085+343486985+343952274+344482087+345115065+345706589+346188084
2298+346679633+347252887+347730068+347906985+347860168+347829556+347911300
2288+348030257+348109675+348154917+348227769+348367285+348531335+348655994
2278+348733461+348766999+348713766+348523794+348203648+347856566+347627167
2268+347516237+347336469+346973782+346548033+346222522+346063387+346104165
2258+346283257+346363575+346210442+346056972+346211155+346631765+347047572
2248+347336319+347549700+347738847+347959655+348265284+348544727+348574814
2238+348323693+348002909+347793167+347731456+347855628+348232084+348806651
2228+349383207+349788361+349985761+350057038+350141933+350352875+350665031
2218+350908273+350923054+350735483+350586626+350764781+351330533+352024171
2208+352573004+353040244+353689765+354562908+355395649+355953223+356287249
2198+356609009+357013337+357435260+357839063+358286157+358775267+359186874
2188+359465342+359711585+360020177+360346401+360633872+360993671+361616144
2178+362507520+363452428+364253019+364881157+365403017+365902256+366488979
2168+367265561+368262989+369449526+370796512+372331331+374136065+376313465
2158+378954091+382061319+385443038+388787731+391962447+395122682+398413992
2148+401682531+404619820+407156756+409580325+412188426+414937843+417607880
2138+420236577+423142841+426508804+430167716+433855214+437516489+441278152
2128+445173254+449026152+452652914+456018802+459070959+461559803+463171451
2118+463726586+463224233+461871658+460047192+458015797+455740484+453169260
2108+450559658+448300514+446581125+445408918+444733362+444335224+443719090
2098+442296626+439710883+435990186+431418515+426305102+420928301+415581625
2088+410468474+405604230+400976401+396700530+392893287+389535877+386576380
2078+384053061+382028231+380441192+379075787+377709107+376317442+375108509
2068+374321010+373986383+373855196+373570501+372975525+372242647+371689350
2058+371493638+371559213+371598566+371387361+370993536+370708053+370711842
2048+370895249+371055960+371190486+371517422+372291641+373673890+375710799
2038+378394904+381768746+385873627+390518300+395288458+399871232+404090494
2028+407593309+409911388+410856859+410526321+409093991+406891268+404350468
2018+401605965+398470676+394935674+391361394+388112250+385277451+382753869
2008+380417746+378219488+376204862+374416146+372754379+371033001+369202945
1998+367467350+366188940+365643633+365683586+365646484+364878944+363400958
1988+361810318+360646214+360026479+359704232+359350098+358857274+358359235
1978+357971338+357667660+357370810+357023916+356689402+356623902+356992404
1968+357452779+357377113+356633131+355764826+355251294+355007377+354778615
1958+354627358+354708426+354845015+354703099+354256417+353802308+353594179
1948+353707059+354234997+355245104+356304956+356487238+355404315+353807409
1938+352640680+352129361+352026272+352114243+352256196+352340416+352344055
1928+352425048+352934679+354026267+355192660+355813220+356104405+356516086
1918+356542834+355471353+353901420+353087662+353368005+354073460+354412964
1908+354130332+353536857+353039456+352715558+352448232+352274653+352391960
1898+352917497+353652438+354129732+354237585+354536348+355305465+355760250
1888+355120482+353895905+353086986+352910594+352937605+352811407+352514632
1878+352265050+352260361+352549220+353379747+355382556+358700164+361822923
1868+362311058+359705207+356191513+353849088+353039006+353055587+353207707
1858+353240945+353205306+353187975+353219111+353436131+354104184+355438603
1848+357672162+360858882+363843026+364309928+361776893+358689472+357099170
1838+356924991+357078574+357161668+358088570+360850592+364659335+367142664
1828+367342090+366595107+365673682+364050592+361941017+360579139+360505648
1818+361053506+361441628+361839954+363051851+365179207+367063734+367553482
1808+366956406+366517039+367138838+369055552+371832279+374302853+375371033
1798+375399469+376113364+378900033+383212143+386155733+385199458+381886428
1788+379675490+379953057+381904660+384413648+387059113+389427836+390964794
1778+392105976+394423605+399158124+405641820+410749906+411643419+409343348
1768+406532932+404773215+405052359+407704201+411222210+413355156+414176117
1758+415286951+416882655+418635995+421652176+427013258+433294376+437282325
1748+437895645+437034356+436660715+437563194+439743296+442404930+444410777
1738+446335632+450574326+457716471+463483494+463332500+459675876+456324843
1728+454275479+453952594+455727204+459022003+463394586+469871641+479412932
1718+489815625+495529341+494347306+490270523+487367898+487231758+490197220
1708+495890153+502700372+508487390+513567829+520651826+530230632+538047470
1698+540931826+540480792+537916208+534748770+534187107+537574266+543562060
1688+551135281+561576914+574825736+584264989+584362488+580688533+579759568
1678+583279077+590138590+597696430+604046349+610312424+617730674+623895010
1668+625835546+626081376+629116239+635357930+641299132+644400208+646699229
1658+651765074+661681208+676808217+693034767+700165170+698815784+699538383
1648+704520346+708613823+707503552+704342003+703678377+706565096+712640449
1638+721219951+729140178+730171519+723775720+717435516+715529569+716855396
1628+718458004+719268986+720101802+720302053+718102744+714895203+714087147
1618+715857293+715897433+710915095+703788368+698237089+694833724+692362513
1608+689540318+686114069+682834951+680479658+679228109+678810276+678854392
1598+679066273+679214154+679048791+678364307+677164602+675682865+674174268
1588+672671149+671044157+669379576+668093964+667710943+668869533+672243862
1578+677457588+681531182+681103595+678563132+679007600+683415896+688387431
1568+690652164+691453543+693534532+698180818+706872187+721865120+741135650
1558+752644637+752257190+750814018+753611604+759867625+768092693+777090553
1548+786004832+795314136+806243904+819089673+832999946+844402318+845675625
1538+837245355+829730581+828425987+831406192+834076604+834677131+835258377
1528+837296074+840541204+845177962+852076827+859982873+865288059+866983027
1518+867195882+866354213+864249216+863139920+865927977+873625295+885372647
1508+897401807+900837059+892132185+882150101+878445647+880279867+884635868
1498+888594669+889753483+887804619+885605461+886143114+889406326+892270762
1488+891863208+888994645+886315230+885287640+885872637+887642783+890776121
1478+895748630+902275804+908949584+913154328+911883121+905935242+900718139
1468+900020375+903150936+906284949+906300180+905090646+907121966+914015354
1458+921901669+922928733+916160492+908959563+905147518+904127656+904169222
1448+903764969+902574193+901454768+901068822+901285579+902152158+904311551
1438+907711315+910421942+910659257+909758016+909749762+910425469+910447302
1428+909826592+909722302+910261907+910689419+911316281+913180438+915405031
1418+915167491+912084047+908969467+907659095+907590144+907216502+905938918
1408+904613390+903883739+902933354+901112714+899739393+900303682+902096637
1398+903249899+903272407+902626938+900958230+898075037+895082678+892756646
1388+890340430+887077819+884233791+883920547+886500325+890444870+894229154
1378+897826018+901943954+905966303+907983218+907846741+908089758+910413839
1368+913798297+916847003+919744301+922649627+924320210+923989935+922859782
1358+922354390+922759019+923834701+925314787+926813255+928106971+929415091
1348+930897278+932333773+933644445+935065858+936520510+937421226+937595217
1338+937749851+938408750+939206228+939752585+940281610+940976374+941469611
1328+941580353+941893972+943086399+945098736+947155641+948271914+948025971
1318+947346513+947915229+950292355+953246675+955187210+955663341+955189086
1308+954382830+953603285+952836719+951985897+951408403+951620208+952485886
1298+953420516+954157670+954663287+954553520+953100369+949893204+945440416
1288+941075561+938039986+936561775+935947067+935338737+934138207+932114615
1278+929536487+926972466+924717861+922498445+920008626+917645980+916111199
1268+915287837+914254395+912510734+910358093+908013229+905313106+902197850
1258+898645553+894632732+890736205+887873570+886163972+884980324+884085760
1248+883726598+883630412+882976764+881539219+880092671+879599659+880350094
1238+881775559+882984417+883678055+884384448+885554966+886827749+887620875
1228+888115687+889058870+890771919+892842104+894682626+896056622+897135681
1218+898302823+899835204+901599798+903200005+904561696+906137518+908458598
1208+911628850+915186698+918390338+920813081+922659006+924303854+925836910
1198+927433290+929585631+932214778+934228991+934890667+934901846+935397334
1188+936829627+939337678+942941143+946911123+950070571+951981395+953157841
1178+954388833+956241360+958616160+960632849+961613621+962187964+963762511
1168+966818119+970277230+972625920+973420772+973607818+974302131+975779966
1158+977777823+979974056+981973864+983386574+984163794+984624618+985093246
1148+985607941+986252661+987649465+990255953+993321615+995542007+996825818
1138+998355048+1000846817+1003701875+1005830206+1006690557+1006555881
1130+1006096707+1005907936+1006420755+1007607330+1008901796+1010097524
1121+1011827079+1014606658+1018192117+1022199986+1026093212+1028629398
1113+1028687020+1026614960+1024114187+1022981182+1024009447+1026800730
1104+1030555228+1034543815+1037562434+1038425411+1037712791+1037058618
1095+1036725417+1036143572+1035918186+1036719865+1037819482+1038959314
1087+1041235452+1044715196+1047968804+1050483607+1052479439+1053175252
1078+1051786551+1048838834+1045525503+1043324093+1044277180+1049380989
1070+1056341527+1061455241+1064013936+1065884245+1067525267+1067821254
1061+1066781885+1065756771+1065531011+1065571001+1064940312+1063368916
1053+1061678300+1061394768+1063545383+1067639235+1071754995+1073741823
1044+1072895802+1070481912+1068261821+1067005545+1066968105+1068191369
1035+1069832466+1070119450+1067785615+1064118450+1062252043+1063858777
1027+1067561430+1070712325+1071870164+1071421268+1070603683+1070080735
1018+1069281532+1067713963+1066473068+1066661689+1067201294+1066650660
1010+1065591184+1064720554+1062980869+1059884220+1057358688+1057214633
1001+1058370522+1057799780+1053977982+1048721864+1045175720+1044569790
993+1045619588+1046590681+1046825971+1046318178+1044887386+1042250511
984+1038655299+1035063462+1032462376+1030725693+1028752670+1026154735
975+1023762904+1021984580+1019669052+1015739587+1010702628+1005669721
967+1000817931+995989776+991879643+989007405+986598617+983780624+981028280
957+979224221+977918502+975732323+972152116+967854637+963663548+960255757
947+958500241+958940658+960684769+961604543+960405813+958087735+956637210
937+956764233+957603501+958196826+958454399+958728928+959146236+959425042
927+959046148+957661273+955707007+954306076+953964997+953855456+953059254
917+952012382+951773041+952366441+952910097+952883312+952276782+950998973
907+949271668+947956720+947258805+946190850+944293456+942686497+942794463
897+944512464+945979795+945383469+943006868+941011862+941016439+942496225
887+943778536+943807272+942440479+939915922+937003243+935182378+935497572
877+937125764+937913938+936742069+934671959+933402478+933520273+934385726
867+934778650+933728101+931447387+929283642+928505447+929538288+931977463
857+934373721+934749388+932778992+930675119+930484997+931614250+932242313
847+932090531+932149353+932506188+932265872+931240308+930299752+930262988
837+931159428+932375864+933310118+933878833+934111272+933699816+932958685
827+933328500+935334685+936962277+935961473+932864599+930063112+929407138
817+931668421+936433252+941595358+944730572+946047246+947844102+950690381
807+952622063+952608333+952256299+952466829+951375540+947700798+943527416
797+941459482+941192306+940918527+940576772+941789007+945212554+949252686
787+951314842+950042510+946434768+942859362+940935033+940719551+941865161
777+944201771+946668181+947286190+945311067+942043128+939018357+936915985
767+936204265+937269444+939487434+941188929+941180301+939875406+938645165
757+938552430+939852973+942069763+944153003+945073302+944370960+942211567
747+939747708+939085507+941465334+945734602+949607495+951836815+952134078
737+950046712+945585971+940605283+938112688+939899115+944838763+949180358
727+949641933+947153090+945762063+947327756+949537494+950120615+950646639
717+952947161+954496123+951476229+944829984+939215831+937412448+938459770
707+939439866+938256068+935764898+934254126+933784073+932719269+931472221
697+931871523+932777941+930508406+924341893+918260313+916370197+918541895
687+921134578+921180870+918555850+913908589+907387567+900364980+895143826
677+891794181+888847289+886951696+886838478+885403934+879402409+872949138
667+874301151+881053485+885098493+884528427+881697379+878377746+874912933
657+871923800+870412652+870107286+869092676+866607660+864513466+863990067
647+863549575+862235227+861001309+859981823+858567612+857274572+856651761
637+855733263+853813885+852093783+851948828+853134353+853896867+852488958
627+849287644+846570940+844704232+841190875+835540033+830738964+828744633
617+828926802+830966600+835254925+839927847+841529479+840078954+838702332
607+837687347+834403052+828269928+821388619+814796921+808261869
##END=
