##TITLE=<SNM>
##JCAMP-DX=4.24
##DATA TYPE=INFRARED SPECTRUM
##DATE=3/5/2025
##SAMPLING PROCEDURE=Instrument type and / or accessory
##ORIGIN=Admin
##XUNITS=1/CM
##YUNITS=ABSORBANCE
##RESOLUTION=4
##FIRSTX=4497.3318
##LASTX=599.83466
##DELTAX=-1.4281778
##MAXY=1.7028078
##MINY=0.17859133
##XFACTOR=1
##YFACTOR=1.5858633e-09
##NPOINTS=2730
##FIRSTY=0.1973632
##XYDATA=(X++(Y..Y))
4497+124451580+124975834+125423622+125554333+125573642+125564246+125378990
4487+124912363+124184060+123413972+122997023+123102223+123431524+123622033
4477+123727675+124134560+125071000+126255218+127031470+126921045+126039123
4467+124923779+124149453+124118690+124818654+125683785+126058442+125801981
4457+125213240+124583288+124041134+123541780+122928233+122280493+122034659
4447+122448432+123187720+123608286+123263651+122228072+121042059+120180808
4437+119687956+119487816+119643155+119980330+119957572+119334808+118663474
4427+118702704+119477001+120232337+120314282+119768144+119037135+118470898
4417+118222198+118264933+118405021+118453290+118387140+118244524+117963332
4407+117480337+116983247+116888505+117369780+117984445+118059098+117409329
4397+116388982+115396419+114709553+114597982+115128729+115931854+116525735
4387+116791705+116826104+116544142+115835157+114903726+114068785+113396597
4377+112850788+112614576+112991384+114045051+115416123+116453280+116595464
4367+115775360+114491344+113482798+113201719+113436014+113603756+113527646
4357+113601708+114081931+114680547+115016838+115023613+114851652+114785127
4347+115163326+115937135+116457123+116161470+115312125+114636187+114441337
4337+114462732+114413402+114320680+114355747+114569803+114901265+115347192
4327+115928537+116426181+116392477+115648473+114619387+113916679+113687505
4317+113660312+113692372+113850868+114034846+114000522+113834763+114002175
4307+114741171+115679499+116274648+116520538+116900166+117585462+118060677
4297+117811573+117136425+116848045+117226497+117689375+117602986+117066535
4287+116708576+116952146+117609986+118121903+118100996+117615229+117045685
4277+116801806+117095015+117766377+118366140+118629169+118768130+119094978
4267+119550997+119853274+119867209+119605711+119162866+118900232+119315245
4257+120391388+121460107+121987481+122074885+121967401+121700895+121467380
4247+121611077+122072714+122452463+122617161+122729333+122823794+122823615
4237+122802708+122895581+123086259+123213418+123074204+122622451+122187987
4227+122273681+122948717+123626289+123657485+123093494+122673285+122970168
4217+123692514+124167259+124352807+124723273+125238253+125314776+124863559
4207+124471707+124560445+125039269+125593346+125813970+125431524+124751687
4197+124359384+124346606+124452839+124713830+125202181+125466882+125062468
4187+124364834+124170313+124718406+125518317+125909060+125596240+124907702
4177+124648018+125406389+126880707+128150685+128690123+128783362+128919007
4167+129249444+129704326+130169064+130454532+130409063+130096469+129732768
4157+129528635+129579929+129749259+129712350+129289660+128698768+128368838
4147+128507592+128869639+129007209+128757607+128360437+128127410+128190431
4137+128526694+129038790+129610880+130135717+130512967+130752195+131050498
4127+131530186+131938697+131847544+131158620+130337050+130083455+130594583
4117+131205977+131176332+130717232+130659332+131223003+131769151+131702898
4107+131127585+130675691+131013862+132353081+134166960+135507297+135789231
4097+135193171+134293462+133530158+133067440+132887088+132894699+133024245
4087+133229356+133384854+133378455+133281721+133249962+133320574+133453860
4077+133669344+134006782+134381946+134554132+134346673+133966904+133907642
4067+134369224+135002399+135361909+135370093+135221839+135074806+134949677
4057+134818975+134736551+134870664+135318479+135849057+136017504+135704477
4047+135361429+135476167+135986261+136505657+136889156+137191179+137327002
4037+137181341+136891956+136770622+137013957+137504300+137840807+137757002
4027+137562632+137870453+138832403+139938933+140590835+140618873+140298884
4017+140072951+140122469+140123559+139627259+138683914+137828818+137484070
4007+137662485+138209948+139046928+140103658+141124053+141666470+141490243
3997+140922936+140524648+140374608+140137062+139839934+139936161+140525221
3987+141188831+141647245+141931980+141950753+141538192+140936927+140697228
3977+141061643+141741095+142247881+142314379+142059787+141782645+141622035
3967+141620635+142010109+142937744+143956401+144352866+143999981+143439664
3957+143213496+143457197+143936659+144249385+144196841+143975729+143803092
3947+143587119+143249070+143051599+143308680+143965459+144630459+144904707
3937+144673391+144221243+143994258+144165834+144562073+144978148+145324193
3927+145494237+145371842+144992666+144606132+144585038+145198068+146303404
3917+147291861+147561355+147101343+146498480+146379946+146821983+147342902
3907+147536925+147456709+147380759+147595510+148253501+149022340+149210105
3897+148592696+147758413+147436770+147759362+148147098+148118815+148132694
3887+148790985+149696088+150006765+149920517+150209207+150704728+150655830
3878+150073732+149571090+149537414+150110303+151283264+152620857+153361535
3868+153294446+152839339+152327817+151957464+151995500+152600571+153611259
3858+154726518+155813485+156830281+157380469+157019531+156197125+155535808
3848+155229133+155198435+155253789+155278022+155517062+156467605+158074109
3838+159298496+159393041+159017004+158963689+159132728+159238079+159429349
3828+159877286+160556428+161606139+163041679+164019039+163603086+162622024
3818+162542851+163303120+163876855+163941670+163980044+164453521+165529729
3808+166993176+168413569+169785571+171304023+172464065+172635302+172373372
3798+172412160+172604181+172712088+173020548+173862301+175288407+177184306
3788+179271644+181166736+182711253+184203057+186168583+188862787+192036914
3778+195311919+198633905+202191324+206239207+210977508+216128493+220962184
3768+225323546+229908763+235296382+241575762+248723824+256567960+264544207
3758+272162101+279548132+287184386+295639654+305473915+316382749+326827691
3748+336399082+346580290+358363295+370158176+379950718+388474578+397169112
3738+406666010+417609629+430567014+444158044+455276546+462383303+466805138
3728+470418108+473740357+476557953+479122414+481715965+484306999+487656497
3718+492927603+499660990+505947153+510911415+516126858+523796224+533486797
3708+542731989+550695232+558625813+566766795+572982600+575984963+577668695
3698+580150507+583430736+586401566+588677487+591338504+595793827+601816934
3688+607246422+610119569+610287837+608896854+607112019+605422348+604189410
3678+603786387+603712645+603568055+604787651+608437716+612617166+614795592
3668+615932011+618454151+622302553+625412372+626447688+626327792+626613550
3658+627541599+628893305+631297052+634837858+638055358+639274239+638333412
3648+637441069+639131416+643830967+649654836+653931480+655842677+657432070
3638+660948145+665808786+669158810+669447388+668065914+666900178+666455849
3628+666925060+668765220+671748340+675613881+680487676+685714544+689462969
3618+690875563+691118513+691423552+692279137+693659708+694722912+694692769
3608+694814695+697512019+703206745+709854626+715320685+718575319+719082641
3598+717041025+714032573+712106643+711686593+711666072+711668177+712179332
3588+712896228+713099563+713374460+714410978+715845447+717606529+720735403
3578+725660915+730254476+731207331+727588574+722067941+718023797+716490856
3568+716515587+717511363+719630405+721977737+722812951+721732232+720549207
3558+721399079+724011085+725813660+724920792+722698542+722126348+723569987
3548+724864264+724909817+724474583+723800985+722532341+721739148+722958931
3538+725563420+727074787+726299785+724474207+722917437+721690738+720673238
3528+720278595+720377444+719943037+718523001+716555202+714190956+711783713
3518+711101996+713961161+719945668+726631209+731502298+732942179+731020909
3508+727355096+723751598+721491613+720640990+720335349+720256571+720929116
3498+722374334+723401983+723212254+722644420+722393502+721559266+719703771
3488+718698147+720451937+723974627+726346089+726085475+724506906+723939147
3478+725687149+729425352+733268040+734889381+733757773+731784035+730838923
3468+730665806+730280260+730022276+730954835+733013214+734795945+734875625
3458+732794094+729451060+726830936+726431783+727587296+728308326+727823329
3448+727309468+727968032+729360330+730584623+731714352+733143408+734933431
3438+737015263+738927437+738917890+735603195+730575828+727116957+727051559
3428+729866299+733303896+734457830+732268731+728795954+726456138+725408720
3418+724702423+724344013+724956422+726375255+727896921+729325301+730638896
3408+730805472+728629151+724958978+722536551+723741300+728723715+734737989
3398+737453128+735000708+730678736+729451887+732428768+736126754+736798473
3388+734262840+730809005+728204742+727098616+727725909+729768954+731987745
3378+732973825+732430872+731149074+729996493+729567047+730363247+732211752
3368+733520160+732562721+729881934+728028543+728659370+731044287+733378766
3358+734731073+735552080+736604234+737802443+738297512+737750275+736774644
3348+735919285+735218325+735219077+736867554+739038989+738752516+735582373
3338+732858590+732696147+733059068+731518610+729050329+727817166+728024710
3328+728914572+730723387+734026956+738298715+742128249+744051247+743178148
3318+740143085+737140421+735912144+736041286+735974385+735176982+734206462
3308+733259020+732020895+730728724+730304690+731214998+732717044+733589317
3298+733337798+732412456+731484032+731034139+731272954+731867023+732347810
3288+733020656+734790082+737660898+740043259+740302220+738675768+736941446
3278+736349558+736714809+737462524+738138528+738094253+737150343+736168699
3268+735957622+736168323+736068798+735650627+735159617+734481509+733707709
3258+733070343+731917236+729613803+727591956+727991785+730481941+732747338
3248+733505953+733192494+732658637+732886177+734679883+737320453+738652239
3238+737300082+734051161+730970696+729541339+729954548+731811923+734391230
3228+736525004+737421707+737446212+737092613+735777364+733057113+730138865
3218+728615922+728527371+728445135+727168599+725136980+724068815+724813374
3208+726047138+725796898+723826167+721691565+720782911+721259263+722887895
3198+725749992+729395735+732307067+733146866+731726079+728570820+724976493
3188+722814980+722514075+722423119+721182589+719141123+717182946+715901975
3178+715684508+716457330+717807759+719350547+720358727+719977690+718645678
3168+717876464+718044845+717919010+716599401+714650545+713132563+712356207
3158+711843774+711150707+710286778+709434426+708844191+709013625+710106220
3148+711234070+711266619+710001809+708026868+706121460+705037735+704937759
3138+704932873+704143513+702921475+702005228+701066806+699261825+696691914
3128+694223709+692298681+690881351+690125668+690208806+690684030+690501066
3118+688945048+686744748+685867139+687392488+689873848+690983733+690440705
3108+689668484+689221298+688417881+687014082+685543833+684388245+683703747
3098+683848675+684867002+685847520+685860674+685114763+684293305+683490941
3088+682612129+681951385+681632815+681217952+680323955+679163106+678278205
3078+678008194+678257157+678533783+678218670+677073080+675478424+674132356
3068+673553998+673671940+673746133+673013827+671674599+670779249+670879000
3058+671307619+671066624+670028602+668888499+668324349+668458752+668621721
3048+667715171+665533062+663469947+663145739+664592160+666175841+666115930
3038+663989222+660897030+658306147+656900318+656511614+656659849+656778843
3028+656190864+654381824+651575654+648922079+647746345+648398219+649932513
3018+650935055+650582583+649076628+647256388+645742314+644511030+643327103
3008+642200756+641244143+640524391+640008500+639261686+637805493+636139351
2998+635363522+635595421+635965859+636055311+636095377+636150552+636168818
2988+636306980+636594581+636791000+636573984+635393740+632759860+629254872
2978+626430549+625160477+624715885+623821475+622112410+620168853+618608099
2968+617666408+617358587+617521781+617825768+618053871+618129304+617746990
2958+616521381+614652581+612943065+611939922+611419107+610892917+610194664
2948+609355015+608376528+607386201+606612364+606065916+605543184+604879508
2938+604076317+603329767+602828157+602355902+601397222+599822975+598065163
2928+596535041+595266473+594004594+592571968+591429008+591395482+592264372
2918+592500519+591200529+589501500+589037175+589771924+590093238+588688913
2908+585885073+583070334+581224122+580375040+580099053+579963296+579580117
2898+578744227+577596269+576452107+575598515+575203872+575176285+575122764
2888+574530425+573121401+571228321+569606980+568543738+567456517+565757714
2878+563709483+562056382+561230001+561107888+561201287+561010655+560217537
2868+558601157+556248450+553953699+552718243+552672014+553061545+553157537
2858+552598047+551337446+549851862+548768588+547990353+546861150+545191888
2848+543565586+542764913+543074764+543851270+543917757+542796673+541242308
2838+540196581+539684110+539040655+537816287+536146386+534430707+532947678
2828+531791376+530936468+530197999+529351247+528517461+528140634+528294357
2818+528345510+527671311+526443109+525321009+524626326+524167676+523686588
2808+523100676+522375587+521476554+520428083+519224462+517803411+516277874
2798+515022574+514303498+513897242+513259349+512008258+510151823+508095962
2788+506529270+505874163+505707662+505167002+504008370+502722851+501633036
2778+500544275+499299686+498114481+497239578+496588042+495831156+494814519
2768+493759171+492903323+492148353+491332083+490546143+489863262+489102279
2758+488158670+487173342+486171251+484975823+483572137+482144246+480805319
2748+479576553+478397625+477020135+475329300+473806694+473104532+473142831
2738+473146627+472543613+471392122+470024743+468653267+467256271+465704763
2728+464115519+462965983+462561042+462513760+462140955+461310364+460461695
2718+459827900+459106870+457939367+456317275+454450955+452569150+450942021
2708+449833264+449246149+448784117+447938267+446608134+445184979+444006577
2698+442972576+441882950+440874695+440249093+440046172+439989193+439723167
2688+439001949+437790622+436344916+435129154+434449430+434117254+433600460
2678+432548119+431110756+429770889+428893280+428385356+427798467+426827384
2668+425671645+424824593+424511660+424391012+423889441+422833340+421561051
2658+420420159+419480459+418757362+418311003+418033776+417680327+417182062
2648+416666735+416138966+415428159+414539274+413772090+413303969+412904967
2638+412272036+411394689+410410339+409377917+408367181+407524225+406920573
2628+406461811+405969109+405314153+404518968+403711680+402986591+402383840
2618+401906210+401423243+400727996+399853882+399142399+398821423+398660033
2608+398232579+397476256+396733276+396181266+395578215+394757735+393984236
2598+393559037+393426775+393381297+393335218+393220922+392896752+392291371
2588+391478558+390547315+389527145+388515320+387737537+387303881+387066532
2578+386912772+386930437+387067584+386993241+386558082+386073725+385898391
2568+385967134+385903239+385490368+384864616+384234729+383650057+383158257
2558+382888247+382803117+382661046+382357585+382052846+381895139+381804973
2548+381587243+381232178+381002383+381067443+381211957+381170501+381021363
2538+380943036+380869144+380652805+380330326+380058211+379929369+379886560
2528+379796995+379652105+379566186+379531495+379401375+379115730+378698987
2518+378148969+377593801+377349536+377522765+377776689+377765752+377590681
2508+377551142+377609173+377391594+376696910+375767396+375021823+374676718
2498+374643004+374643380+374436099+374069495+373879127+374091482+374488680
2488+374629285+374361492+373966399+373804445+373917388+373998534+373743971
2478+373196546+372672799+372389221+372261131+372056744+371673302+371233257
2468+370929420+370851393+370984444+371233745+371392918+371294633+371031651
2458+370805239+370608670+370305697+369909025+369555952+369309808+369124627
2448+368931703+368707471+368483464+368274980+368027295+367701058+367382412
2438+367231772+367296531+367409586+367348323+367067375+366658150+366172627
2428+365684811+365380185+365322154+365272166+364982273+364513363+364077602
2418+363771586+363636016+363756852+364120487+364542980+364863993+365065261
2408+365168807+365194327+365185833+365127163+364951416+364766685+364848282
2398+365243263+365601636+365555068+365107619+364563012+364180097+363928089
2388+363493006+362503919+360746182+358098809+354340649+349216050+342702046
2378+335075564+326758497+318221932+309924878+302154371+294946192+288221637
2368+282033740+276781257+273017629+270795830+269604969+269359088+270882088
2358+274988623+281700173+290828983+302646321+316745933+330419462+339709605
2348+342155899+338406985+331966723+326530431+322878787+319662715+316179790
2338+312776564+309662817+306458904+302901392+299628303+297802162+297882537
2328+299181174+300684066+301950116+303227366+304999686+307501887+310603250
2318+313979603+317228862+320016277+322397511+324859252+327789265+331019243
2308+334046525+336562201+338619452+340391885+341926217+343146263+344019888
2298+344644738+345182692+345802168+346644523+347683710+348650809+349294414
2288+349672557+350004244+350335706+350548625+350579257+350458120+350247043
2278+350068139+350080429+350282110+350396293+350109445+349433403+348695761
2268+348179531+347943121+347967476+348222528+348551209+348731579+348706397
2258+348583532+348445595+348334907+348343101+348514225+348707487+348733082
2248+348605933+348523471+348609127+348802615+348993960+349157379+349347747
2238+349614901+349914416+350132334+350250200+350413169+350749817+351215383
2228+351682489+352071569+352317337+352335190+352128284+351879547+351827003
2218+352021656+352310759+352612304+353052010+353714408+354416947+354895253
2208+355116328+355284333+355587568+356050615+356624613+357289341+357980153
2198+358538967+358891852+359187533+359620700+360206800+360815752+361339386
2188+361771538+362181402+362631182+363111067+363559042+363922339+364206594
2178+364529900+365082700+365904120+366756284+367394289+367899018+368541871
2168+369414745+370461975+371769407+373456333+375347008+377132896+378853762
2158+380893725+383509151+386579618+389787534+392923212+396038781+399292851
2148+402616416+405697671+408403940+410984073+413682074+416402550+418991216
2138+421617579+424596302+427955572+431409895+434705309+437878270+441200783
2128+444876481+448790205+452621543+456123975+459114838+461320437+462506995
2118+462703602+462102242+460810747+458833514+456257665+453376024+450546890
2108+447902674+445330696+442815471+440589275+438786211+437155436+435295694
2098+432994064+430183046+426776569+422766815+418366741+413897548+409579410
2088+405476972+401578056+397879130+394424769+391283830+388500587+386088044
2078+384059019+382427380+381142688+380040809+378943703+377834082+376856910
2068+376142043+375699142+375438114+375195203+374816045+374317443+373896679
2058+373692179+373575854+373254840+372618489+371942786+371638799+371810825
2048+372205280+372573575+372901880+373293402+373833837+374625226+375820729
2038+377554036+379861528+382670780+385838668+389208989+392647000+395991011
2028+398950114+401120308+402148972+401880352+400445094+398288656+395946172
2018+393650669+391290219+388779355+386241015+383802802+381492754+379365331
2008+377508370+375894208+374376038+372867377+371447191+370228836+369153041
1998+368041127+366897792+365979440+365442764+365092773+364604920+363869945
1988+363016165+362243681+361701781+361377046+361083169+360670862+360208830
1978+359859966+359643101+359419545+359072673+358622932+358185067+357862174
1968+357689283+357640122+357635612+357552549+357302270+356934013+356598341
1958+356389820+356293414+356260565+356224296+356061515+355670744+355114599
1948+354631519+354459981+354615019+354841431+354857743+354657002+354435701
1938+354261420+354043014+353809385+353773454+354042299+354430477+354665534
1928+354687483+354655386+354680492+354661700+354473587+354222970+354121078
1918+354179748+354243078+354245033+354229773+354229398+354270553+354368462
1908+354473286+354533648+354545262+354463514+354236050+353975173+353892147
1898+354005729+354092024+353980134+353786158+353764359+354002685+354365305
1888+354661287+354771260+354680117+354497115+354361772+354278296+354176816
1878+354089694+354102135+354222144+354413451+354630091+354776597+354780393
1868+354724204+354754422+354870034+354958133+354976249+355005527+355129370
1858+355334885+355557012+355732271+355802667+355782259+355801840+355987886
1848+356325399+356675804+356881845+356910485+356929503+357093975+357353236
1838+357563336+357670115+357782682+358092081+358658863+359278790+359691210
1828+359935925+360231080+360589716+360874272+361085424+361331193+361612403
1818+361858284+362113750+362498770+362989254+363437793+363827324+364328069
1808+365063156+365966361+366882682+367709402+368458019+369207915+370000883
1798+370838840+371760875+372807692+373932422+375022913+376026282+377007738
1788+378080038+379362400+380941157+382743207+384511618+386018813+387271069
1778+388468189+389828126+391497688+393479657+395479028+397061393+398196836
1768+399267857+400598929+402223127+403968649+405689703+407434736+409347924
1758+411388601+413343132+415155180+417040743+419153545+421307465+423186639
1748+424754196+426158409+427473582+428808751+430348157+432079772+433768277
1738+435415139+437381961+439895983+442654457+445152618+447411476+449661688
1728+451886531+454043646+456247818+458636343+461287099+464245977+467463139
1718+470729725+473794366+476545587+479007817+481325720+483732324+486371918
1708+489240591+492334286+495698443+499310285+503062995+506812510+510434650
1698+513988686+517603797+521269310+525045962+529186286+533779547+538526267
1688+543105696+547735151+552899102+558356479+563238806+567564311+571917366
1678+576543739+581501837+586907422+592704868+598637582+604606228+610484143
1668+615815648+620429167+624793498+629384240+634292576+639418040+644658664
1658+649801116+654760380+660094440+666617464+673316235+678041044+681364233
1648+684923079+689329843+693844401+697641612+700997650+704417733+707780010
1638+710457189+711955176+712635389+713507886+714681966+715372252+715134414
1628+714380910+713848481+713649807+713266140+712443931+711610521+710987513
1618+709834405+707158731+703385123+699826201+696619000+693139833+689330971
1608+685932011+683539275+681910267+680572467+679666293+679576240+680032146
1598+680283364+680000274+679431763+678746514+677669629+675948011+673909026
1588+672218153+671164420+670454365+669667711+668774917+668204452+668323897
1578+668870834+669109273+668912553+669171288+670356117+672081794+674025690
1568+676575229+680292985+685085897+690413644+695999825+702192552+709581458
1558+717823168+725865453+733808588+742059844+750525936+759129815+767815930
1548+776137997+783719640+790670531+796928055+801702099+804032293+804419794
1538+805207500+807419902+810037696+811853953+812835071+814242328+817105026
1528+821253957+825483696+828572054+830527074+832206146+834348640+837575611
1518+842192926+847315459+851113045+852876157+853953117+855896862+858638686
1508+860780354+861673749+862912249+865507267+868318774+870078277+870421879
1498+870128039+870527493+872259409+874980035+877967966+880245315+881002202
1488+880796612+880947102+881708574+882675861+883753272+884939454+886183291
1478+887721870+889839258+892162160+893740203+894239632+894573688+895413637
1468+896223368+896416855+896442488+897018816+897532452+896799996+894902105
1458+893653231+895244880+898988720+902218022+904068556+904976008+905132963
1448+904548516+903746152+903387892+903442465+903460882+903286037+902980020
1438+902412261+901686270+901622300+902736018+904674877+907070844+909807106
1428+912355293+913666858+913231925+911803320+910558580+909813571+909299258
1418+909244835+909878743+910380728+909801393+908391355+907335368+907281621
1408+907826754+908311374+908257703+907251102+905109735+902127893+899122748
1398+897141343+896508863+896361455+895683422+894551287+893680217+893098101
1388+892086163+890429793+889180318+889501444+891438799+894308262+897499754
1378+900571649+903104276+904848520+906073414+907609738+910062759+913007467
1368+915448011+917046199+918276205+919387368+920105316+920329022+920467034
1358+921127778+922686653+924784571+926348633+926670962+926340590+926720423
1348+928659959+931905272+935372035+937805137+938694773+938753030+939075359
1338+939780378+940197346+940375423+941340681+943738603+946960312+949630274
1328+950779322+950746849+950758876+951461715+952327748+952538901+951874097
1318+950800821+950175331+950616805+951929798+953429364+954732285+955777899
1308+956275975+955793309+954421156+952921516+952069539+952017447+952318878
1298+952314293+951443674+949590434+947312408+945410984+944224727+943416199
1288+942291581+940384669+937913081+935532749+933555929+931583168+929085872
1278+926214154+923649580+921763566+920371493+919163888+917773093+915715090
1268+913084742+910734253+908961820+906941477+904040969+900639377+897320097
1258+894360280+892052938+890531648+889372603+888007516+886416844+885093628
1248+884283145+883502806+882268665+881089399+880883057+881609876+882415171
1238+882921591+883501453+884401989+885391000+886398503+888013680+890780761
1228+893961128+895688533+894941720+892993765+892242066+893733814+896298913
1218+898272576+899600378+901408817+904072164+906915017+909388785+911484599
1208+913272893+914782456+916149572+917578478+919235976+921167468+923395581
1198+926058852+929061291+931804619+933907273+935759010+937750037+939613500
1188+941085328+942611053+944850291+947872800+951113528+953855051+955787371
1178+957307909+959090038+961107901+962436755+962524479+962263037+962984293
1168+964760184+966639583+968205975+969666828+970974785+972472622+975574285
1158+981161067+987718820+992291859+993457445+992527743+991719666+992018241
1148+992970870+993916282+994834784+995881300+996786647+997518728+998989804
1138+1001965633+1005498470+1007463864+1006905878+1004989269+1003612832
1130+1004041526+1006768693+1011662408+1017544081+1022100659+1023511073
1121+1022351652+1020734520+1020023563+1020656193+1022777640+1025193001
1113+1025551562+1023855502+1023316383+1025804358+1029011710+1030162187
1104+1030545929+1033231827+1038052477+1041821649+1042395722+1040442957
1095+1038152153+1037571765+1039189874+1041537507+1043018731+1044136133
1087+1046626664+1050709896+1054502822+1055975101+1054698415+1052017252
1078+1050138529+1050612702+1053092559+1055535507+1055904141+1054362029
1070+1053485096+1055222800+1058019123+1058475931+1056351628+1055493713
1061+1058668291+1063939660+1067424163+1067842559+1067220002+1068060026
1053+1070449529+1072101163+1071622030+1070401946+1070126373+1070790199
1044+1071945035+1073104231+1073164668+1072254360+1072430784+1073741823
1035+1072555340+1067213687+1061797541+1060793195+1063850358+1067459193
1027+1069440297+1070340532+1071300603+1072074403+1071301656+1068435124
1018+1064315359+1059833651+1055789582+1053751874+1055013828+1058848173
1010+1063236520+1066931499+1069667611+1070965195+1070326100+1068376567
1001+1066672990+1066052011+1065276031+1062343125+1057597795+1053977009
993+1053207193+1053367906+1051772724+1048406238+1044685625+1041235173
984+1038717506+1038244010+1039334275+1039845957+1038657595+1036080017
975+1032214703+1027686990+1024553380+1023686294+1022709836+1018728159
967+1011914077+1004767367+999183968+995322337+992257432+989107810+985721328
957+982359351+978972043+975029603+970141677+964848057+960480532+958086369
947+957649481+958224982+958506118+957538305+955575692+954139795+954639676
937+956696927+958158081+957493127+955719718+954796480+955120613+955894262
927+956664754+956987384+956126462+954523688+953586244+953360433+952610237
917+951300776+950609212+950673633+950546445+950035816+949862173+950134740
907+949942004+948669752+946994665+946068496+945982501+945504270+943615173
897+941052479+939630489+940127287+941699392+943439351+945262147+946715784
887+946525003+944301851+941330533+939160752+938109575+937577597+937017806
877+936259492+935769910+936387807+937962918+938715069+937102147+934029124
867+932022837+932432439+934162926+935128936+934504724+933137232+932072525
857+931380886+930468698+929131876+927897810+927259392+927015841+926923533
847+927602468+929391513+930656022+929511033+926965477+925870852+927265631
837+929641528+931339918+932029302+932209710+932933522+935365420+938982449
827+940840876+938542253+933876003+931421628+933440693+937614881+940116914
817+940039263+939635751+940952127+943938630+947259413+949326813+948946077
807+946560182+944632524+945134208+946800050+946600699+944074387+941899795
797+941915956+942976454+943281945+942794768+942523931+943041927+944185864
787+945029196+944253667+941768172+939742642+940599580+944061758+947408099
777+948690048+948474160+948034942+947453577+946290472+944966053+944555099
767+945530279+947035106+947421329+945815173+943341931+942247155+943336894
757+944932302+944833603+942924286+941239803+941320084+942458458+943275631
747+944031089+945688436+947652928+948551359+948973288+951147655+955436252
737+959342008+960592986+959504074+957941667+957289492+957550482+957424121
727+955501198+952046612+949075294+948327353+949384017+949580587+946536654
717+941551157+938539246+939411444+942304360+944327785+944688826+944047852
707+942560539+940403687+938373647+936538372+933831577+930018506+926603083
697+924693841+923624398+922717021+922312381+921968855+919837110+914962037
687+908546280+902023031+895582093+889429882+884663731+882459897+882982705
677+885202474+887490948+887964068+884475129+875404294+862662685+854978285
667+860556798+872212427+878500395+878283454+876418713+875701667+874744152
657+871717508+867023445+862113944+857720410+854721579+854924388+859061217
647+865247780+869713928+869183980+864108729+858443094+855508684+854967460
637+854856735+856097265+860819893+866087579+864799165+854644305+841830908
627+833749009+832533285+836576903+844150352+852916298+858619894+858275540
617+852991919+845418845+837460601+830358693+824344871+819633819+818212956
607+821314018+825027339+822948062+814564281+806496063+805709635
##END=
