##TITLE=<SNM>
##JCAMP-DX=4.24
##DATA TYPE=INFRARED SPECTRUM
##DATE=2/5/2025
##SAMPLING PROCEDURE=Instrument type and / or accessory
##ORIGIN=Admin
##XUNITS=1/CM
##YUNITS=ABSORBANCE
##RESOLUTION=4
##FIRSTX=4497.3318
##LASTX=599.83466
##DELTAX=-1.4281778
##MAXY=1.8498728
##MINY=0.36601025
##XFACTOR=1
##YFACTOR=1.7228283e-09
##NPOINTS=2730
##FIRSTY=0.39021319
##XYDATA=(X++(Y..Y))
4497+226495691+226388872+226020034+225090863+223617153+222498841+222612682
4487+223616340+224447896+224753716+224930472+225079048+224867782+224261626
4477+223757721+223882512+224609239+225306869+225320241+224660442+224035863
4467+224064769+224665891+225280524+225450983+225134507+224574694+224061378
4457+223913719+224342064+224952769+224760860+223268658+221360445+220663073
4447+221926607+224252302+226051587+226649007+226540476+226243790+225705859
4437+224914557+224194854+223663946+223159539+222771517+222787397+223130703
4427+223413273+223509903+223672197+224011732+224079317+223239320+221489249
4417+219649244+218702532+219064486+220311118+221460672+221781853+221457506
4407+221223821+221422996+221704477+221655868+221446591+221563148+222018289
4397+222311775+222179787+221770453+221129994+220238638+219452543+219301752
4387+219916921+220874496+221435261+221006466+219609094+217818216+216315168
4377+215677113+216134606+217166859+217874367+218013706+218115819+218566670
4367+219150234+219442631+219204707+218476406+217474409+216413545+215487072
4357+214944678+214911655+215130966+215205349+215143680+215371484+216117844
4347+217070939+217758346+217920156+217436975+216433922+215510667+215273886
4337+215561957+215643675+215177689+214508480+214072834+213941383+213960861
4327+214140506+214618896+215118044+214923505+213836278+212705372+212447313
4317+212946565+213544521+214025662+214507407+214945405+215241814+215398642
4307+215362419+215200765+215360171+216111392+216866505+216738185+215727383
4297+214692553+214230804+214258793+214559320+215022729+215399628+215501586
4287+215628764+216197798+216977510+217223321+216565114+215407188+214475751
4277+214120423+214088766+214024676+214040071+214506162+215383091+216175033
4267+216569715+216828691+217383056+218058596+218013828+216774460+215030807
4257+213937353+213930433+214578538+215203602+215450417+215527291+215877015
4247+216507596+216924473+216824591+216452518+216217605+216295984+216518806
4237+216431985+215770318+214955213+214682554+215102181+215825950+216510883
4227+217075679+217595827+218145521+218529997+218351875+217593924+216798419
4217+216454161+216600818+217035719+217431682+217385893+216809663+216125732
4207+215841103+216059531+216436603+216481753+216058787+215691246+216000664
4197+216809801+217321265+217251397+217076924+217024856+216715749+216087606
4187+215734510+215952090+216333435+216566602+216806462+217119236+217281825
4177+217219325+217114462+217051409+216885395+216544840+216302298+216474608
4167+216942723+217407931+217926695+218552710+218805458+218203730+217002489
4157+215902167+215341730+215264164+215273765+215029251+214597290+214260765
4147+214105511+214147443+214565167+215388384+216219611+216564180+216358968
4137+216056400+216127134+216490575+216615781+216291365+216036040+216449145
4127+217291356+217610721+216878995+215649280+214873685+214903248+215353078
4117+215664572+215644091+215558947+215721484+216032563+216200600+216339386
4107+216841284+217562925+217741982+217057325+216217051+216016908+216282941
4097+216241667+215674501+215196700+215403936+216105147+216541415+216295136
4087+215717782+215347456+215269181+215235864+215091871+214937482+215084692
4077+215747190+216599434+216941961+216469471+215523243+214553231+213748159
4067+213209640+213112457+213533329+214224438+214704385+214689093+214365559
4057+214113763+214090929+214238225+214490852+214780913+215003112+215155183
4047+215354358+215575658+215532602+215018301+214327226+214054308+214414497
4037+215015291+215366917+215399109+215420594+215764004+216478172+217263246
4027+217776562+217989091+218056399+217913773+217294816+216241442+215362021
4017+215294367+215939583+216546086+216606821+216325167+216149345+216305775
4007+216785151+217291875+217337024+216836873+216342759+216293458+216465942
3997+216539305+216684249+217153937+217736083+218082987+218265936+218580266
3987+219065558+219542599+219844284+219815811+219412220+218971437+219070575
3977+219901957+220971436+221558772+221429189+220905200+220322518+219756269
3967+219323392+219412791+220305929+221635837+222577047+222703153+222290238
3957+221701017+221054642+220621332+220985829+222523906+224741797+226277730
3947+226146832+225100671+224798329+225583490+226076393+225198754+223533965
3937+222470212+223084256+225589717+228911995+231017671+230741448+229218749
3927+228539818+229379279+230573722+231041716+231383084+232681387+234559847
3917+235248465+233423838+229678145+225965457+223989693+224363669+226996119
3907+231821082+238554777+245699847+250814145+252461757+250598070+245472320
3897+238574186+233327884+232660439+236199674+239826786+239938863+238642238
3887+239813380+242974903+244888133+245414751+246466983+246459649+243135987
3878+239407834+239445441+243285013+248477500+253411201+256367980+255403503
3868+252559320+251772464+252710232+251676751+247648608+243668123+242763966
3858+246483365+255852156+269480838+277723238+270844564+256475507+244826412
3848+239077987+239158321+243661550+250430880+257684481+264494030+269326708
3838+269705787+265661989+260417261+256024311+252261838+249103532+247522399
3828+247784678+249420389+253456714+261603297+271229023+274971101+271514137
3818+266857574+262746347+256766744+249960672+246202265+247479585+252972892
3808+259362140+263485892+266739927+271915340+276633312+276060196+271813781
3798+268233219+265074325+261001449+257710706+257327146+259550244+263004233
3788+267257498+272321163+277464297+282388173+288408063+296158667+303339823
3778+307614901+310804466+316841430+327908033+343522823+360441261+373846481
3768+381453387+384544869+385142358+385644637+388284075+392531718+395299268
3758+395573934+396717329+402529102+413773810+426896130+435312536+437718859
3748+440586671+447894970+456371575+460032626+460433432+464246641+474847154
3738+492198989+512666939+528688797+535314636+535925272+537176057+542894314
3728+553330525+565687803+575558146+581134140+584315124+586591051+587430651
3718+586622673+586097906+588744921+594801536+598920375+594829836+584549069
3708+574846901+569538307+568960642+571242450+573453335+573943159+573326572
3698+572871587+573957794+578095523+585804870+595379167+602237463+601288399
3688+593470452+585284185+581014019+581417005+585752006+592315190+599836779
3678+607972534+613314930+610612283+604286365+602967044+605533378+602702308
3668+591570248+579736872+573232711+571879761+572123739+571508813+570797568
3658+571454841+573344251+576370241+582158833+591549351+601130014+603522948
3648+595558587+583192106+572780528+566191223+562676240+561026656+560752268
3638+561903136+564125369+566863442+571042307+579156646+591265172+599739700
3628+595513957+583736524+575072162+573354803+577719004+584959043+589968685
3618+589805041+587488359+587399375+590412979+594925047+599477109+602534790
3608+601965323+597889039+593887276+593509616+597293279+602856472+607374491
3598+610006559+611491946+612278958+612314316+612296395+613813472+617162667
3588+619263256+616718441+611570135+608369362+607890539+607794429+607110239
3578+607241569+608690560+609789221+609489888+609296422+611207144+614980774
3568+618032919+618372107+617157615+616296220+615575219+613635851+610499912
3558+607946310+607357400+608402782+609891352+611136289+612373062+614186427
3548+616244324+616507192+612793692+606066795+600349991+598549703+599799484
3538+600919111+599882516+597807182+597486745+599939048+602791776+602762576
3528+599574396+595756066+593095836+591571978+590695014+589924747+588534709
3518+586435434+584757689+584655420+585782797+586586831+585905201+583861627
3508+581541416+580285719+580691161+581706789+581584800+580257626+579261648
3498+579183078+578884576+577422957+575611287+575161526+576553639+578061791
3488+577428770+574504184+570966505+567887374+565382311+563938684+564035901
3478+564711372+564313438+562622407+560939299+560241997+560181694+559635062
3468+557927529+555748231+554510628+554651991+555145344+554959005+553917705
3458+551866347+548960858+546760837+546881200+548592020+549565475+548623711
3448+546350863+543971802+542723993+543168287+544408277+544897582+544118977
3438+542877984+542091041+541913524+541854329+541349939+540351367+539207280
3428+538187430+537410486+536913535+536756361+537206917+538259392+538824949
3418+537431106+534054787+530267387+527548619+526347446+526360455+526956319
3408+527490842+527476138+526620797+525218201+524287335+524474574+525032762
3398+524683367+523316440+521903500+520977374+520299480+519814085+519960742
3388+520812484+521350606+520256753+517642641+515311981+514936119+516487759
3378+518542819+519659471+519249255+517598806+515556408+514107833+513855448
3368+514517012+515114571+515147784+515208121+515769422+516091693+515286760
3358+513849152+513168906+513771135+514704112+514793372+514152083+513833445
3348+514056076+513808708+512535851+511137441+510684117+511032750+511354364
3338+511330077+511210925+511069285+510556246+509529304+508541734+508200400
3328+508231641+507820006+506691384+505267649+503937223+502782064+501956996
3318+501685306+501829852+501895932+501619745+501385246+501845455+503111635
3308+504517829+505205098+504664105+503006599+501063010+499875054+499880174
3298+500760771+501933228+502867381+503231860+503051298+502681595+502588598
3288+503014937+503668543+503950716+503645363+503073163+502614269+502459690
3278+502635996+502922667+502965498+502655439+502126659+501476824+500824637
3268+500422620+500512399+500996238+501329476+501215341+501271837+502124411
3258+503008536+502534108+500713027+498835622+497616875+496854738+496540701
3248+496924140+497601548+497656938+496781496+495527114+494382473+493196523
3238+491716396+490264880+489479148+489537824+490076914+490698345+491078739
3228+490708620+489118371+486532731+483946919+482379295+482174827+482889255
3218+483707992+484103989+484059878+483651357+482731112+481203448+479378527
3208+477828479+476940824+476721306+477033752+477787966+478683197+479075354
3198+478494851+477054268+475067779+472719821+470375288+468666508+467909492
3188+467732217+467499483+466951952+466250152+465415846+464115208+462328101
3178+460825312+460299853+460332859+459967342+458969946+457751579+456455403
3168+454983510+453568666+452614274+452241319+452320546+452570267+452489691
3158+451633069+450077555+448357497+446950092+445963352+445286981+444785948
3148+444303009+443699568+443006383+442398030+441925643+441398212+440609228
3138+439623215+438738363+438095516+437459070+436600512+435746174+435312605
3128+435346233+435459331+435119831+433961386+432118128+430235983+428950706
3118+428486345+428705483+429148877+429126147+428263160+426929620+425814075
3108+425163341+424697181+424179230+423745661+423540812+423314894+422705641
3098+421750938+420849202+420356091+420284925+420219952+419621113+418446165
3088+417365425+417163414+417904481+418726678+418632090+417581691+416479777
3078+415973485+415792093+415419276+414801340+414099298+413278969+412293855
3068+411296874+410425134+409639610+408867682+408063787+407189141+406433820
3058+406273740+406891019+407705293+407891771+407268437+406328022+405490153
3048+404622184+403396206+401970430+400974590+400754969+400958780+400971719
3038+400553580+399985982+399674471+399612611+399346941+398539309+397323260
3028+396021826+394859818+393979532+393391591+392917682+392397482+391862371
3018+391377563+390894313+390380409+389911413+389456359+388743004+387650258
3008+386594393+386111143+386169992+386274683+386044751+385364505+384249480
2998+382898537+381657198+380785527+380407001+380505707+380748889+380542656
2988+379545537+378067312+376820783+376287471+376316117+376310547+375834596
2978+374963237+373983451+373003734+372095667+371512224+371364494+371314813
2968+370973064+370390417+369863678+369459032+368963672+368221844+367398505
2958+366804094+366386267+365679312+364519864+363407675+362820322+362624400
2948+362468990+362330291+362350392+362423564+362247812+361695782+360943021
2938+360233472+359665909+359219262+358824060+358365754+357751381+357034048
2928+356380891+355849344+355257493+354440001+353598880+353095667+352885110
2918+352539555+351886191+351236979+350887134+350699896+350334586+349763563
2908+349354350+349355146+349505470+349363207+348847055+348204278+347571395
2898+346822751+345885069+345041699+344666737+344637883+344373286+343597275
2888+342701733+342197378+342154651+342286811+342318779+342172192+341910638
2878+341603936+341294293+341011428+340705972+340283335+339787803+339351950
2868+338941665+338413265+337765264+337105742+336492476+335969785+335577905
2858+335236848+334835696+334437692+334199181+334128084+334055050+333797648
2848+333302600+332654253+331969856+331344792+330917104+330848256+331124340
2838+331441594+331414920+330934714+330248379+329675557+329328550+329100798
2828+328768978+328121254+327186928+326292735+325702579+325320836+324937709
2818+324595199+324491997+324608900+324624365+324238470+323450040+322451536
2808+321445733+320675466+320346587+320359285+320371013+320191074+319859912
2798+319407072+318820515+318148780+317428817+316671939+316012382+315639254
2788+315519964+315418006+315207518+314935206+314565433+313959952+313181347
2778+312533242+312180249+311943917+311559925+310958491+310208325+309367722
2768+308551995+308028577+307989760+308222978+308242491+307771972+306925072
2758+305982097+305184291+304630567+304212808+303742877+303176525+302606990
2748+302105749+301668858+301233697+300699140+300003637+299223094+298560770
2738+298179961+298021161+297868900+297633640+297429483+297328045+297196369
2728+296836284+296194683+295438635+294841076+294520362+294301294+293919032
2718+293329777+292742908+292364590+292173650+291958422+291531634+290895430
2708+290231998+289739182+289456248+289297707+289237924+289269182+289164474
2698+288589801+287570609+286560516+285908864+285501468+285050462+284525972
2688+284137292+284036701+284207074+284525972+284762130+284624106+284018313
2678+283201029+282529069+282134715+281927929+281779664+281581475+281280205
2668+281009881+281027906+281335646+281529926+281241335+280577886+279937271
2658+279528300+279263755+279005540+278738763+278521286+278353059+278116087
2648+277662001+277008049+276411598+276132158+276111676+276043797+275775498
2638+275433835+275137685+274844960+274535819+274307271+274214672+274183293
2628+274102561+273906258+273581150+273171487+272749889+272359306+272039751
2618+271889842+271971197+272141293+272145825+271926100+271680998+271566914
2608+271485196+271253431+270899106+270677893+270790956+271129470+271350873
2598+271214042+270797478+270370759+270107078+269965161+269820407+269643703
2588+269525710+269555498+269697242+269788509+269677401+269375300+269052510
2578+268871274+268841244+268843769+268774229+268635513+268493942+268385204
2568+268305561+268276431+268351523+268517278+268646480+268655562+268661997
2558+268830968+269103592+269253899+269182266+268998885+268845032+268733163
2548+268560524+268268439+267943383+267675170+267404241+267053065+266687132
2538+266403472+266194177+266005468+265803335+265561208+265276614+264982557
2528+264722388+264552620+264509858+264532883+264501711+264363755+264140916
2518+263875679+263655642+263596100+263706205+263827018+263757495+263448838
2508+263080156+262912827+263031945+263270283+263431644+263506615+263574858
2498+263612326+263550605+263436297+263364699+263314827+263185348+262951005
2488+262694071+262501591+262372457+262230835+262018081+261736513+261417633
2478+261125998+260943014+260841040+260678590+260429664+260246197+260178075
2468+260062712+259824408+259639452+259655574+259737656+259618832+259208270
2458+258689869+258349729+258314665+258469383+258621315+258651069+258491196
2448+258141576+257761373+257552667+257509645+257464185+257356606+257254147
2438+257160873+257023385+256880326+256834122+256890031+256925354+256822342
2428+256587965+256321153+256088453+255901976+255817905+255944374+256286590
2418+256656847+256811150+256674474+256405517+256226167+256187435+256143688
2408+255984784+255814238+255796870+255912355+256021889+256133776+256414322
2398+256935353+257601673+258403769+259637394+261824597+265538323+271383187
2388+280029351+292099405+307983844+327756844+351194909+377831395+407008856
2378+437904679+469612839+501281282+532004294+560528045+585508235+606216184
2368+622467766+634074566+641303950+645278173+646728824+644919887+638392476
2358+626371204+609277809+587391695+560318837+531064640+507380140+495808595
2348+498181324+512223129+531556194+547591960+556106828+559080750+559679173
2338+559750270+560270747+561707006+563732001+564969466+563960929+560747666
2328+556634190+552367276+547393615+540723319+532027854+521976327+511588897
2318+501352725+491205260+481193034+471539406+461995486+451777685+440385386
2308+428044196+415352539+402905240+391175032+380383337+370444215+361123341
2298+352218876+343629797+335392188+327641601+320453111+313742683+307388706
2288+301432768+296080201+291478320+287580659+284274296+281523819+279302244
2278+277480990+275883561+274377486+272864647+271293927+269756645+268457235
2268+267493415+266746847+266051136+265351291+264642763+263903391+263159763
2258+262496332+261939943+261419899+260860293+260246819+259607363+258986244
2248+258444248+258025815+257692905+257348804+256962805+256588518+256230215
2238+255826503+255416563+255162137+255132141+255198360+255205089+255126727
2228+255009910+254875830+254749706+254685183+254671448+254609554+254472688
2218+254380470+254407646+254439216+254343002+254184617+254134832+254226462
2208+254328021+254343088+254327277+254380124+254495609+254572362+254541900
2198+254451204+254421796+254540568+254785168+255048745+255230224+255302255
2188+255303863+255284904+255271463+255266256+255247643+255170786+255004963
2178+254778993+254595975+254586530+254781224+255023247+255099983+254961561
2168+254715611+254459282+254236305+254087503+254022582+253988227+253939134
2158+253890940+253853074+253758555+253536010+253241901+253029510+252965921
2148+252973705+252990485+253085938+253375134+253903067+254664702+255663585
2138+256874376+258191534+259513882+260885479+262475764+264421134+266752918
2128+269464577+272565677+276034231+279764027+283616261+287517070+291445072
2118+295328894+299021602+302351802+305126134+307101033+308035497+307819300
2108+306540804+304396137+301563995+298230680+294647402+291028006+287439002
2098+283879579+280416612+277201741+274385339+271999169+269937812+268102304
2088+266485155+265062562+263747583+262522971+261483748+260719483+260256714
2078+260074492+260070081+260065012+259940359+259739264+259607658+259682871
2068+260018514+260508788+260895980+260992211+260875135+260726005+260573622
2058+260360315+260127875+259958367+259844180+259750941+259733037+259898272
2048+260262267+260691166+261056700+261386720+261734956+262008411+262101355
2038+262086427+262114969+262226891+262348793+262433227+262562256+262862973
2028+263308686+263726946+264017076+264226890+264485554+264976364+265771921
2018+266563811+266832716+266438640+265788545+265357830+265290366+265443458
2008+265617446+265720683+265787871+265876491+266007354+266201616+266448949
1998+266688931+267036960+267855334+269192247+270340971+270521169+269834955
1988+268962316+268293556+267878946+267757839+267910845+268185372+268461317
1978+268700642+268868714+268970965+269089736+269363537+269990538+271029001
1968+272042311+272326958+271782107+271103851+270881341+271035539+271295812
1958+271666588+272175734+272631792+272895455+273093765+273426865+273966007
1948+274776354+276142312+278290023+280563200+281413645+280123040+277916462
1938+276412912+275974119+276078584+276356779+276745303+277122686+277292212
1928+277400639+278141688+279966748+282118524+283435734+284093976+284964990
1918+285558760+284617411+282549066+281160499+281408663+282693283+283747211
1908+283797896+283089298+282368764+282033813+282003091+282194585+282780087
1898+283944379+285420615+286499210+287003357+287774679+289249877+290289395
1888+289688463+288049760+286725353+286152946+286102348+286376010+286783805
1878+287128166+287405080+287855671+289137264+292261872+297411701+302416464
1868+303715407+300513285+295853937+292718448+291727003+291964303+292391092
1858+292513219+292408632+292391195+292638183+293274802+294593985+296925440
1848+300557500+305459545+310007870+310922718+307396871+302935384+300648697
1838+300538506+300994909+301315035+302678052+306423243+311494295+314660955
1828+314640197+313370973+312003977+309833017+307092314+305315414+305076245
1818+305531991+305939854+306659610+308452633+311100996+313127825+313324993
1808+312232802+311490385+312443601+315494881+319679246+322810411+323322965
1798+322241048+322313425+325484445+331047881+334989410+333447734+328301677
1788+324452556+323930176+325505896+327496467+329469117+331184850+332024346
1778+332515623+334743357+340389167+348504891+354674050+354849318+350479028
1768+345307784+341467728+340381418+342660459+346394994+348495688+348845256
1758+349365248+350196302+351075204+353887764+360383415+368576532+373512344
1748+373125342+370216809+368115735+368214302+370269708+372786326+374094957
1738+375147016+379328164+387480353+393764789+391831337+384978161+378521155
1728+373917405+371617087+371758658+373486154+376647487+383064810+394078722
1718+406442123+412058319+407694741+399160152+392176719+388996288+390218011
1708+395298646+401847022+406927934+411092095+417852758+427611976+434838038
1698+435647988+431842529+424529801+416058317+411166443+411579670+415576416
1688+422081373+432581935+446170623+453408136+447795054+437867868+432072460
1678+432363109+437204471+442923109+446906604+450710541+455625664+457979884
1668+454399789+449287187+448515467+452261904+456018651+456437966+455802973
1658+458689122+468176304+485080731+503644844+509155969+503326067+501830855
1648+507412973+511871520+508042984+500824775+497574805+500249808+508627638
1638+522084650+536930972+544466193+541665395+537446501+538926248+546422548
1628+556982166+568404980+580847954+593676512+604001840+611678839+621035521
1618+634697243+648395291+655101638+656377643+658552547+663757316+670122329
1608+675142626+678318559+680994081+684120817+687128471+689149833+690511639
1598+692374963+695375835+699023602+702442405+705569972+709002960+712779566
1588+716294549+719249546+721834424+724291778+726996915+730868731+737275330
1578+746669515+755973748+759955444+760183715+763441920+771951253+781769666
1568+788324893+792926083+799456469+809674477+824693508+846340349+871295422
1558+884095195+880726350+875141014+872662280+871596970+870560929+869583702
1548+869832386+873291045+880744755+890683566+900415072+904343558+894535870
1538+876051607+861997763+855680009+852841189+848789953+844237683+842994199
1528+845871283+850379130+854633728+858908391+861921442+860551263+855762004
1518+851286471+847434167+843085881+839745059+840263806+846186877+857069701
1508+868583435+869837990+856579600+842169200+835755128+836781275+841424327
1498+844511000+841916434+835446800+831496449+833754801+840271002+844649664
1488+841886681+834345925+827664073+824590893+824321036+824785051+825457270
1478+827842524+833153782+840252527+845172009+843167876+834637646+826032341
1468+822364716+823998108+827658468+829413780+829740929+832696894+840362061
1458+849151699+850192791+841359838+830984552+824552767+822587382+823407676
1448+823986069+822076869+818451107+815291573+813871782+815059288+819742957
1438+826666850+830591323+827631690+821817946+818508192+818125480+818122435
1428+817138013+816291217+816739594+818305661+820886318+824912991+828689527
1418+827800938+821329921+813690771+808479013+806164268+805552386+805650088
1408+806492524+807907541+808377921+807103438+806091200+807459579+810507918
1398+813260315+815029673+815441862+813501871+810138077+808424143+809705545
1388+811605403+810667549+807308667+805475097+807481168+812294575+817796601
1378+823035690+828235407+833207823+836506367+837128213+836376905+836266956
1368+837327976+839174693+841764000+844781686+847053393+847934093+848032487
1358+847744433+846688533+844943808+843629053+843683302+844756776+845902905
1348+846792531+847497133+847949593+848605828+850617434+854222301+857589070
1338+858531077+857076066+854989039+853512647+852785834+852810675+853903662
1328+856180558+859312346+862926691+866764880+870550480+874195133+877970285
1318+882096459+886270099+889873097+892562112+894541059+896436904+899003930
1308+902712518+907147158+911041047+913590568+915387327+917337143+919433581
1298+921146062+922192551+922684728+922844497+922463861+920900908+918149065
1288+915278346+913226331+912014260+911307098+910731266+909786077+908259797
1278+906499641+905008442+904216449+904378985+905208413+906206605+907376052
1268+908952497+910705388+912295949+913949131+915742153+916871053+916771759
1258+916499896+917745802+920653747+923590892+925183460+925850143+926881894
1248+928569811+929862839+929858964+928930796+927807432+926373319+924385031
1238+922539351+921621079+921539222+921925324+922527035+922679469+921801329
1228+920448449+919434896+918394288+916525360+914125229+912329715+911838992
1218+912561861+914096514+915956101+917521476+918428193+919008938+919862584
1208+921014594+921934735+922303054+922232545+922070147+922624322+925039605
1198+929602185+934883136+938721186+939952423+939216130+938726375+940960856
1188+946434927+952554094+955805448+955479821+954028755+954103415+956551497
1178+960349829+963280262+963643876+962493112+962973664+966526565+971097379
1168+973856626+974513415+974571261+974610702+974363748+974387551+975445803
1158+976943299+977666099+977405307+976856045+976870299+978176542+980736580
1148+983613941+985930347+987354566+988086430+989166132+991927178+996275326
1138+1000292796+1002174525+1001938989+1000918655+1000356938+1000679797
1130+1001513584+1002233132+1002838994+1004394544+1007954088+1012773308
1121+1016538289+1017917255+1017650581+1016884466+1016093026+1015627765
1113+1015787050+1016584095+1018159918+1020288047+1021686595+1021049180
1104+1018639017+1016758948+1018211813+1023978160+1031801989+1037422544
1095+1038408834+1036318554+1034462012+1034517782+1035840147+1037535399
1087+1039743239+1042250274+1043625227+1043169585+1042685712+1044435627
1078+1048066994+1051417088+1053815005+1056388881+1058521715+1057393439
1070+1052833904+1048633208+1046926332+1045498861+1042460140+1039968397
1061+1040776305+1044617261+1049448313+1053097740+1053912637+1052689081
1053+1052182027+1053170463+1053722561+1052883585+1052249768+1053009310
1044+1054351396+1055297208+1056422025+1058694492+1061514284+1063858160
1035+1066529254+1070496143+1073741823+1073182874+1069262484+1065316422
1027+1063269596+1062279984+1060273498+1056552525+1053090821+1052201402
1018+1053682498+1055528731+1056509763+1056360096+1054520714+1051005800
1010+1047598828+1046449171+1047746419+1049532314+1049957235+1049136318
1001+1048584081+1049533906+1051690820+1053001422+1051732267+1048905763
993+1046974975+1046563617+1046129841+1044144251+1040305648+1035428305
984+1031370841+1030280898+1032773333+1036909401+1039633844+1039726633
975+1038697926+1038190596+1037716964+1035793026+1032314439+1028691098
967+1025871376+1023294801+1020286940+1017486315+1015681737+1014240288
958+1012149801+1009677778+1007553386+1005848654+1004609806+1004005258
950+1003123728+1000766913+997788805+996114588+996038198+996276848+995529969
940+993386202+990687431+988892263+988460077+988298717+987447286+986259433
930+985275703+983838060+980770762+976378953+972704962+971370280+971995309
920+973333174+974959716+976741045+977844757+977647001+976761734+976031668
910+975325959+974215466+972775747+971126786+969420187+968419850+968776268
900+969744845+969606249+967542056+964599860+962714878+962952698+964534056
890+965861404+966239341+965685582+963937535+961182855+958992383+958688483
880+959382014+958991898+956585056+953206454+951006225+951374752+953581139
870+955965701+958018824+959804512+960463792+959028640+955902112+952218918
860+948601597+945728111+945023647+947571299+952202312+955453043+954864895
850+951685848+948678125+946973671+946520727+947690935+950623721+953878604
840+955201108+953697316+950941390+949940015+952592150+957517375+960791079
830+959828730+955954838+952125852+949556681+947699654+946261112+945699672
820+946252047+948095997+951822990+957265025+962727749+966529887+968326300
810+968091110+965761419+962698895+961019073+960685974+959608209+957381132
800+956618062+959377654+964068243+967013414+966664192+964561111+962405997
790+960663832+959618519+960188538+962836245+966263282+968466694+968662998
780+967428024+966117560+966897168+971305514+977047782+978275836+972228838
770+963391180+957912542+957359682+959187164+960797168+961961979+963333888
760+964086441+962828218+960167227+958443467+958761621+959770814+960485657
750+962419905+966368526+969418526+968470984+965157840+963780534+965536469
740+967673870+968238631+968958179+971985276+976223128+978996698+979961054
730+980013988+978411594+974771578+971505831+971355680+973945955+976070971
720+975210959+972144629+968950152+966204122+964358373+965027617+967916464
710+969545359+967877923+964775405+962583202+961809337+961374177+959699614
700+957337679+957239146+960442826+963399968+961977894+956322603+949523952
690+943811093+939953253+938412166+938942399+940354647+941070459+940302752
680+939280065+939122788+938598436+936265770+933258047+931245610+928807216
670+922418262+912702463+907808583+911169056+917060575+920422985+920152299
660+918058144+915925379+913150702+908113036+900942468+894578493+892386775
650+894846758+899356197+902431037+902128452+899767901+897037162+892215105
640+883929683+876603013+876499153+883065589+888788413+888144771+884516655
630+884395082+887807381+889166904+885668527+880443831+877219670+876774268
620+878378461+879925637+878141748+873259423+870403928+872182074+874258722
610+872255903+869070007+871258127+881886178+897839119+910725938+912334421
600+903634251
##END=
