##TITLE=<SNM>
##JCAMP-DX=4.24
##DATA TYPE=INFRARED SPECTRUM
##DATE=2/5/2025
##SAMPLING PROCEDURE=Instrument type and / or accessory
##ORIGIN=Admin
##XUNITS=1/CM
##YUNITS=ABSORBANCE
##RESOLUTION=4
##FIRSTX=4497.3318
##LASTX=599.83466
##DELTAX=-1.4281778
##MAXY=1.8672855
##MINY=0.39936319
##XFACTOR=1
##YFACTOR=1.7390451e-09
##NPOINTS=2730
##FIRSTY=0.43221465
##XYDATA=(X++(Y..Y))
4497+248535613+249423816+248842522+247448122+246550031+246256471+245824015
4487+245203306+245124149+245896471+246957827+247584568+247426478+246389147
4477+244713920+243119511+242274494+242258779+242778122+243443215+243728001
4467+243355919+242873438+243290626+244985852+247077513+248024719+247114375
4457+245213863+243816377+243734804+244777430+246009405+246285107+245291237
4447+244003618+243485818+243594434+243371291+242476884+241857444+242699993
4437+244757380+246329870+246170323+244666141+242986390+242029724+242221934
4427+243332955+244417292+244676424+244340432+244080273+243748034+242500362
4417+240321490+238598844+238622373+240008582+241123356+240899167+239778362
4407+238820359+238517631+238746875+239341449+240197366+240993302+241355376
4397+241241140+240900555+240647799+240588522+240522955+240379003+240453584
4387+240807792+240862768+240121259+238917870+238091789+238199531+239049980
4377+239833698+239922622+239471983+238930997+238454875+238184930+238346962
4367+238737175+238946266+239183239+239859095+240380082+239588705+237516220
4357+235616993+235049975+235521710+236000951+236029570+236056424+236592424
4347+237277191+237100369+235741563+234224700+233747978+234274775+234798178
4337+234646720+233981780+233301075+232964124+232999820+233122934+233188603
4327+233554294+234486350+235362077+235189746+233950351+232778511+232782281
4317+234056139+235698514+236563839+236161646+234972224+233938561+233754216
4307+234473223+235518283+236138922+236065370+235651713+235346140+235207620
4297+234945352+234301937+233484819+233193830+233848882+234848630+235146783
4287+234571951+233876164+233342118+232334744+230722427+229645098+230113114
4277+231713093+233178938+233675711+233361295+233096491+233577960+234611966
4267+235481763+235866150+235924965+235776591+235466871+235296253+235670152
4257+236511742+237150976+237050329+236328408+235419709+234708157+234493994
4247+234716331+234880385+234839410+235050198+235485602+235303142+234254262
4237+233391525+233724037+235020122+236291083+236754507+236227419+235206643
4227+234653181+235169472+236193179+236380917+235118969+233361346+232571734
4217+233130697+234274346+235271319+235939154+236174551+235810506+234963998
4207+234036002+233442833+233491726+234120712+234764829+235022795+235216822
4197+235722558+236231720+236250297+235752068+234956766+234019122+233130200
4187+232536911+232416934+232857033+233723300+234457697+234391068+233554191
4177+232901967+233363026+234819017+236362923+237360735+237792968+237791512
4167+237476428+237125955+236984865+236946769+236697012+236134295+235498815
4157+235076143+234899356+234839188+234845768+234914180+234999437+235132970
4147+235347356+235458542+235310957+235151290+235303657+235594012+235521659
4137+234947974+234311037+234144909+234570802+235329825+236164268+236916128
4127+237317789+237083884+236259979+235197046+234257158+233750737+233834589
4117+234228230+234466471+234555396+234807827+235029427+234609892+233487184
4107+232398203+232129320+232898694+234338182+235720947+236300989+235753285
4097+234394804+232988184+232237027+232264121+232558624+232621226+232625304
4087+233127407+234143847+234960485+234985728+234355354+233548296+232907691
4077+232689569+233008509+233520122+233631171+233127012+232302080+231672306
4067+231778762+232803257+234091664+234596782+234042412+233168090+232723141
4057+232670255+232466100+231834544+231131200+230982106+231554711+232373491
4047+233026589+233687364+234564650+235265201+235264138+234681903+234102992
4037+233871931+233880191+233904697+233956400+234187564+234462598+234401710
4027+234067072+234030776+234473292+234857216+234722638+234207666+233713789
4017+233518751+233613023+233662960+233360249+232828551+232440000+232414089
4007+232780413+233414523+234053140+234580468+235188529+236004259+236774455
3997+237152141+237037836+236488178+235649793+234905509+234635409+234740889
3987+234864568+235021047+235447814+235963815+236047924+235543303+235000534
3977+235201502+236230538+237174659+237201307+236711013+236666113+237104277
3967+237256438+236893524+236605739+236799304+237188180+237357461+237297481
3957+237209842+237186124+237327266+237886606+238960456+240125304+240701524
3947+240548661+240295116+240469418+240801931+240728652+240199285+239502059
3937+238885292+238855353+240002053+241949745+243232240+243011873+242154757
3927+241830693+242062524+242135837+241868309+241901384+242751473+244082672
3917+245007171+244928957+243946980+242542588+241267325+240735045+241520321
3907+243874969+247488154+251386862+254338826+255601922+254900737+252272340
3897+248914567+247056623+247931973+250252672+251064032+249366440+247947071
3887+249318696+252331652+254115837+254354078+254459609+253825019+251443380
3878+249099203+249018093+251118956+254133266+257151791+258962590+258366885
3868+256508718+255516544+255385445+254508433+252416720+250401320+249933201
3858+252101928+257743846+265871477+270603154+266707309+258628535+252122030
3848+249106058+249601254+252556080+256165803+259318855+262355443+265283655
3838+266546134+265394241+263369707+261689338+260050887+258298011+257200169
3828+257186853+258049830+260163769+264075244+268148134+269131945+267263153
3818+265626587+264655269+262623108+259482567+256999390+256764611+259327047
3808+263375276+266495253+268468411+270766232+272636103+272045865+270255647
3798+269837431+270463195+270496681+270097128+270658302+272728438+275896931
3788+279717647+283823526+287732224+291573214+296463067+303098239+310503692
3778+317305746+323727937+331046916+340291018+351787149+364435311+375748006
3768+384124486+389698147+392900640+394640371+396254796+397795120+398131180
3758+397493917+398013310+401400816+407782083+415510813+421476572+424746996
3748+428509635+435260414+443515289+449369177+452747497+457449081+465596883
3738+476944572+489948638+502195447+511643138+518356866+524149917+531083207
3728+540609112+552325182+563367865+570922994+574597513+575504413+575200673
3718+575342021+577309643+581786353+587303495+589233484+584531728+576812665
3708+570740895+567508480+566984220+568622123+570461764+570730338+570322165
3698+571096937+573407645+576557938+580403246+585343688+590389901+592502023
3688+590224698+585749565+581451561+578592806+578292151+580953623+585660177
3678+590926089+594527706+594000635+590478740+586994958+583951532+580178063
3668+575996524+572987990+572003150+572562439+573494496+574522212+576150758
3658+577390256+576022709+572938943+572232035+575666325+580040897+579522806
3648+573246795+566557710+563007538+562297682+562921201+563695322+563890994
3638+563421470+562948621+563106214+564128515+566277723+569170889+570539190
3628+568539487+565273313+563258461+562798259+563362655+564163715+564305611
3618+564212590+565768543+569741215+574301520+576815544+576634027+574990194
3608+573152781+571971070+572279333+574860603+579811053+585824488+590726132
3598+593307402+594025587+593799308+593398915+594032784+596580466+599896920
3588+601485125+600639508+599146038+598372809+598384393+598931069+599296845
3578+598396869+596363577+594972382+595749587+598490164+602004519+605470341
3568+607967639+607931445+605299655+602363783+600710868+599601064+598046448
3558+596626188+596214347+596380509+596167734+595627296+595720042+596785632
3548+597664015+596765684+593893151+590413344+587568779+585537475+584014186
3538+582903971+582490074+583059097+584274534+585357123+586104578+587015179
3528+588228423+589056560+588514271+585991405+582212863+579539052+579721872
3518+581337016+581074406+577845762+573548135+570186370+568705169+569513667
3508+572002602+574351355+575217331+574942142+574373256+573611680+572577177
3498+571532632+570501488+569133873+567453093+566025429+565438515+565939846
3488+566971573+567177459+565897792+564011297+562258027+560185011+557749099
3478+556084256+555615315+555157649+553773891+552185377+551525562+551550993
3468+551135588+550258610+550144820+551247048+552469615+552664704+551599320
3458+549620765+547661917+546765506+546648527+546002250+544684950+543999874
3448+544456511+544790960+543715705+541438037+539012853+537058426+535543603
3438+534428693+533920610+534129272+534888106+535855465+536434188+535801415
3428+533510277+530204482+527506165+526820061+527945288+529112158+528783947
3418+526940604+524485703+522400212+521508633+521970240+522793681+522726332
3408+521733301+520961066+521127468+521589109+521434258+520743252+520001932
3398+519072069+517850257+517172585+517600020+517944614+516497003+513530558
3388+511161343+510884509+512267479+513757454+514194692+513571516+512460718
3378+510970195+508988212+507321073+507438360+509698068+512490880+513571516
3368+512241945+510106858+509511547+511107464+513138288+513466773+512054773
3358+510719889+510781069+511735370+512229983+511814030+511240825+511278527
3348+511777425+512000825+511607835+510881322+509945940+508503264+506693887
3338+505361643+504952304+504967522+504908879+504946409+505354000+505976216
3328+506325746+505865819+504569734+503238587+502612669+502314550+501420435
3318+500035786+499297448+499697772+500346483+500149097+499108904+497912969
3308+496909279+496297311+496629429+498088625+499653010+499946398+498927148
3298+498077315+498798242+500856074+502674431+503137306+502531301+501588722
3288+500465380+499142905+498244025+498747858+500744202+502866847+503508292
3278+502481569+500927639+499766938+499092247+498826895+498912787+498878238
3268+498058464+496336932+494451294+493535141+494094361+495230042+495315145
3258+493901876+492344381+492020249+492731099+493324902+493206930+492758141
3248+492709814+493356331+494182720+494337640+493538637+492267778+491096555
3238+490170256+489419374+488913176+488676203+488350974+487494526+486145042
3228+484738183+483641678+483018433+482776936+482515937+481905270+481082275
3218+480335060+479604742+478625386+477343560+476034862+475041900+474427738
3208+473993550+473655194+473598059+473880651+474066589+473607039+472551697
3198+471469656+470601761+469637932+468469759+467411298+466499086+465437850
3188+464336341+463599271+463151545+462535223+461597443+460621755+459997105
3178+459895824+460071412+460052047+459614672+458845178+457781611+456286906
3168+454337895+452303918+450721574+449714354+448867709+447856581+446963151
3158+446688065+447003561+447262401+446904268+446029450+445027679+443943718
3148+442668986+441453618+440582535+439790901+438710916+437687004+437404515
3138+437748595+437643544+436240866+433937904+431995953+431360610+431917602
3128+432705809+432851510+432313882+431532907+430639409+429566210+428617393
3118+428192768+428075173+427592967+426550444+425561286+425253880+425436768
3108+425353687+424620832+423554832+422624077+421992264+421645339+421475509
3098+421135268+420263363+418962411+417767402+417083903+416853373+416798020
3088+416842303+417100491+417460132+417470174+416852859+415906064+415126871
3078+414662762+414389904+414219561+413996058+413391732+412288167+411061693
3068+410194826+409711935+409204366+408399981+407520844+406965600+406768179
3058+406532646+405933291+405127466+404512516+404238698+404134847+403939928
3048+403441751+402581122+401540964+400579637+399848805+399494579+399571491
3038+399629552+398976385+397653807+396476311+395898926+395543843+394919399
3028+394006433+393140903+392666032+392555565+392331205+391615694+390561038
3018+389479202+388508176+387853124+387761749+388022988+388009998+387370987
3008+386306357+385191618+384253323+383565471+383109108+382807460+382540840
2998+382112136+381305455+380145165+379031523+378398442+378253427+378244413
2988+378091001+377792163+377533700+377466693+377446129+377072641+376227161
2978+375339284+374786850+374347659+373637049+372744065+371999351+371415488
2968+370766366+370027925+369414209+369087026+369040961+369109578+368920658
2958+368107019+366760757+365426868+364551878+364192065+364187096+364291290
2948+364226306+363883459+363392308+362886624+362392388+361971910+361741141
2938+361673106+361494571+360883665+359845118+358800093+358122592+357666126
2928+356992978+356036278+355262740+355103981+355396376+355509961+354987380
2918+353967889+353011121+352563498+352563086+352540328+352114606+351336202
2908+350571746+350185200+350248059+350383238+350012423+348950638+347642523
2898+346673656+346195974+345970586+345823172+345784648+345772720+345466856
2888+344718510+343859526+343351443+343303185+343538238+343902403+344196923
2878+344000325+343029710+341680568+340736104+340460299+340432605+340329850
2868+340301197+340431131+340416427+340006780+339349912+338745381+338321716
2858+337982366+337492242+336718430+335906951+335533258+335751825+336150642
2848+336153623+335572330+334701076+333968325+333561763+333347274+333089325
2838+332673269+332108393+331451662+330802986+330295760+330031950+329987496
2828+329936941+329578569+328869124+328110907+327605463+327384599+327294732
2818+327130283+326736231+326177559+325695696+325363852+324967812+324319684
2808+323512557+322801638+322338215+322073720+321903856+321823757+321857586
2798+321916469+321849463+321556554+320990307+320216461+319509587+319136339
2788+318980151+318639567+317977043+317296286+316877968+316605932+316195257
2778+315578044+314892866+314258928+313740562+313420063+313287113+313077868
2768+312463671+311492439+310648022+310343734+310484739+310591435+310254449
2758+309458462+308540972+307823678+307305930+306786091+306165176+305499946
2748+304911421+304547941+304457902+304450191+304245401+303730635+302969333
2738+302135369+301504344+301252428+301203210+301003905+300548021+300008235
2728+299521128+299067267+298626361+298269051+298051718+297888846+297593367
2718+297062937+296397637+295784915+295294552+294855874+294403247+293930090
2708+293429924+292941789+292627082+292610219+292755028+292761608+292479222
2698+292010589+291527149+291062218+290511874+289846918+289240090+288870304
2688+288673604+288423092+288013720+287576824+287336733+287371093+287489425
2678+287402437+287035701+286594402+286302658+286150137+285928057+285528915
2668+285139404+284988888+284987243+284851722+284521609+284183629+283956922
2658+283777907+283530720+283147104+282648824+282153285+281790354+281604484
2648+281531686+281439796+281231237+280929091+280617194+280333780+280095076
2638+279945503+279897622+279881136+279792862+279561013+279170268+278672845
2628+278177769+277808531+277635206+277610511+277598172+277502444+277336231
2618+277146454+276952032+276773377+276652629+276620120+276651892+276641404
2608+276454729+276079390+275668852+275389927+275295656+275332381+275363896
2598+275246541+275005798+274841469+274851460+274880491+274732511+274422482
2588+274157919+274122925+274302899+274506112+274533171+274290903+273803162
2578+273222160+272767974+272535851+272431177+272370785+272434827+272724377
2568+273154023+273486364+273576591+273530184+273571107+273768613+273957157
2558+273940791+273727913+273512104+273429126+273419478+273368632+273270676
2548+273177535+273063761+272817894+272364359+271786065+271282643+270973403
2538+270808321+270687932+270558992+270392881+270193250+270018537+269920803
2528+269880205+269815170+269653206+269428675+269258520+269145072+268916256
2518+268485651+268042912+267859098+267999229+268305042+268582287+268727919
2508+268704527+268504878+268195570+267910030+267739926+267693005+267728170
2498+267748992+267655577+267491129+267409042+267448012+267492603+267454644
2488+267349936+267226719+267111643+266976808+266750837+266444150+266205721
2478+266152253+266212147+266223972+266118201+265932297+265707766+265458557
2468+265229656+265095883+265052886+264981321+264787362+264514041+264260446
2458+264064379+263903735+263738738+263541901+263343178+263227845+263248632
2448+263358636+263444956+263420827+263280987+263050013+262710782+262263519
2438+261821551+261540056+261476494+261577346+261719019+261734666+261529345
2428+261209857+261003011+261027911+261210628+261402667+261515773+261541256
2418+261500898+261418399+261321848+261251140+261247661+261321214+261448338
2408+261616556+261803420+261911624+261855311+261704042+261610336+261663923
2398+261927836+262484331+263403433+264868730+267344846+271447554+277732322
2388+286744472+299100513+315304946+335456243+359138107+385601231+414055284
2378+443723848+473711815+503087437+531017401+556548811+578549346+596362344
2368+610143718+620047429+625602136+626352333+622940321+616759902+608418552
2358+597252860+582343105+563137952+539965646+515967910+496878467+487329461
2348+488957630+500598468+517613524+532684676+541163843+543999120+544489517
2338+545106010+546504404+548201395+549819693+551060699+551196939+549803756
2328+547352762+544244250+540029190+534142536+526830891+518852508+510582312
2318+501907542+492869087+483951518+475566058+467406637+458551173+448299920
2308+436789701+424741752+412835974+401411372+390539582+380224065+370535734
2298+361520997+353011018+344744387+336726348+329229142+322388084+316057440
2288+310131850+304751976+300072979+296030936+292456018+289264356+286435129
2278+283913942+281637919+279609323+277901278+276577465+275572130+274668589
2268+273657839+272502056+271315290+270245519+269383279+268696609+268046682
2258+267325344+266555388+265829697+265212484+264721864+264336295+263992094
2248+263625976+263228153+262830057+262450331+262066956+261638355+261167134
2238+260744840+260485794+260405198+260414572+260419696+260350959+260144421
2228+259806613+259466458+259266330+259225440+259252072+259244326+259149231
2218+258971656+258764656+258601836+258527083+258506913+258459906+258359807
2208+258276058+258287951+258388872+258483298+258467583+258340922+258229599
2198+258240053+258313863+258314068+258223892+258167528+258261269+258508592
2188+258799153+258963944+258889346+258620327+258316313+258096015+257952165
2178+257812240+257670773+257637972+257789876+257992832+258024793+257865640
2168+257684123+257574685+257525587+257565414+257696256+257773819+257679547
2158+257501886+257375191+257279925+257138355+256964944+256822260+256741698
2148+256724458+256740036+256748570+256783136+256930961+257194222+257496162
2138+257848126+258352130+259000464+259638926+260199672+260829000+261675817
2128+262660210+263612420+264580174+265805482+267399462+269212712+271028859
2118+272728061+274242988+275485621+276391013+276998131+277409338+277619234
2108+277444846+276732368+275601726+274363068+273206771+272087079+270887357
2098+269569663+268175725+266827337+265724834+264996813+264543946+264147460
2088+263713290+263316256+263050629+262933017+262911476+262903918+262838763
2078+262690440+262487742+262298564+262211216+262304614+262588526+262955364
2068+263239447+263352484+263329331+263252728+263199552+263233380+263366382
2058+263530607+263643010+263697832+263769877+263927813+264169824+264452845
2048+264739258+264994208+265208149+265429629+265678975+265860424+265890465
2038+265854117+265900559+266057501+266244639+266402850+266558884+266794503
2028+267143261+267519525+267801843+267970319+268126901+268418284+268917079
2018+269491723+269857756+269877566+269730838+269699391+269884490+270170286
2008+270377441+270429846+270388991+270332832+270284471+270290007+270420232
1998+270677461+271078094+271741560+272623199+273297033+273368529+272982737
1988+272588685+272420021+272449925+272592215+272750717+272837276+272849632
1978+272851843+272888739+272982891+273162403+273468747+273986581+274767060
1968+275589901+275984793+275753441+275273720+275037227+275153074+275471843
1958+275881987+276296158+276609443+276824686+277057220+277390213+277833894
1948+278415650+279238543+280345193+281417998+281839075+281398376+280652617
1938+280227666+280197248+280324012+280492110+280732373+281048914+281364204
1928+281670188+282193900+283128048+284184640+284909269+285397952+285946376
1918+286200144+285640563+284683555+284246694+284602616+285294461+285764242
1908+285781637+285509156+285304281+285370002+285616606+285877656+286150069
1898+286560624+287116571+287617097+288013137+288639295+289649909+290490933
1888+290544024+290023362+289572894+289464759+289617142+289894696+290163544
1878+290372103+290627036+291086655+291983649+293694968+296264139+298692374
1868+299429204+298234091+296525995+295591984+295590716+296018666+296422383
1858+296648663+296748744+296833916+297033838+297546034+298549210+300061531
1848+302087968+304625298+306987727+307701044+306366984+304508354+303522624
1838+303499317+303857793+304323513+305312019+307305484+309800314+311412237
1828+311649964+311376557+311026239+310191624+308971663+308181399+308250325
1818+308856124+309554601+310389627+311702404+313377151+314619665+314835970
1808+314439965+314371690+315263303+317179959+319562164+321382337+321976141
1798+321851108+322272031+324138955+327121818+329375116+329161313+327342065
1788+326157817+326512591+327758669+329103321+330449994+331783815+332781541
1778+333574753+335098659+338160490+342256137+345308611+345669657+344177866
1768+342446223+341300192+341415490+343174553+345631236+347173342+347731568
1758+348403894+349420231+350602559+352650143+356223827+360329963+362837920
1748+363076127+362382620+362199115+363149645+365135775+367363163+368896392
1738+370182639+372927261+377456034+380810533+380138379+377296555+374847722
1728+373280630+372626675+373052157+374403869+376710601+380682656+386628022
1718+392713913+395365137+393631506+390254111+387645010+386710966+387759624
1708+390660057+394365491+397489975+400286865+404399582+409865930+413978680
1698+415165738+414403648+411919717+408541603+406702510+407511384+410207611
1688+414255343+420305589+427777843+432258495+430842964+427265818+425421139
1678+426432643+429798487+433794980+436909833+439693596+442945718+445225647
1668+444913545+443760967+444462460+447203038+449999105+451449321+452642891
1658+455641726+461843567+471599281+482126854+486434352+484951815+485204245
1648+489139969+493228111+493725123+492280391+492464444+495498958+501237924
1638+509302131+518288969+524755339+526952634+528116180+531715021+538508540
1628+547333672+556963291+567424817+578701250+589340351+598549938+608073273
1618+619600491+631309364+639277671+643890245+648697154+655202632+662389483
1608+668580939+673105154+676456637+679371602+682207325+685036467+687861770
1598+690643751+693307416+695718000+697821211+699963564+702658556+705963289
1588+709489915+712784777+715393740+717116026+718503726+720662668+724460129
1578+729904747+735583458+739524872+742418998+746769030+753265871+760500638
1568+767288468+774384972+782818999+792715993+804515966+819550274+836834487
1558+849008599+852743818+853800565+854946836+855841671+856412271+856584465
1548+856321649+856650135+858788511+862671384+866700540+867312886+861117865
1538+851905262+845767000+842909890+840305450+836335315+832664600+831126642
1528+831385276+832192985+833208740+834796876+836327775+836601147+836125145
1518+836051181+835832510+834557367+832728968+831482958+831697173+834063063
1508+837956972+839528039+835904966+830969528+828414101+828388807+829910176
1498+831588180+831722810+830242295+829384682+830633502+832710048+832762557
1488+829863426+826131635+823526304+822386888+822493687+823568599+824973847
1478+826096264+827286338+829427182+831874508+831944291+828776038+825390692
1468+824415724+825492144+826266539+825312204+824468163+826381015+831330437
1458+836448078+837044040+832501112+826905687+822687337+820157410+819084554
1448+818792742+818369659+817522397+816585062+815882096+815848712+817031315
1438+818983993+819681476+817974271+815775365+815017217+815250899+814966285
1428+814076934+814129579+815946189+818581064+820757005+821869139+821113184
1418+818079698+814521952+812345257+811435821+810773024+809787704+808600030
1408+807846337+807992894+808455255+808360109+808156245+808892390+810538656
1398+812326269+813803356+814388282+813244273+810966057+809503296+809588913
1388+809743696+808318294+806232563+806076683+808929132+813638359+818547886
1378+823041802+827259535+830945468+833526395+835227294+836789793+838174203
1368+838975194+839729504+841317229+843373485+844596873+844531821+844025383
1358+844039778+844826717+845789552+845955851+845114073+844194698+844058218
1348+844376763+844301840+844047593+844987327+847903114+851695777+854241333
1338+854528964+853444455+852499511+852621253+853968578+856154665+858530357
1328+860610467+862338238+863867285+865270408+866684088+868596734+871627341
1318+875769671+880024557+883317157+885701487+887970997+890431347+892984512
1308+895853413+899232110+902790953+906181234+909237410+911334657+911744510
1298+911014946+910919389+912701656+915916110+918975576+920418115+919723305
1288+917343294+914146868+910846522+908108344+906935270+908004561+910300052
1278+911392238+909849413+906626253+903645207+902089768+902176414+903497347
1268+905376884+907319760+909171055+910847962+912220512+913439103+915110046
1258+917708316+920809939+923323620+924586424+924901131+925150923+926222613
1248+928318490+930466943+931268620+930407169+928844944+927582140+926950052
1238+926744749+926460203+925754220+924786792+923698924+922129639+920017996
1228+918395311+918173008+918584026+918243201+917258294+916688106+916697291
1218+917037430+918284605+920836193+923613581+925215222+925440952+924750393
1208+923508496+922549637+923207156+926093879+930630912+935755750+940177141
1198+942574632+942913469+942854174+943710896+945101680+946369626+947734156
1188+949385837+951026208+952630933+954419643+956263534+958055877+960071483
1178+962227683+963610653+963377519+962038694+961341485+962706427+966055854
1168+970103312+973337303+974920298+975146440+974711773+974040270+974035129
1158+975825621+978644069+980014152+979284657+978667307+980201701+983523503
1148+986486795+987470537+987286347+988121819+990547483+992926809+994054777
1138+994859265+996730576+999387387+1000953862+1000209354+998709920+999446544
1128+1003152013+1007318198+1009276703+1009189303+1009291646+1011217179
1120+1014488529+1017286276+1018768367+1020062156+1022839475+1027637884
1111+1033107865+1036406360+1035324387+1030287155+1023998359+1019468730
1103+1018456334+1020716864+1024224844+1026691638+1027427508+1027606283
1094+1028891640+1032523625+1038019311+1043001568+1045444575+1045344837
1085+1044218925+1043972355+1046356067+1051922565+1058478426+1062761212
1077+1063915503+1062773482+1059787363+1055858632+1052647879+1051268062
1068+1052165296+1055510336+1060296338+1064101750+1064670979+1061491141
1060+1056001830+1050897145+1048773232+1050345876+1054171237+1057772169
1051+1059844464+1061319770+1062771083+1062578941+1059887102+1057577285
1043+1059671173+1066347749+1072842738+1073741823+1068393653+1060905461
1034+1055223596+1052884852+1053836925+1056567288+1059217518+1061248616
1025+1062751958+1063301924+1062879047+1062713639+1063343533+1063509558
1017+1062667780+1062147358+1063161810+1064754265+1064687636+1062565162
1008+1059997122+1058035190+1056485509+1055309831+1055060519+1055866652
1000+1057298566+1058942364+1060110502+1059234861+1055706453+1052171465
991+1051775665+1053695029+1053999385+1051027867+1047180091+1044976730
983+1044497849+1044408119+1043575938+1042057995+1040896643+1040762493
974+1041049644+1040391371+1038241820+1035621135+1034027446+1033468089
965+1032378370+1029822394+1026546109+1024058134+1023069730+1022360662
957+1019702344+1014800220+1010066041+1007456597+1006247810+1004733226
948+1002609382+1000573485+998604835+996113775+993453331+991746194+990921485
938+989817234+988275916+987176943+986858946+986905833+986868131+986528473
928+986112930+986402480+987811293+989228469+988635111+985294185+980653369
918+976959965+975584329+976530027+978800703+980836120+981250634+979943547
908+978263830+977378592+976709282+974928455+972405726+970825404+970322668
898+969226643+967036923+965343290+965066833+965109950+964183583+962355595
888+960797757+960568667+961448627+962197590+962141723+961627608+960856503
878+959792764+959080749+959547977+961032673+962292050+961926000+959911559
868+957987603+957402334+957193466+956232002+955461994+956269841+958343233
858+960568461+962554660+964203394+965022688+964795929+963690855+961660991
848+958831026+956067417+954856983+955641318+956559802+955528829+953014120
838+951736167+953381473+956409954+957809239+956413382+954266094+954483050
828+958028663+962793141+965558396+964948655+962345312+959929176+958451472
818+957272434+956286772+956481108+958377439+961192460+964158905+967325993
808+969770234+969098457+964890320+960307565+958396085+958999862+960298791
798+961424566+962406115+962928936+962456498+960668680+957846461+955405922
788+955189171+957975812+963275039+969272228+972889063+972068535+967885144
778+963683177+962591814+965462633+970313345+974061040+975134376+974042189
768+971928490+969904315+968975412+969151856+969375599+968997416+968687576
758+969596326+972151479+975272981+976626886+974703410+970786811+967844221
748+967848814+970435225+973347996+974470893+973867321+973083741+973019305
738+973049741+972036111+970289559+969563902+971003836+973616296+975647942
728+977352132+980473566+984066751+983493273+976735331+968705947+965045926
718+965624065+967521836+970401362+974430175+976699137+974704849+970220119
708+966387492+963838715+961329626+958468198+956353402+956054666+957226918
698+958687142+960122072+961392006+961054540+957962377+953807640+951262632
688+950543625+949263135+945453747+940918359+938891236+938981858+938863817
678+939304242+941556204+942789121+940427344+937292955+935746427+932402142
668+925093822+920137065+921787512+926284856+929646758+930450355+928736637
658+925044604+920296921+915049586+909843449+906510131+906455566+909135204
648+912722563+915075566+915726641+916343306+917113039+915665222+910769473
638+903917825+897048628+891689833+888581492+887485124+888517056+891444360
628+893180082+889452472+880854888+872265666+866680524+865283021+869064168
618+875999240+881498080+883465908+884960749+889682590+896505996+901098142
608+900674991+897192032+894729968+893921984+892331860+889189793+885966153
##END=
