##TITLE=<SNM>
##JCAMP-DX=4.24
##DATA TYPE=INFRARED SPECTRUM
##DATE=3/5/2025
##SAMPLING PROCEDURE=Instrument type and / or accessory
##ORIGIN=Admin
##XUNITS=1/CM
##YUNITS=ABSORBANCE
##RESOLUTION=4
##FIRSTX=4497.3318
##LASTX=599.83466
##DELTAX=-1.4281778
##MAXY=1.7347784
##MINY=0.18113585
##XFACTOR=1
##YFACTOR=1.6156383e-09
##NPOINTS=2730
##FIRSTY=0.20108953
##XYDATA=(X++(Y..Y))
4497+124464450+124718205+125450305+125728823+125571312+125613600+126039586
4487+126627880+127355563+128317954+129213801+129390497+128555974+127225388
4477+126209337+125780085+125677903+125747574+126038922+126425941+126660631
4467+126675822+126516216+126193372+125824808+125686757+125907825+126231657
4457+126285399+126041560+125848530+125990150+126375583+126645127+126473329
4447+125797997+124815840+123795943+122958026+122485813+122532777+123146970
4437+124078390+124645766+124163160+122736487+121276944+120570908+120737468
4427+121538225+122592681+123275466+122997445+121750771+120125913+118819851
4417+118252558+118482683+119266912+120202953+120943069+121296018+121155993
4407+120484211+119440279+118427243+117897174+118067276+118696880+119091379
4397+118651115+117641833+117045275+117416329+118308164+118954794+118972133
4387+118293066+117082896+115873326+115231593+115190495+115282855+115073399
4377+114610456+114427867+114923220+115772324+116319133+116361365+116103617
4367+115692655+115279120+115125749+115291866+115444619+115086625+114012136
4357+112727518+112129650+112480017+113149077+113538789+113681747+113862925
4347+114207702+114626827+114867254+114766778+114535103+114539936+114796836
4337+114837556+114235685+113307926+112946695+113495920+114266564+114549288
4327+114503874+114524755+114375950+113627091+112583979+112114109+112542918
4317+113263822+113653451+113873947+114375461+115029128+115290363+114970055
4307+114333681+113658809+113197434+113303158+114048125+114934002+115430074
4297+115489692+115301191+115066473+115141678+115742847+116490415+116858351
4287+116883742+116849017+116620165+115927475+114980495+114249169+113906938
4277+113930678+114435540+115433192+116456787+116861718+116442252+115545446
4267+114763467+114661976+115469807+116787758+117837482+118218313+118246563
4257+118421267+118831841+119245183+119480131+119520621+119493579+119527815
4247+119451577+118893350+117938909+117262645+117307709+117781286+118195301
4237+118433939+118613826+118808313+119020223+119142567+119003981+118698623
4227+118687887+119261268+120042057+120373590+120145401+119908193+120171457
4217+120873250+121599632+122047828+122200156+122231081+122275472+122237095
4207+121942491+121518764+121330890+121459091+121600840+121615902+121795106
4197+122392181+123137774+123462676+123168377+122644589+122325572+122222882
4187+122190343+122254517+122371041+122272945+121896495+121611216+121836619
4177+122668301+123880518+125097448+126015698+126561474+126771400+126610199
4167+126089086+125416355+124793308+124199858+123611822+123250573+123279672
4157+123354858+122916061+122018139+121484777+122025904+123401914+124651734
4147+125065887+124746796+124235441+123872669+123670832+123561630+123516446
4137+123520025+123607460+123912421+124522906+125255477+125740537+125864799
4127+125962988+126292520+126477074+125946368+124889846+124161841+124165604
4117+124461904+124651116+124997295+125838135+126866269+127444455+127407728
4107+127144050+126976300+126880749+126805498+126801108+126748804+126415915
4097+125909384+125706190+126083017+126729500+127029988+126676670+125961651
4087+125444531+125437835+125898584+126609323+127267805+127596008+127571540
4077+127405100+127187989+126809842+126305930+125905676+125617796+125230583
4067+124818081+124670835+124716876+124685186+124699371+124984770+125273987
4057+125178611+124789563+124447553+124330605+124463288+124743918+124994869
4047+125252562+125782419+126607018+127294119+127419230+127064399+126686991
4037+126559675+126556447+126546210+126678137+127041757+127327386+127156879
4027+126644970+126383865+126812462+127708558+128420081+128518473+128105132
4017+127565517+127151603+126837807+126527017+126252289+126112273+126184149
4007+126593294+127438976+128538709+129453952+129846597+129671856+129051595
3997+128164418+127268626+126621931+126317025+126322384+126685321+127518295
3987+128732522+129950218+130727032+130834619+130460282+130144890+130324537
3977+130919241+131494281+131694976+131437375+130893352+130353912+129948106
3967+129630491+129562664+130118115+131299259+132546026+133313811+133543742
3957+133480868+133312446+133087412+132942001+133225140+133992362+134546715
3947+134289917+133803104+134018030+134767608+135144730+134828582+134203976
3937+133752691+133942963+134959347+136185297+136627184+136165403+135767860
3927+136237260+137310024+138047778+138005481+137806179+138236224+139134884
3917+139415847+138263257+136209895+134573868+134079917+134527817+135729206
3907+138187701+142327398+147208593+150753825+151752316+150558120+147739556
3897+143990596+140937572+140196008+141617672+143039235+142890227+142655269
3887+144255464+146781361+147940970+147961694+148463836+148571469+146735061
3878+144695848+145201245+148255717+151990963+155133755+156718520+155834469
3868+153848758+153175557+153718759+153269817+150950406+148370360+147544258
3858+149741666+155611584+163921284+168742834+164836693+156741817+150245772
3848+147067646+147156538+149815506+153805511+158005103+161931958+164844920
3838+165303344+163218430+160439350+158195485+156409307+155093358+154639924
3828+154823527+155267305+157056380+161694501+167535477+169864637+167970714
3818+165718752+164134964+161294754+157412151+154993583+155691954+159351469
3808+163839697+166605625+168268288+171063490+173996189+174077334+172026951
3798+170620616+169945523+168967453+168308740+169142285+171374824+174209353
3788+177364108+180933975+184680334+188485722+192999331+198617755+204462236
3778+209644168+214732615+220815864+228458200+237551806+246759521+254079307
3768+259244380+263655816+268346269+274290396+282947345+294787529+308190804
3758+320929833+332939242+346464041+363846189+384691641+403878046+416864659
3748+426755158+438514769+451524661+460243608+464339024+470087106+481636948
3738+498309288+515467094+527908513+534184745+536587578+538138236+540824256
3728+545041306+549132037+550228735+547090564+541211588+535046180+530605821
3718+529051105+530579517+534517034+539119867+541540004+540257442+537326089
3708+535625574+536723674+541168313+547797273+553241657+554697317+553186208
3698+551983334+553611982+558971182+567736318+578718755+588825406+592970738
3688+589734027+584235670+581305608+582146568+585976434+591201198+596617507
3678+601395690+602533191+597664733+591880718+590328031+589940956+584623371
3668+576126185+571051498+570999923+572777727+573361769+572884198+573149122
3658+574745526+576822084+579559236+584930389+593918650+603826599+608218223
3648+603398574+593519475+584918067+581346337+582927025+586464519+588584795
3638+589220708+590666112+594792997+602327553+612550415+621891329+624310727
3628+618987756+613521716+612973385+616664204+622425161+628865674+634625820
3618+637736506+637662279+636677549+638113915+643382876+650085915+653221615
3608+650469227+645432097+643158128+645148247+649441259+653238807+655496691
3598+657332379+659785718+662106245+663251309+664058218+666089140+668838724
3588+669607708+667434381+664930942+664117467+664058365+663391647+663003835
3578+664215748+665627617+665111198+663717923+664394085+668241143+673361428
3568+675993842+673905294+669689092+667271096+666766557+665678528+663183427
3558+660738794+659328475+658622208+658210490+658357100+659998808+663719103
3548+667983487+669369088+666340008+661563338+658693115+658832347+660578977
3538+662137825+663110675+663978087+664224233+662857225+660548872+658933358
3528+657929739+656023292+653430278+652499854+654288615+656917488+657681011
3518+655462528+651422598+648005484+646845958+647436014+648039351+647740523
3508+646831127+645511710+643628874+641605847+640506382+640980079+642706935
3498+644844255+646453202+646899526+646526618+646482495+647268080+647816300
3488+646966301+645465079+644915383+645450248+646073433+646324006+646064800
3478+644777996+642473111+640108756+638419383+637440335+637481507+639346561
3468+642943931+646395798+647551856+646448406+644971976+644224611+643750324
3458+643025685+641919653+639861652+636866733+634971353+636077828+638889982
3448+640144911+638646492+636162828+634468954+633726606+633331637+632669715
3438+631379591+629580943+627949048+627404222+628147897+628950158+628143544
3428+625712414+623586457+623229413+623922841+624202485+624014187+624344078
3418+625556950+627203749+628784069+629795877+629626173+628091083+625687917
3408+623203293+621430913+621094233+622202848+623313749+622538937+620047377
3398+618303329+619120642+621642970+623673523+624063106+623119105+621452753
3388+619468315+617699513+616726552+616506968+616427576+616325532+616631443
3378+617127940+616807567+615317560+613437638+612115122+611775860+612446563
3368+613806156+615172868+615884632+615611039+614537988+613556874+613494858
3358+614154640+614952289+615907284+616932521+617275694+616756176+616078686
3348+615227432+613324453+610512114+608376159+608155248+609449763+610992194
3338+612226353+613628003+615148298+615267755+612806042+608781348+605494537
3328+604638598+606223751+608337017+608568405+606551465+604230422+603476195
3318+604633950+606805653+608367748+608087477+606724822+606381502+607713979
3308+609132009+609199116+608536420+608295845+608035422+606910833+605888732
3298+606472405+608067112+608572537+606977387+604093994+601541488+600836587
3288+602550346+605723196+608469017+609261169+607859888+605730205+605232011
3278+607305544+610147397+611227161+610444933+609829422+610409849+611253502
3268+611389672+611041925+610889818+611160792+611582434+611749372+611254904
3258+609671707+606963147+604089530+602409897+602020203+601667808+600575610
3248+599200781+598305331+598294743+599145443+600353039+601146814+601114939
3238+600563842+600166069+600370821+600911773+600798034+599323301+597086372
3228+595422270+595003837+595488750+596156611+596320561+595474546+593780193
3218+592269009+591891084+592363269+592484165+591733591+590812759+590424652
3208+590443577+590499728+590423250+589710084+587675141+584802483+582716518
3198+582129192+582040466+581490697+580818961+580722045+581293028+582265952
3188+583178926+583149412+581323611+577762248+573645840+570669183+570000916
3178+571385189+573300196+574212506+573579397+571829115+569892157+568567575
3168+567890712+567279074+566340644+565162119+563995621+563103601+562667977
3158+562519817+562122376+561048515+559521468+558417834+558368841+558745180
3148+558173201+556247348+553853885+551877305+550682695+550464293+551052024
3138+551606036+551256334+549916737+548002321+545780038+543466705+541551219
3128+540564423+540555753+540986028+541242651+541170822+541043433+541124596
3118+541350820+541254752+540203801+538066296+535645349+534050604+533568975
3108+533536252+533284388+532692155+531938556+531352374+531315887+531706725
3098+531635006+530321123+528025904+525688923+524025338+523262183+523275575
3088+523645421+523724628+522950923+521373112+519862703+519383251+519876870
3078+520332453+520108148+519604273+519426636+519537756+519506729+519095933
3068+518372106+517585156+517071357+516985988+517142190+517293301+517282971
3058+516776181+515408214+513411565+511465569+509829468+508290763+506904497
3048+506017053+505561211+505017677+504127686+503145539+502383270+501950080
3038+501939197+502398433+502984947+503064671+502352317+501124393+499648627
3028+497838025+495767923+494020703+493006460+492391428+491732310+491180068
3018+490955357+490730277+490236437+489877954+490001691+490068134+489271149
3008+487678323+486196838+485579999+485759812+486023666+485730999+484831417
2998+483580103+482029039+480255884+478762593+477980882+477618415+477097790
2988+476336665+475574137+474828249+473976921+473040889+472186980+471736488
2978+471997206+472710666+472985182+472211587+470748179+469428615+468772706
2968+468747435+468772300+467989999+466121550+463966891+462557273+462058820
2958+461937887+461776188+461415861+460699449+459586629+458333692+457232124
2948+456284656+455307747+454289777+453510206+453200901+453150174+452898310
2938+452337104+451791282+451463678+451134894+450519309+449650531+448752203
2928+447926295+447184354+446651444+446447725+446383864+446023057+445090751
2918+443747133+442481763+441712374+441407090+441206875+440897460+440479949
2908+439904798+439128104+438323077+437692808+437197861+436732612+436370587
2898+436148606+435776842+434883753+433494315+432006005+430723591+429687654
2888+428921548+428513556+428440546+428549821+428634379+428366503+427373362
2878+425593861+423480522+421755953+420926503+420936427+421313504+421647711
2868+421705632+421228135+420159254+419027397+418530716+418733439+419043740
2858+418889641+418120436+416881629+415416451+413988570+412810266+412005165
2848+411665682+411811038+412164983+412206708+411693573+410898728+410149629
2838+409478558+408830544+408201161+407524667+406804676+406246200+405933907
2828+405614530+405016948+404111389+402989531+401798905+400797131+400238286
2818+400181841+400398177+400444551+400035710+399386848+398925399+398689915
2808+398310515+397557616+396607492+395736980+395000167+394290949+393535394
2798+392711294+391827022+390970087+390222169+389494099+388647678+387744850
2788+386965462+386376587+385932957+385534520+384982168+384062148+382771507
2778+381369193+380157391+379255263+378625806+378245999+378056668+377795876
2768+377185235+376287276+375391678+374580600+373694742+372678432+371670460
2758+370754682+369873435+369069182+368588217+368532252+368550624+368142447
2748+367180443+365918800+364622994+363412668+362336703+361403290+360590663
2738+359921658+359467698+359230407+359070331+358779177+358209375+357371698
2728+356443118+355612709+354890984+354156827+353378621+352662578+352090968
2718+351586392+350909676+349856474+348576938+347543694+347031149+346822781
2708+346563392+346102902+345406448+344508231+343661589+343186306+343056445
2698+342861432+342222162+341111592+339819881+338729861+338043037+337608666
2688+337100696+336432207+335838056+335478024+335181336+334705647+334036899
2678+333302189+332582420+331940936+331453367+331084407+330670180+330107683
2668+329459153+328856222+328394367+328070378+327728645+327166258+326364994
2658+325508723+324775931+324226789+323829348+323510561+323257738+323130238
2648+323046235+322728112+322065674+321324064+320778796+320374530+319942484
2638+319504314+319127864+318691133+318053376+317341833+316832129+316633353
2628+316631656+316593879+316262844+315577938+314818473+314294159+313970429
2618+313606006+313086083+312428699+311697013+311075968+310813405+310938950
2608+311184063+311240914+310996576+310504432+309875455+309264426+308835405
2598+308613387+308426362+308089295+307588150+307034710+306547712+306232818
2588+306145199+306166338+306018474+305537490+304885547+304377780+304148310
2578+304096107+304066962+303942912+303649802+303224102+302805724+302492693
2568+302281319+302142087+302061846+302056810+302214488+302634323+303264278
2558+303884345+304283520+304384568+304227425+303925425+303597434+303254556
2548+302815944+302297514+301869785+301658281+301627421+301687832+301722068
2538+301510288+300890386+300032953+299361476+299166426+299387098+299725456
2528+299905416+299865554+299741338+299661982+299600317+299446642+299178158
2518+298880087+298605903+298320393+298037189+297874734+297866618+297862652
2508+297736554+297532742+297308677+297045653+296812438+296767780+296877848
2498+296863608+296553030+296085161+295659535+295257537+294735345+294085081
2488+293504341+293225250+293281419+293408789+293216230+292547852+291665572
2478+290978305+290621482+290422817+290204175+289930083+289621996+289325179
2468+289128266+289078738+289115667+289131125+289033305+288762552+288329971
2458+287847272+287482850+287349041+287370679+287301745+286987921+286563862
2448+286256291+286072659+285860049+285594000+285410867+285392734+285486902
2438+285597892+285610472+285394302+284938848+284430140+284083020+283956756
2428+283982119+284068447+284151215+284204469+284222546+284183809+284071638
2418+283937332+283901639+284060036+284364619+284619047+284637659+284417375
2408+284151492+284082116+284271355+284495771+284479741+284249035+284103495
2398+284233983+284507724+284650866+284580568+284499479+284616833+284833594
2388+284808470+284256469+283065732+281224086+278752946+275652995+271886603
2378+267477307+262609255+257563935+252581092+247810749+243363195+239359991
2368+235939520+233245790+231344692+230132816+229585924+230158124+232534672
2358+236905232+242893759+250298749+259408643+270001756+280258780+287557575
2348+290308008+289009897+286050284+283724002+282058572+279723583+276220178
2338+272058374+267861153+263965804+260508717+257647662+255637510+254614523
2328+254351886+254301141+254003402+253597475+253755743+254925544+256834869
2318+258849300+260541440+261856891+262982217+264167088+265614189+267441245
2308+269593450+271736913+273403947+274387626+274946729+275536692+276354577
2298+277210294+277825713+278148447+278335657+278554503+278873603+279273626
2288+279702296+280123219+280503635+280770292+280836975+280693575+280439350
2278+280202114+280023924+279846951+279619621+279372867+279169166+279021412
2268+278899372+278792606+278730959+278737544+278778568+278788953+278747117
2258+278679438+278574701+278362035+278034801+277723337+277546180+277457639
2248+277345744+277209261+277152539+277262607+277520558+277802526+278004715
2238+278156342+278325678+278491398+278640480+278883490+279327895+279928612
2228+280567532+281198372+281841701+282530462+283336319+284327874+285395206
2218+286311334+287128499+288238810+289831526+291603722+293215695+294715442
2208+296330661+298121119+300006317+301957865+303987754+306010579+307923095
2198+309822625+311910620+314177690+316418456+318501876+320416366+322164766
2188+323780982+325342191+326874256+328289371+329466937+330423592+331343281
2178+332351548+333344541+334087811+334373948+334148536+333618245+333111935
2168+332769759+332483880+332077032+331431306+330518147+329345266+327920964
2158+326348024+324816808+323421872+322152002+321006016+320007968+319284472
2148+319004128+319090898+319611892+321564344+326177839+333276770+341430489
2138+349665150+357926521+366144138+373982981+381344991+388479228+395700900
2128+403155436+410807382+418592842+426361812+433714636+440204105+445527925
2118+449383652+451578672+452376136+452420665+452473864+453445349+456452184
2108+462547976+472244421+485261839+500611516+516533688+530490827+540065049
2098+544013117+542365875+536375337+528120053+519010048+509160537+498288960
2088+486010052+471804960+455845342+439011008+421980812+405381112+390110201
2078+376656162+364971220+355099389+347050186+340479295+335073131+330681875
2068+327087973+324187831+321969717+320107208+318224113+316373668+314754796
2058+313424275+312404756+311603270+310914232+310590871+310967283+312000490
2048+313635151+316206731+320219877+326192486+334639425+345890845+360166180
2038+377711098+398384890+421318927+445170918+468264994+488625865+504516568
2028+514884159+519515362+519315517+515868077+510406538+503616912+495914903
2018+487438708+478268863+468717478+459052023+449190005+438894539+428130171
2008+417183851+406390523+395800029+385354301+375274139+365946248+357538377
1998+349985929+343290453+337616635+332968904+328895475+324854475+320852507
1988+317309700+314440585+312156065+310335502+308881355+307656880+306509713
1978+305331945+304154766+303118036+302265584+301578778+301213913+301294394
1968+301459229+301100008+300136233+299124166+298541415+298347933+298283648
1958+298261070+298289809+298257732+298021860+297604627+297179959+296935548
1948+296997822+297447521+298263985+299064493+299111291+298079228+296602244
1938+295553469+295161986+295097628+295036331+294928126+294882822+294961882
1928+295198344+295779527+296827342+297969289+298719254+299254876+299954133
1918+300365906+299742924+298452431+297679039+297991664+298910762+299574566
1908+299581280+299233367+299039720+299138683+299311634+299403699+299539832
1898+299929931+300519766+300985015+301288989+301906234+302969988+303664504
1888+303243304+302151882+301278309+300879576+300766372+300784394+300828684
1878+300850948+300919383+301141899+301809171+303498378+306343587+309044566
1868+309547888+307544174+304889513+303205397+302640834+302589351+302617205
1858+302656218+302772042+302981719+303245536+303620215+304301634+305495138
1848+307450947+310289129+313091838+313818322+311846206+309179592+307687501
1838+307448143+307655497+308019329+309182488+311733094+314851159+316627155
1828+316517106+315851716+315309509+314301353+312792789+311710036+311563721
1818+311988610+312535945+313315443+314699458+316551637+318015967+318363382
1808+317876661+317520429+318103365+319882312+322387707+324512114+325399633
1798+325503485+326280732+328783765+332441196+334796660+333840891+331030507
1788+329315125+329740051+331395004+333222096+335033287+336760770+338019425
1778+339023561+340944802+344791675+349999321+353961962+354390245+352179878
1768+349515921+347705320+347717715+349996554+353298454+355524130+356428213
1758+357221177+358162411+359230628+361603247+366269424+371910998+375586358
1748+376218029+375410271+374896435+375402081+376920274+378671700+379618468
1738+380394682+383247823+388674093+392838056+391840856+387977013+384652941
1728+382567898+381693365+382100657+383559563+386300921+391512884+399672948
1718+408133944+411774478+409337187+404836287+401645249+400874568+402751502
1708+407005112+412290085+416782868+420725182+426306953+433728507+439370044
1698+440984931+440117777+437443564+433887513+432224296+433796352+437657170
1688+443139590+451286669+461680121+468477125+467391532+463467185+462127846
1678+464651834+469916958+475515110+479887329+484178312+489381605+493280828
1668+493536787+492607100+494225271+498558495+502738395+504787801+506229368
1658+509853374+517624225+530307694+544409377+550139493+547676598+547263773
1648+551347236+555027836+553857722+550605332+549599278+551889406+557314127
1638+565686617+574936186+579774171+578071664+575004437+575117106+578835114
1628+584398808+590402738+596958872+604023936+610467069+616445137+624186474
1618+634584427+643935671+647018393+644932575+641952487+639458492+636836408
1608+633951576+631771756+631377377+633098404+636606200+641472518+647398089
1598+653889071+659961768+664478273+666967398+668026429+668657657+669367244
1588+670192008+671259377+672705261+674216518+675496017+677308094+681159874
1578+687367449+693291544+695408499+695496451+698623813+706603400+716761479
1568+725176691+731992768+739979439+750393403+763916136+782996401+808589341
1558+830895397+840534253+844683385+849557303+854846629+859157423+862158465
1548+864263172+866528434+869990926+874844258+880139413+882412423+876994195
1538+866847332+859219107+855486342+852771510+848672404+844500325+843072002
1528+844912044+848189188+851248595+854136968+856731384+858016269+858425774
1518+859138239+859506867+858600349+857449161+857944034+861232394+867498629
1508+874682891+876434760+869238766+860308389+855793212+855911046+858517341
1498+860740915+860301675+857690289+855866775+856850472+859854171+861980128
1488+861203102+858680257+856737139+856294357+856496675+856054114+855238425
1478+855874523+859187601+864333636+868351505+867882751+863432947+859415521
1468+858430718+859616584+860905528+861463562+862358200+864849096+868718436
1458+871377192+869367667+863867170+859026234+856044522+854424138+853832902
1448+853593692+852539162+850423018+848292118+847189259+847544532+849422868
1438+852144635+853457116+851405756+847610053+844880021+843725587+842878908
1428+841661314+840739744+840714140+841671496+843915730+847354389+849720957
1418+847813329+842448301+837630606+835307276+834481109+833263589+831161464
1408+829362669+828704878+828398451+827533178+826821083+827394316+829044435
1398+830727315+831779484+831655084+829802941+827030779+825233090+825007825
1388+824717409+822554634+819669728+819329507+823003834+829143528+835275253
1378+840276597+844405143+847908954+850467068+852102873+853822350+856523532
1368+859914822+863278590+866656008+870015939+872038155+871528893+869342507
1358+867240309+865994234+865332385+864883037+864838914+865673123+867237431
1348+868618606+869249538+869711135+871014909+873381994+875979140+877951551
1338+879691393+882339524+885943165+889197806+891213823+892703609+895049149
1328+898711007+902845087+906291567+908855510+911580081+915515090+920314190
1318+924454542+926975910+928436699+929838607+931435380+933062774+934813831
1308+936818043+938879070+940624445+941705169+941916488+941421024+940586077
1298+939526899+938283259+937265474+936871759+936871242+936637419+935736877
1288+934102252+931950618+929610612+927183983+924552085+922017287+920470983
1278+920414833+921289992+922209054+922773506+922783984+921956268+920573248
1268+919697498+920128917+921655005+923598640+925501693+926918506+927175129
1258+925947057+923784872+921447006+918967694+916049881+912971217+910296081
1248+907987655+905384459+901773512+896930879+891605177+887313125+884971717
1238+883943897+882992960+881705640+880420754+879408060+878783399+878655899
1228+878828998+878878581+878876294+879446870+880861986+882754562+884928700
1218+887637777+890709284+893184759+894353803+894632487+895052396+896293084
1208+898366211+900870683+903434331+905986984+908525766+910848802+912933587
1198+915207629+917842405+920205801+921685552+922517621+923292802+924307415
1188+925738542+927930905+931232841+935648778+940462562+944373148+946602329
1178+947624616+948190839+948280561+947859398+947755141+948651919+950055377
1168+951357381+953162964+956466229+960838781+964477249+966369899+967344372
1158+968563959+970252520+972307865+974779946+977012890+977564947+976098108
1148+974609651+975671707+979707874+984711875+988545282+990588305+991077275
1138+990566095+990327476+991375513+992825381+993094031+992793728+993972732
1128+996859778+999814705+1002155449+1005269972+1009755857+1013242255+1013296339
1118+1011017574+1009695575+1011032553+1014370275+1018757952+1023487326
1110+1026703525+1026201494+1022360487+1018865382+1019309197+1023277852
1101+1027177148+1029267836+1031418216+1034851415+1037523526+1037745913
1093+1037714333+1040446947+1045115744+1048162312+1048174929+1046772430
1084+1045304485+1043735307+1042059510+1040741569+1040321882+1041416403
1075+1044436999+1048942806+1053640526+1056939806+1057335439+1054519080
1067+1050760490+1049406837+1051369804+1054397261+1056356686+1057834666
1058+1060423769+1063627646+1065202136+1064642627+1064307498+1066556158
1050+1070755980+1073741823+1073458195+1070929374+1068177133+1066053095
1041+1064563383+1063928613+1064590167+1066415156+1068345731+1069168577
1033+1068472272+1066691774+1064925370+1064255406+1064275180+1063384673
1024+1061402301+1059976782+1059634200+1059171423+1058404800+1058377057
1015+1058851492+1058531119+1057305188+1056051660+1055182035+1055001115
1007+1056211699+1058541302+1060014338+1058739561+1055100429+1051182907
998+1048254838+1046098113+1044643891+1044506135+1045267150+1045091985
990+1043242721+1041135284+1039555112+1037144715+1033020228+1028407286
981+1024395984+1020565676+1017030432+1015317448+1015985568+1017064299
973+1016132768+1012972572+1009187568+1005911677+1002921260+999687500+995958351
963+991875773+988437925+986837389+986299056+984048034+978815818+972608611
953+967795123+964729445+962815914+961581718+960285691+958688475+958168883
943+959700062+961373498+960614623+957841944+955128587+953199709+952194246
933+952998572+955734654+958752151+960219580+959458196+956811836+953284414
923+950179483+948469597+948405847+949556371+950821261+950996500+949884344
913+948281446+946954799+946446939+947307342+949025269+949490113+947261448
903+943548531+940615149+939284295+938785363+938178337+937376446+937104844
893+937871393+939068401+939664434+939394603+938619422+937743598+937083299
883+936586950+935912632+935239642+935146821+935343310+934710459+932966190
873+931163558+930294670+930306697+930719448+931527906+932576533+932767193
863+931242728+928767032+926938502+926748654+928351920+931106374+933608412
853+934630255+933992018+932333487+930732729+930484518+932031634+933981024
843+934461067+933588564+932959254+932760036+931673114+929805846+929369189
833+931440840+934258085+935987597+937040578+938317495+939044716+938041540
823+936040648+935113471+936248131+938649747+941149497+943140428+943901738
813+942715650+940565934+940028044+942340676+945524852+946564921+945174080
803+943509204+942952351+943416751+944430257+945362083+945801250+946448267
793+948488117+951582793+953672964+953272240+950830632+947595397+944173929
783+940602605+937692391+937517153+941494071+948028291+953009640+953563025
773+950773523+947753296+946391674+946879243+948689476+950847086+951963079
763+951140749+948785248+946148849+944478291+944370713+945209423+945517695
753+944145965+941493776+939661999+940346204+942566679+943730041+943191634
743+943250957+946064808+950827312+954573874+955666477+955495518+955723291
733+955505848+953232101+949538811+946785758+946641361+949008594+951865093
723+952538304+950673323+948639228+948353239+949008004+948979597+948440231
713+948339146+948655682+948878290+948735665+948030579+946652651+944666147
703+941994848+938795103+936440856+936785209+939435701+941295295+939886009
693+935784616+931215650+927479343+924041126+920202259+917282601+917228664
683+919102499+919131349+915001918+908225463+901494311+896414534+893560839
673+891463806+885948773+874489871+863815078+865671278+877555401+887870494
663+891470668+889585839+885874177+883246706+881808495+879250013+874308656
653+868873384+865580523+864820689+865183267+866299554+869404486+874378677
643+878293026+878460296+875113572+870072606+865257789+862259181+860732725
633+858231278+853633904+849358527+847983772+849330342+851486329+852568085
623+851834518+850170232+849149274+848987907+847090978+840593133+832509731
613+830463019+837036640+845278015+845681396+837429248+827513847+821482543
603+819259043+818023888+817673189
##END=
