##TITLE=<SNM>
##JCAMP-DX=4.24
##DATA TYPE=INFRARED SPECTRUM
##DATE=2/5/2025
##SAMPLING PROCEDURE=Instrument type and / or accessory
##ORIGIN=Admin
##XUNITS=1/CM
##YUNITS=ABSORBANCE
##RESOLUTION=4
##FIRSTX=4497.3318
##LASTX=599.83466
##DELTAX=-1.4281778
##MAXY=1.8601044
##MINY=0.39093825
##XFACTOR=1
##YFACTOR=1.7323573e-09
##NPOINTS=2730
##FIRSTY=0.40992746
##XYDATA=(X++(Y..Y))
4497+236629861+235800592+235325401+235284079+235650062+236258940+236770670
4487+237048900+237281076+237548347+237691789+237784755+238250639+239124844
4477+239570874+238804621+237406987+236906319+237934356+239444568+239887055
4467+238753991+236955331+235992082+236705349+238524516+239970766+240138808
4457+239554222+239283407+239449092+239131295+237716097+235769419+234370977
4447+234029353+234487272+235200591+235687136+235711667+235493409+235558799
4437+236157337+236904443+237097310+236432866+235477066+235193623+235844150
4427+236724531+237163990+237184221+236917535+236186256+235058147+234130302
4417+233911528+234340028+234992861+235428827+235350776+234709848+233747614
4407+232886226+232475204+232565401+232962575+233457308+233868038+234084249
4397+234276290+234684233+235002494+234573030+233444612+232549419+232636726
4387+233631750+234983278+236062151+236282767+235354096+233586144+231783561
4377+230716937+230598578+230994272+231375137+231708864+232242787+232829145
4367+232860748+232050127+230978032+230533687+230953311+231664462+231934176
4357+231462805+230531004+229762548+229600320+229985589+230684853+231630899
4347+232657405+233261895+233024128+232077136+230990522+230283964+230035599
4337+229970897+229875746+229597602+228833533+227648361+226985121+227690888
4327+229250387+230374453+230569075+230306380+229983095+229541175+228861110
4317+228033062+227392135+227386630+228139241+229189918+230010826+230671107
4307+231516462+232294689+232252008+231186932+229821727+228959427+228762948
4297+228959204+229334752+229861260+230460349+230815306+230625347+230056260
4287+229643862+229656300+229774040+229478383+228633820+227627287+226998436
4277+227053504+227843154+229210854+230623437+231337324+231128527+230520441
4267+230132179+230199667+230665448+231189134+231218311+230625415+230010069
4257+229859265+229865647+229599357+229274764+229301395+229623235+229968231
4247+230253324+230393256+230233902+229867832+229617076+229658898+229892278
4237+230033070+229732425+228887173+227863678+227148570+226942267+227307013
4227+228295671+229590188+230385635+230129357+229253105+228736902+228951032
4217+229347793+229431917+229469833+229858336+230318422+230233334+229446712
4207+228364828+227532462+227287659+227607383+228152488+228548698+228711132
4197+228900557+229377348+230027909+230503960+230686504+230777837+230935574
4187+231028094+230822927+230318250+229762204+229370673+229250026+229538268
4177+230227124+230939927+231335363+231524806+231699987+231745043+231521004
4167+231132931+230769132+230546125+230430106+230190636+229709751+229341685
4157+229551841+230250073+230884394+231123418+231120596+231123263+231128389
4147+231021935+230806429+230529163+230131525+229576700+229148767+229410430
4137+230614302+232192347+233142693+232984904+232050987+230940753+230026137
4127+229386190+228944701+228643213+228586751+229014099+229988393+231081975
4117+231625583+231429964+230929450+230491969+230054592+229550947+229125801
4107+228778913+228364020+228072750+228363762+229251798+230159411+230654386
4097+230856043+230908806+230597512+229866387+229297129+229529976+230374058
4087+230903886+230518858+229625919+228997103+228805010+228712284+228622139
4077+228827392+229404443+229847790+229639716+229061374+228900145+229309756
4067+229635054+229431934+228919877+228429341+228063959+227776836+227379198
4057+226777373+226310509+226467163+227325971+228500270+229415901+229602247
4047+229043964+228214850+227517994+226872181+226139181+225668378+225875850
4037+226451112+226741229+226884378+227616569+228918002+229828006+229707549
4027+228938439+228364381+228512846+229267780+230100060+230640795+230902217
4017+230929914+230574304+229785205+228842651+228112559+227706302+227561519
4007+227783304+228554168+229683326+230613218+230961620+230827813+230526479
3997+230192218+229741439+229250473+229211164+230038696+231328378+232095062
3987+231956197+231584914+231682698+232023341+231998482+231699213+231762109
3977+232367546+233065433+233437387+233447296+233336007+233501383+234185456
3967+235092984+235677932+235830887+235868201+235908560+235731193+235210947
3957+234487753+233816737+233614873+234466507+236575309+239078188+240412238
3947+240002248+239116345+239158493+239740809+239453135+238127979+236893863
3937+236455798+236832499+238116178+240140632+241715769+241649983+240593544
3927+240387586+241619379+242854406+242738094+242099025+242699972+244613069
3917+245816666+244476199+241085353+237687488+235797478+235847677+238108849
3907+243243442+251293881+260095795+265890085+266620057+262929081+256251813
3897+248856925+244110783+244195200+247880051+250895039+250504970+249390366
3887+251059898+254616412+256812418+257639537+258875924+258665424+254774029
3878+250398275+249863423+253201146+257976809+262706711+265818295+265226586
3868+262546531+261566732+262277883+261211276+257149363+253063226+252179887
3858+256043395+265200695+277716999+284787105+278696333+266652382+257252669
3848+253022971+253796175+258033064+263462987+268731009+273738487+277493648
3838+277631911+274115102+270009079+267036549+264433994+261574989+259338745
3828+258550196+259284417+262412276+269133705+277185124+280677229+278688282
3818+275805605+272893614+267608836+261030641+256990885+257751428+262921615
3808+269247247+273110462+275626587+280014728+284829787+285500476+282528961
3798+279632556+276925628+273241586+269981967+269283116+271241853+274584667
3788+278578301+283184425+288141119+293393452+299636474+306721598+312724392
3778+316746739+321038317+328421507+340050204+355305365+371182392+383066937
3768+389106822+391260576+391967977+393506884+397556068+402944049+406070480
3758+405588064+404982988+409043251+420045231+435131902+445662063+447213804
3748+446619326+450206771+456778445+461014767+462699868+466888295+477256401
3738+494279101+513853744+528137914+533260035+533493278+534979680+540620378
3728+550323163+561632566+570563506+575138629+576829442+577540181+577998477
3718+578562884+580326157+585441603+594932890+604377521+605432016+597020893
3708+586198757+578663008+576110411+577293278+578944386+578562334+576736200
3698+575499039+576508737+580595975+587347802+594807099+599696493+599290908
3688+595264845+592294174+591978733+592788322+593402000+594351899+597665536
3678+604384402+611148754+612207791+609026412+606675818+604433122+598826899
3668+591002478+584663462+580422703+576834431+573289925+571173983+572176421
3658+575473991+578007836+579322446+583012011+591363335+601442701+605149400
3648+597791396+585643364+576092795+571012478+569057113+568323907+567965630
3638+568417871+569847365+571237051+572522002+576532065+585343820+593829674
3628+592900350+584379194+577126131+575340665+579078503+585855240+590732936
3618+590684217+588447577+587608467+588460926+590260395+593374956+597088605
3608+598337912+595821132+592496210+591528832+592737951+594158327+595983532
3598+600529066+607921821+614131674+615166008+612815894+612465015+615590586
3588+617074821+612370397+605201836+601520116+601812297+602919435+602934918
3578+602298051+601550256+600221195+598826073+600325172+607503023+618839195
3568+627557432+627097553+618729506+609296436+603753453+602700058+603795498
3558+604715532+604963329+604852677+604300312+603569033+603953906+606199148
3548+608538113+608031165+604436907+600510899+598271988+597761531+598577657
3538+599964040+600077169+597795318+594726932+593237054+593488154+593857200
3528+593374887+592432832+591338219+589715462+587580804+585850836+585378777
3518+585749337+585434585+583816232+582450907+583025361+584624032+584666903
3508+582611586+580530739+579778128+579361119+577985196+576069123+574673520
3498+573872017+573209103+572779226+572941867+573548215+573993369+573433400
3488+571256731+568353875+567049896+568480113+570485334+569603181+565429067
3478+560892788+558287928+557438600+557450780+558251526+559954691+561826930
3468+562801946+562787288+562362332+561311346+558960579+555914281+553753989
3458+552948736+552619567+552253549+551925068+551093459+549244926+547297096
3448+546394919+546018062+545072326+543970797+543919668+544924102+545879782
3438+546201484+546053088+545311797+543533281+540962587+538656996+537470241
3428+537447223+537916255+537868808+536789884+535139637+533380080+531124550
3418+528205970+525678491+524772701+525551943+527058955+528376696+529218180
3408+529665363+529663368+528995706+527672116+525907914+523901764+521991816
3398+520706692+520470525+521354708+522825283+523684899+522923480+520694856
3388+518008143+515859102+515037196+515924922+517796163+518940151+518209491
3378+516223744+514691615+514671969+515616638+516032856+515041462+513199742
3368+511887884+512108087+513647717+515107248+514994428+513237176+511408186
3358+511114181+512439595+514123905+514953828+514716525+514079796+513848101
3348+514203969+514659858+514657243+513898163+512420362+510863219+510172161
3338+510472015+510835109+510702987+510642535+511111222+511502908+511025722
3328+509729210+508206577+506810802+505512294+504272174+503361430+503301390
3318+504296259+505721349+506659860+507095001+507762146+508566746+508269920
3308+506209751+503387097+501272119+500217417+499574976+498963948+498716632
3298+499057121+499643548+500243119+501036399+501856241+502130841+501868559
3288+501711699+501961422+502262618+502212040+501984096+502331638+503685300
3278+505251182+505725684+505018799+504352927+504512987+504849759+504315561
3268+502948653+501695734+500987989+500406826+499780900+499492847+499554332
3258+499500382+499272507+499351642+499963117+500559591+500185006+498534896
3248+496642770+495874194+496209006+496309439+495380871+494066674+493299302
3238+493090041+492681978+491527875+489920292+488619548+487988770+487714171
3228+487318116+486613192+485733379+485091694+485047138+485225571+484733452
3218+483493436+482523340+482502902+482970730+483203869+482994092+482247054
3208+480546848+477734894+474701774+472822207+472415692+472536115+472503601
3198+472606615+473094398+473659321+473929345+473572238+472317255+470475947
3188+468806157+467573194+466400099+465100421+464075171+463728834+463861437
3178+463919240+463585461+462854835+461748110+460234527+458331975+456234442
3168+454501309+453836056+454312003+455122521+455399908+454971923+454086605
3158+452835303+451358638+450276789+450054832+450092920+449430832+448125374
3148+446839976+445628104+444278365+443047397+442033777+440704819+438790432
3138+436939353+436038449+436252871+436902091+437150988+436690386+435732161
3128+434751261+434313883+434516986+434631147+433975975+432876373+432105353
3118+431832027+431607076+431010292+430092460+429294122+428872090+428487389
3108+427583904+426068462+424452587+423431225+423271441+423527667+423501931
3098+422981806+422330591+421957725+421951257+422132821+422231362+422020277
3088+421445789+420620682+419643498+418609853+417825416+417557112+417460911
3078+416874794+415851746+415167810+415127382+415147648+414743748+414211683
3068+414029328+414088714+413824023+412842125+411275659+409689993+408667323
3058+408274262+407986587+407375835+406665406+406302518+406302002+406386161
3048+406446442+406428344+406024925+404964994+403482238+402163706+401381264
3038+400991918+400578694+399973205+399413581+399054272+398641185+398014537
3028+397466989+397178454+396832599+396128535+395173509+394208436+393386255
3018+392786581+392345246+391978678+391768935+391636331+391121573+389995340
3008+388716512+387899698+387669414+387650594+387311516+386415463+385312970
2998+384559154+384171907+383591157+382482471+381270118+380613604+380536051
2988+380425227+379843307+378934318+378076972+377531179+377318408+377177169
2978+376834651+376381033+376029844+375635475+374911765+373944387+373074827
2968+372472057+372077860+371710568+371093554+370089601+368984838+368294020
2958+368245576+368580525+368801519+368562737+367921259+367192078+366501192
2948+365693840+364788910+364159990+364041425+364188410+364216348+363993187
2938+363553091+362876002+361933294+360855642+359914310+359281641+358872889
2928+358469781+357904032+357104903+356127168+355167566+354447744+354076255
2918+354010057+354016560+353742580+353062084+352295917+351854514+351738494
2908+351574202+351097292+350427325+349847538+349469168+349175920+348826004
2898+348435660+348135187+347941993+347677131+347204074+346639254+346193687
2888+345900542+345617720+345259202+344918198+344698064+344486738+344069213
2878+343483474+343034398+342888342+342855242+342629776+342096266+341363748
2868+340638627+340133709+339990990+340121495+340145304+339714670+338902983
2858+338047358+337291718+336576645+335960765+335597362+335446592+335328852
2848+335233924+335287117+335405269+335273905+334747242+334050988+333484448
2838+333086501+332709507+332292670+331913784+331613276+331296907+330860389
2828+330332556+329830425+329435678+329156433+328935955+328680417+328350423
2818+328013960+327740530+327488467+327177465+326812410+326424544+325952346
2808+325323324+324615854+324003725+323545875+323122226+322588957+321970738
2798+321483298+321301356+321316289+321270080+321084250+320822209+320412976
2788+319727870+318878438+318188447+317910579+318014934+318101845+317636770
2778+316561115+315464196+314834003+314473111+314002119+313481236+313107476
2768+312773663+312371277+312087043+312005327+311817570+311244424+310439205
2758+309725714+309141970+308457243+307566798+306670264+306020494+305666690
2748+305506561+305401105+305168791+304671202+303994904+303405896+303048377
2738+302765003+302294630+301636533+301084306+300842909+300773029+300582898
2728+300117651+299429242+298709764+298170956+297900416+297807656+297685925
2718+297342271+296761074+296107278+295489575+294842145+294121188+293466325
2708+293084033+293046908+293207243+293300451+293186530+292926485+292600275
2698+292201089+291722389+291191494+290618761+290015164+289438302+288968789
2688+288643852+288424664+288255814+288138126+288062397+287942059+287738200
2678+287536800+287365782+287100369+286674346+286215223+285859166+285562580
2668+285193362+284752492+284415565+284322512+284379042+284339165+284060402
2658+283598028+283062626+282494744+281939368+281546289+281444738+281519693
2648+281457589+281078514+280543748+280165068+280052937+280031983+279873747
2638+279520081+279113789+278916450+279094023+279448498+279509776+279040985
2628+278277122+277597402+277178758+276993014+276941215+276937740+276932647
2618+276884650+276778867+276683096+276662280+276615865+276360826+275903441
2608+275477073+275281987+275298176+275349648+275266814+275006149+274697143
2598+274537960+274570681+274613982+274478626+274174247+273868338+273722815
2588+273765066+273845629+273779500+273575881+273410196+273349932+273287175
2578+273161917+273043128+272954359+272828517+272685299+272648432+272741313
2568+272870785+273038604+273334088+273691694+273916782+273978319+274013689
2558+274030273+273883597+273581128+273338062+273265774+273196289+272883395
2548+272301217+271722996+271486742+271636171+271861035+271852021+271589034
2538+271223256+270863586+270550898+270283386+270022137+269764499+269577121
2528+269493908+269462908+269447184+269489814+269600552+269637745+269419349
2518+268962704+268502256+268232336+268146663+268152925+268200166+268258760
2508+268283344+268238753+268122269+267959422+267789987+267643449+267521288
2498+267424295+267380530+267400761+267432002+267415350+267358493+267283778
2488+267175690+267061546+267018623+266997429+266802790+266376578+265936018
2478+265712684+265684075+265640000+265422223+265057994+264721032+264575612
2468+264608195+264632332+264514523+264330258+264213069+264144583+264022422
2458+263860401+263779287+263812920+263827749+263674381+263372394+263057143
2448+262765993+262423527+262052261+261818761+261826519+261999723+262169640
2438+262178637+261977547+261715283+261601947+261610411+261491674+261154333
2428+260805243+260626587+260551202+260467370+260422383+260510206+260702591
2418+260871081+260918218+260886615+260938655+261160372+261408908+261455977
2408+261257622+260997921+260902872+261074579+261445861+261822064+262019954
2398+262050541+262166062+262726271+264068974+266532905+270586010+276889536
2388+286164920+298945553+315478784+335834837+359955633+387511660+417774115
2378+449670234+481993752+513650676+543717736+571209697+594907085+613801370
2368+628075665+639274280+648536968+654782123+656027575+652289222+644841692
2358+633127803+615459978+591849158+564092781+536020172+513631270+501960631
2348+502925394+515400599+534530432+552374247+563436852+567820331+568314307
2338+567988201+568621834+569891887+570737913+570807139+570091997+568300097
2328+565183920+560827106+555304147+548451164+540170167+530776355+520871019
2318+510996132+501443740+492146266+482707587+472703573+461943816+450446827
2308+438393757+426167829+414210651+402751028+391786172+381328919+371515070
2298+362422247+353904773+345696236+337654605+329866656+322524960+315764119
2288+309636772+304180494+299434094+295394716+291980886+289034678+286383282
2278+283931979+281678394+279632315+277783112+276155624+274802376+273697285
2268+272712927+271760482+270892281+270190678+269602014+268972544+268223803
2258+267407075+266613691+265914376+265339905+264840544+264312195+263723497
2248+263155907+262677069+262252009+261816421+261363509+260920488+260499041
2238+260119983+259853486+259771443+259841685+259908812+259826030+259601027
2228+259370296+259233977+259165679+259073229+258884715+258591759+258269214
2218+258029795+257935521+257996214+258201209+258453651+258579889+258527952
2208+258422599+258343945+258234962+258069552+257911797+257793146+257694640
2198+257637645+257682769+257849039+258072304+258252561+258358929+258447888
2188+258543194+258587286+258559365+258514206+258448834+258268216+257952053
2178+257650926+257558716+257733880+258044469+258247916+258166097+257857400
2168+257589940+257584142+257806943+258032840+258049768+257809816+257457233
2158+257207080+257153130+257204568+257204276+257059750+256785719+256480531
2148+256241061+256098497+256073225+256236984+256643722+257234037+257877735
2138+258510542+259201204+260034465+260936126+261734413+262434262+263271720
2128+264438416+265909421+267579366+269415014+271424690+273574969+275793202
2118+278027519+280227843+282222226+283725453+284587529+284931631+284936499
2108+284585551+283712826+282229073+280270628+278146549+276135995+274350203
2098+272767376+271302839+269857036+268418734+267121930+266116532+265401854
2088+264838875+264302355+263783175+263353986+263068549+262915009+262833929
2078+262752248+262650387+262605005+262677689+262780221+262789184+262786878
2068+263010539+263505462+263978571+264108232+263898334+263606239+263446661
2058+263481480+263655285+263836901+263947346+264063675+264284893+264563450
2048+264789639+264961724+265193401+265574748+266006947+266228939+266129693
2038+265924560+265874980+265994285+266155395+266322095+266566296+266944615
2028+267400933+267786873+267998835+268081704+268220139+268645577+269413293
2018+270200208+270526125+270268781+269763054+269399307+269339801+269539394
2008+269849226+270139119+270383114+270607377+270827906+271053803+271228348
1998+271272922+271401620+272111464+273457643+274627779+274773096+274027107
1988+273151062+272591988+272359330+272365730+272506522+272665481+272823098
1978+273019973+273235100+273400115+273471010+273526817+273866841+274749716
1968+275860845+276416960+276107094+275495223+275223651+275351867+275669940
1958+276138954+276744649+277282030+277556939+277644573+277817725+278279393
1948+279094264+280418714+282417742+284520144+285288531+284017944+281884799
1938+280495974+280211104+280420469+280620767+280760183+280937704+281148978
1928+281444239+282240152+283898226+285875664+287222065+288020507+288904242
1918+289333499+288226069+286135726+284832849+285162878+286468404+287513094
1908+287596634+287007178+286478692+286333031+286364376+286400537+286664643
1898+287508277+288800850+289852662+290411048+291202883+292587510+293462988
1888+292755965+291168682+290061717+289802634+290015681+290363842+290656780
1878+290831944+291014781+291474661+292806853+295923271+300928375+305680040
1868+306809645+303725466+299447168+296748034+296045794+296356451+296739329
1858+296861025+296873240+297054150+297511277+298278924+299532221+301567307
1848+304814230+309441033+313923052+314945446+311564028+307179241+304929802
1838+304880945+305387204+305664419+306913622+310569434+315632341+318866878
1828+318944774+317771300+316502658+314398827+311606829+309687522+309387634
1818+309942028+310458954+311170002+312935202+315671083+317847339+318120219
1808+317028220+316274197+317154802+319983993+323875801+326876441+327514168
1798+326614916+326686757+329632656+334904033+338738519+337380316+332539022
1788+328954569+328652754+330418091+332514283+334486990+336174499+337032292
1778+337538070+339626486+344877357+352456561+358339035+358728244+354742885
1768+349747415+345922460+344905467+347355807+351268258+353456557+353746949
1758+354062080+354651913+355381644+358096640+364428913+372468410+377503895
1748+377462263+374815633+372657715+372433212+374127637+376454422+377768929
1738+378833919+382824783+390533185+396371515+394409406+387928600+381953675
1728+377764388+375728648+375960584+377645031+380703405+386966761+397675872
1718+409487682+414457209+409718791+401219552+394534027+391673353+393072225
1708+398228684+404912971+410239915+414653740+421552380+431176236+437824946
1698+437840567+433539458+426333290+418338591+413777952+414184020+418006808
1688+424342314+434554214+447580614+454438585+449219403+440001512+434601798
1678+434843574+439364301+444688354+448273770+451770176+456714621+459533319
1668+456467375+451567899+450841506+454638970+458389366+458644973+457791550
1658+460563626+470083470+487094747+505646583+510775689+504276785+502022288
1648+506910237+511140193+507712291+500976256+497896446+500463356+508559417
1638+521621256+536056093+543320924+540384693+536013807+537363237+544923208
1628+555677632+566934152+578468885+590044734+599668349+607405996+616928042
1618+630388344+643777287+650723581+652890375+656184676+662389093+669487121
1608+675012970+678551352+681464083+684753635+688027499+690563133+692488255
1598+694453908+696844483+699619106+702531287+705350500+707919715+710234596
1588+712647329+715583251+718886773+721996103+724918744+728707881+734842591
1578+743533853+751439405+753843193+753146733+756125662+764805364+775198174
1568+782285879+786881028+793027022+802784616+817211333+838351135+864375584
1558+880550710+879471579+873878981+871062451+870639180+870859177+870654251
1548+870768962+873493764+879989881+889357785+899824088+905687260+896943217
1538+878040468+863889073+858487364+857145091+854278327+849856863+847579692
1528+848514522+850704850+852984155+856223887+859753598+860651750+858558998
1518+855467284+851313711+846012125+842168624+842742252+849009702+860715402
1508+873812232+876363074+862232392+845271211+836112569+835150352+839447194
1498+844251054+844339685+839509333+835306145+835770222+839803854+842596162
1488+840367297+834505639+828970707+826150805+825792563+826330959+827431146
1478+830469875+836265334+843552667+848855973+847593455+839588743+831289442
1468+828102145+829894113+832293910+831711887+830630141+834175473+843863703
1458+854469766+855211711+844673912+833390726+827027831+825087915+825307085
1448+825080070+822810124+819340005+816751798+816166403+817600885+820849976
1438+825024606+827441537+826212600+823814386+823402951+824780457+825413746
1428+824134093+822617103+822507414+823668846+825937278+829919574+833837049
1418+832677063+825743155+818519475+814670538+813523764+812966582+812305905
1408+812281545+813004774+813136689+811911330+810924546+812173233+815591949
1398+819515204+822275376+822385408+819243942+815095598+813281197+814299772
1388+815286074+813382628+809762220+808341982+811084193+816556161+822070725
1378+826493565+830662414+835099292+838373706+838991168+837952775+837416719
1368+838427312+841137043+845400580+849897050+852109331+850975356+848330721
1358+846482945+846076947+846375941+846554305+846616925+847000422+847492781
1348+847283795+846342566+846006826+847681605+851271046+855081035+857160505
1338+856909474+855356013+853934260+853437497+854005964+855587501+858131874
1328+861432712+865037155+868411004+871162231+873288632+875324061+877940964
1318+881141266+884065558+885964393+887212529+888991767+892003452+895823624
1308+899524750+902599261+905281123+908263769+911941911+915709991+918407750
1298+919550326+919647835+919408571+919136896+918835218+918513929+918168486
1288+917445257+915808670+913284528+910733686+909167563+908833474+909056017
1278+908935800+908091735+906818826+905696825+905142396+905366727+906505106
1268+908320402+909932630+910623516+910994282+912385619+915132923+918340657
1258+921418402+924818745+928799183+932194640+933267853+931859244+929825534
1248+929003146+929589229+930687559+931415742+931114615+929383065+926729278
1238+924614300+924073221+924525118+924455479+923436629+922635022+922692343
1228+922483013+921117000+919740114+920132006+922389221+924633568+925001582
1218+923732595+922592702+922397065+922406424+922257306+922937938+925021125
1208+927153650+927529371+926274560+925160196+925522017+927475352+930447607
1198+933731655+936993063+940501236+944350035+947867842+950510412+952336649
1188+953495878+954269822+954946395+955462632+956260592+958626326+962627684
1178+965963204+966635304+965544131+965166346+966761989+969165089+969892171
1168+967904016+965201853+964838175+967696199+971895740+975016700+976522267
1158+977676129+979274938+980497270+980407606+979893501+981086794+984768445
1148+989319071+992750724+994574965+994889717+993810174+992854632+994394261
1138+999010467+1004854164+1009364535+1010912904+1009567190+1007111517
1130+1005745848+1006329454+1008145162+1010261310+1012505864+1014799412
1121+1016016858+1015190134+1013911995+1014891691+1018188332+1021553648
1113+1024010560+1026302457+1028670393+1030503305+1031660195+1032564127
1104+1032839655+1031379574+1028028295+1024712524+1024519572+1028961267
1095+1036218115+1042618237+1045967727+1046980934+1047639340+1049093022
1087+1050859048+1051768141+1051895377+1052782931+1054329029+1053538157
1078+1048300499+1040811061+1035442107+1033961932+1034773585+1036022410
1070+1037652873+1040200756+1043293296+1046405792+1049806892+1054008290
1061+1058838299+1062946249+1064321483+1062430905+1059306642+1057414895
1053+1057371611+1057699988+1056373129+1053593483+1052002519+1053256298
1044+1056345811+1059924930+1064360844+1069692020+1073617546+1073741823
1035+1069716518+1062593374+1054866943+1050046775+1049829944+1052498663
1027+1054856552+1055290489+1054282787+1052936867+1052738959+1055000097
1018+1059291503+1063699823+1066256721+1065634855+1061595374+1055469335
1010+1050095357+1048050844+1049715989+1052961846+1055120107+1055729518
1001+1056412972+1058425281+1061255849+1063051946+1062021948+1057689047
993+1051287480+1044965873+1040476904+1038673444+1039434657+1041399553
984+1042169574+1039956400+1035846454+1033204572+1033835660+1036147719
975+1037842385+1038763727+1039941261+1041574752+1043010817+1043394658
967+1042043233+1039155756+1035821819+1032660534+1029075084+1024552465
958+1020041200+1017092204+1015907858+1015045007+1013012743+1009507873
950+1005304204+1001655514+999269755+997504968+995252639+992404730+990015669
940+988845498+987983267+985936414+983023270+981006420+980266607+979690020
930+979105451+979402931+980608541+981948887+983340637+985200524+987302014
920+988493173+987736846+985181187+981996712+979542416+978647429+979157887
910+979993831+980111915+979256152+977532378+975076155+972301738+969798447
900+968063250+967543640+968239962+969165777+969210850+968490030+967839193
890+967659178+967947643+968317308+968076324+967575707+968010676+969055332
880+968686767+966244719+963546204+961878169+960356568+957977760+955668797
870+955193916+957011689+959842670+961745634+961759672+960528739+959063772
860+957499783+955700864+954569298+955689304+959114419+962267033+962403421
850+960196646+958912245+959551177+959522619+957209872+954904900+955381708
840+958018635+960038926+960503898+960965498+962374932+963573248+963272602
830+961794423+960012502+958480510+958228241+959993509+962431979+963211496
820+961752860+959891321+959955043+962272745+964462316+963989087+961297522
810+959097972+959533974+962816576+967186499+970044179+970657237+970810416
800+971487333+971174714+968634056+964750438+960827045+957838482+957226869
790+959329736+961389869+960280461+957051945+955640377+957598667+961085714
780+964187338+966396040+967551691+967687322+967202601+966247197+964615426
770+962620665+961282796+961300068+962173722+962602911+962206684+962405623
760+964618247+967801071+969247183+968532075+967869540+968571780+970198665
750+972257010+974414377+975246468+973394632+970946529+972601214+979800947
740+987569079+989258791+984380269+978552192+976633607+978596232+980872371
730+980657261+978464111+976092528+973840129+971150904+968649470+967914682
720+969417221+971982582+974308267+975454146+973940459+968751865+962099266
710+958402132+959627078+963365088+965600145+964696488+961689070+957486639
700+952886605+950226763+951696685+956425331+961001281+962832679+962121355
690+960743368+959659420+957519463+952934430+948410022+948508838+952508200
680+953638460+948738537+943012648+941239259+941158816+938758332+934267435
670+930128451+928935640+932066991+935455842+935024933+930830553+926062270
660+924143823+925189167+927006733+927493588+925361544+920455497+914516562
650+910364090+909563377+911651105+914576085+916494464+918061756+919113843
640+915652326+905952329+894981487+889067324+890269493+895786534+900121774
630+898599692+891651196+885934597+888025215+895983822+900149162+896445903
620+892433397+893792667+895756600+892253726+885345967+880106933+877659449
610+877299486+879273053+882522212+884129279+884179168+886504440+892440210
600+898061709
##END=
