##TITLE=<SNM>
##JCAMP-DX=4.24
##DATA TYPE=INFRARED SPECTRUM
##DATE=3/5/2025
##SAMPLING PROCEDURE=Instrument type and / or accessory
##ORIGIN=Admin
##XUNITS=1/CM
##YUNITS=ABSORBANCE
##RESOLUTION=4
##FIRSTX=4497.3318
##LASTX=599.83466
##DELTAX=-1.4281778
##MAXY=1.7480153
##MINY=0.19301976
##XFACTOR=1
##YFACTOR=1.6279661e-09
##NPOINTS=2730
##FIRSTY=0.21613373
##XYDATA=(X++(Y..Y))
4497+132763040+132753915+133273288+133631939+133296665+132511656+132016264
4487+132189242+132740267+133222872+133475062+133520096+133400756+133234615
4477+133176666+133274258+133565743+134161463+134869402+135022563+134214707
4467+132999642+132362916+132645138+133232309+133139522+131944686+130282549
4457+129250440+129346741+130175804+130928091+130942141+130161745+129165635
4447+128484826+128129818+127941444+127859980+127718343+127373303+127118357
4437+127522391+128763002+130244353+130977811+130451271+129091613+127793455
4427+127160847+127248581+127739368+128193781+128239986+127745601+126930725
4417+126230731+125954670+126106952+126487681+126753070+126523855+125818662
4407+125141752+124859100+124887768+125150906+125756109+126506766+126773372
4397+126197478+125269742+124868189+125262163+125880336+126094632+125830634
4387+125352881+124910651+124623139+124334446+123656456+122429831+120992709
4377+119900279+119560437+120010566+120807374+121374627+121611916+121869753
4367+122335974+122790231+122875905+122312129+121029349+119472731+118564977
4357+118904049+120067948+121074227+121465537+121553903+121698817+121867667
4347+121948828+122042933+122239709+122363287+122127518+121430673+120461683
4337+119613965+119273941+119589490+120350261+121054630+121250043+121002264
4327+120863154+121114483+121289749+120862998+120137284+119871849+120234720
4317+120763640+121168240+121476018+121601783+121427963+121129458+120920013
4307+120677892+120236093+119805469+119725452+120021760+120489930+120971061
4297+121304834+121306060+121065239+121031701+121543367+122453758+123361036
4287+123949003+124059528+123765728+123394015+123152003+122819182+122164817
4277+121483917+121256358+121455139+121641389+121602030+121509921+121572859
4267+121833598+122245109+122716620+123095747+123245851+123195573+123121953
4257+123127225+123165303+123234767+123440733+123808245+124234795+124611871
4247+124821627+124737124+124467296+124399095+124726616+125147903+125268131
4237+125081542+124796922+124425942+123898926+123439442+123469959+124151949
4227+125207363+126139629+126504029+126135217+125367993+124903457+125178969
4217+125949516+126709107+127276663+127658481+127680549+127212920+126492459
4207+125936208+125885737+126510985+127576431+128396690+128393468+127623479
4197+126626874+125955082+125876080+126277468+126773299+127010267+126936739
4187+126771322+126669437+126519287+126202347+125889233+125912656+126474217
4177+127490720+128601759+129422127+129859853+130045288+130053243+129937893
4167+129857006+129928447+130084702+130133901+129953866+129676331+129583251
4157+129747158+129973069+130100391+130081251+129866398+129548130+129472607
4147+129887541+130510337+130684862+130117691+129321881+129069663+129513220
4137+130142139+130473852+130503289+130542135+130857318+131474997+132148199
4127+132469359+132134185+131226669+130196893+129451600+129053929+128849308
4117+128697154+128616587+128854434+129648312+130797831+131715407+132013527
4107+131852138+131651215+131634135+131760733+131957510+132180977+132325415
4097+132298678+132137188+131894856+131581293+131243072+130862151+130354439
4087+129957335+130190807+131083467+131936759+132148565+131850728+131574236
4077+131639865+131966846+132229599+132129334+131588634+130757099+129951742
4067+129560478+129777053+130390677+131018708+131480955+131736294+131626995
4057+131083522+130419116+129975861+129714289+129522730+129531050+129754215
4047+129964969+130230962+130869162+131605742+131648927+130875569+130116601
4037+130057224+130574767+131239456+131811918+132169462+132225132+131983981
4027+131499591+130914974+130602684+130970745+132028630+133295274+134114983
4017+134109408+133454375+132626154+131888632+131256390+130833089+130754500
4007+130895286+131096931+131532314+132428178+133585340+134472554+134725980
3997+134421754+133892632+133379209+132986343+132886545+133205975+133751746
3987+134235430+134606704+134814601+134627875+134109729+133849630+134335658
3977+135395054+136414770+136867819+136652480+136093519+135578933+135225609
3967+135025858+135141939+135727262+136541964+137104311+137237033+137157061
3957+137044001+136867901+136681249+136820735+137659245+139063827+140185502
3947+140276009+139708124+139416776+139568381+139606486+139310745+139001109
3937+139087662+140015810+141989861+144233302+145172570+144132570+142390599
3927+141819098+142928425+144469098+145006741+144702799+144727641+145381118
3917+145681335+144768757+143106886+141838412+141477298+141810110+142940809
3907+145712520+150544725+156089235+159814840+160411503+158483722+155046662
3897+151193689+148533923+148355179+150166138+151474566+150664641+149823559
3887+151493028+154638117+156363649+156731609+157604224+157954335+155904339
3878+153308289+153171860+155666355+159246077+162911326+165357895+164920828
3868+162862887+162133227+162771226+162075489+159000788+155855681+155250926
3858+158410606+165813690+176157636+182432656+177649522+167159270+158583217
3848+154557696+155034983+158705761+163777460+168994806+173717108+176779141
3838+176676478+173960291+171031401+168948912+166992169+164791438+163163278
3828+162565169+162714330+164385034+169037021+175146038+177884101+176344215
3818+174339766+172684659+169298767+164790138+162105438+162969541+167075500
3808+171985755+175024465+177245370+181263715+185568190+186150152+183867298
3798+182256896+181280849+179431291+177507354+177411044+179677001+183657671
3788+188636703+194010258+199171988+204264227+210452787+218304269+226637524
3778+234297393+242131741+251658303+263262595+275915775+287117013+294433581
3768+298304284+300708455+302507213+304772200+309557860+317401966+326046211
3758+333269140+340269244+350319975+365525371+384573113+401766372+412991061
3748+421957573+433439065+446886490+456876407+462056737+467799808+478298353
3738+493952623+511752486+526915154+536864065+542941632+547543624+552036106
3728+557224125+563258159+568939574+572505273+572814249+569517253+563524152
3718+557082286+552549603+551341778+553232984+555678143+555380699+551900382
3708+547294546+543812910+543052789+544811931+546907291+547941643+549000599
3698+551088783+553884108+557392471+562775124+570903273+580050214+585527951
3688+584375155+579472022+575536569+575115556+578135393+582630401+587241949
3678+592356815+596562838+595873050+591477445+588630532+587322278+583173262
3668+575783487+569297063+565730046+564020697+562844469+562705340+564653698
3658+567441225+568467413+568759328+572803265+582406587+593293594+596892208
3648+590264824+580033884+572359700+568915958+568583659+568950777+568485573
3638+567998328+568898348+571185925+574503974+579750683+587350177+594018970
3628+595426006+593219600+591457015+591457235+593520192+597962002+603563344
3618+608057511+611034290+613429546+615721993+618384487+621760860+624591627
3608+625147778+624350641+624678400+626623207+628715637+630060065+631373225
3598+633516327+636389858+639419360+641903403+643332406+644288004+645906077
3588+647741631+647833456+646077719+644428598+643651598+643373706+643781867
3578+644617521+644266915+642249322+640845435+642195281+645562501+648603646
3568+649755929+648727105+645670290+640974532+635607146+630899819+627955698
3558+627064246+627568480+628356903+628471721+627754547+627337892+628761257
3548+631884268+634337409+634189493+632323843+630642870+629592078+628363201
3538+626248803+623608277+622019567+623188399+627295933+632425115+635563431
3528+634690212+630562467+625925657+622676111+620679680+619279527+618611268
3518+619053406+620246622+621100729+620712851+619246356+617772904+616970055
3508+616378097+615406389+614071371+612446232+610440465+608248997+606341608
3498+604853695+603702144+603184840+603424984+603795507+603798436+603563015
3488+602921666+601542749+600162514+599568139+598797802+596553172+593816976
3478+592972865+594672841+596878625+597408268+596776255+596854900+597278841
3468+595652567+591570735+587879710+587304557+589678505+592448933+592931419
3458+590659622+587605040+585485480+583917164+582195073+581416243+582928248
3448+585649945+586837120+585413974+582686309+579894499+577313652+575442144
3438+575131703+576466428+578431958+579554071+578918068+577237753+576311079
3428+576528377+575988482+573217358+569612959+567771438+568261356+569194803
3418+568670908+566800462+565025539+564262562+564304264+564508015+564612728
3408+564991270+566041659+567235351+567194198+565217025+562296117+560022489
3398+559086333+559038480+558993958+558439016+557499930+556669329+556350650
3388+556465395+556340764+555434337+554264773+553939577+554624971+555168820
3378+554506968+552971604+551874753+552138220+553566491+555110020+555704358
3368+555040382+553527059+551708933+550101734+549268094+549480669+550538087
3358+552039914+553452149+554139996+553812091+552571351+550575213+548526242
3348+548008315+549821206+552336698+553046843+551529310+549504540+548418344
3338+548205806+548200021+548332706+548867621+549290867+548609537+546936691
3328+545508163+544822696+544053384+542662897+541310708+540651711+540342771
3318+539830117+539468344+540154178+542039196+544141951+545182857+544520748
3308+542519558+540281335+538816707+538297718+538189564+538012320+537729302
3298+537534045+537600864+538002435+538638695+539265142+539694502+540010033
3288+540607080+541902227+543764508+545313053+545647549+544753058+543376008
3278+542283880+541981823+542635548+543713762+544134775+543280155+541562092
3268+539775527+538407411+537880367+538811508+541105602+542960048+542274580
3258+539423933+536858756+535715553+534804989+533236820+532067585+532628679
3248+534455152+535604140+534797666+532631168+530504395+529197679+528846378
3238+529348634+530133506+530174842+528968555+527246868+526163014+525855246
3228+525350097+523961002+522163928+520880351+520494670+520687547+520816608
3218+520474899+519796388+519156028+518796049+518857119+519217537+519186746
3208+518104723+516298606+514792313+514161838+514105344+514070635+513997555
3198+514037720+513670455+512116455+509781940+507999219+507085689+506053753
3188+504442490+502873076+501755466+500959903+500652025+501044918+501398343
3178+500537316+498485233+496540573+495585854+495217930+494667308+493779041
3168+492754135+491586951+490284225+489283337+489018735+489029755+488103375
3158+485674288+482690699+480604932+479765104+479296678+478453775+477551815
3148+477354691+477898027+478319954+477874704+476753140+475659218+474874529
3138+474086435+472985301+471726657+470806098+470540032+470659024+470563684
3128+469987725+469128676+468226020+467357378+466500488+465554007+464552313
3118+463853848+463618683+463275985+462270703+461083455+460521703+460306162
3108+459406655+457635650+455966429+455247314+455269062+455154976+454343194
3098+453091141+452078317+451662906+451676709+451786109+451756525+451463585
3088+450924826+450315989+449844451+449634695+449627665+449447090+448558494
3078+446794592+444678034+443067942+442437248+442596001+443084382+443532451
3068+443570931+442839587+441380671+439721079+438386757+437519103+436888115
3058+436168634+435341035+434751237+434620016+434734212+434751823+434516841
3048+434021724+433306087+432438909+431563054+430961321+430901495+431277913
3038+431517874+430940268+429336291+427347769+426024833+425731343+425773119
3028+425340500+424362312+423183155+421964273+420719030+419543205+418561173
3018+417756127+416983740+416234053+415741206+415581244+415367169+414745517
3008+413919090+413230144+412611568+411924819+411354169+410967683+410407505
2998+409468602+408447028+407556967+406621616+405686155+405259797+405518797
2988+405876030+405747701+405181994+404403127+403348564+401985757+400592158
2978+399486813+398785785+398444076+398272654+397950863+397262320+396342859
2968+395549420+395050568+394678141+394250465+393865004+393678315+393541053
2958+393086283+392106484+390720977+389254225+388050684+387349766+387179845
2948+387278041+387216129+386770696+386130189+385590257+385102170+384329307
2938+383176329+382032247+381305993+380881905+380326816+379575445+379067221
2928+379143156+379533743+379568379+378895323+377825968+376816110+375909829
2918+375008162+374297871+373976885+373807294+373326895+372386309+371246767
2908+370261403+369631806+369384340+369378481+369341502+369085541+368685398
2898+368271745+367753782+366981212+366052707+365209072+364554249+364077072
2888+363741002+363342800+362552473+361387412+360380739+359947388+359849485
2878+359625304+359247311+358985785+358921163+358897145+358700314+358172355
2868+357399712+356732954+356376636+356157435+355888256+355641705+355448828
2858+355069774+354344032+353514675+352910159+352510968+352099768+351669712
2848+351408771+351337779+351171593+350587689+349556083+348378793+347454170
2838+347014595+346990284+347031180+346740107+346015830+345148506+344497637
2828+344090721+343617645+342864736+342043325+341522469+341347862+341242673
2818+340926630+340245555+339237930+338231880+337587162+337256474+336863361
2808+336195980+335427547+334935616+334956924+335243750+335140245+334271127
2798+333014790+332015806+331421688+330890910+330179117+329382273+328660705
2788+328029607+327432194+326832510+326226310+325654489+325191921+324851969
2778+324513812+323974210+323106117+322011134+320996882+320330343+320011261
2768+319833395+319618770+319292585+318801569+318140779+317429389+316772626
2758+316068302+315131011+314002563+312985309+312340921+312008915+311639783
2748+310961125+310095924+309398448+309037371+308884072+308680944+308189854
2738+307355591+306430400+305771843+305468322+305264736+304854414+304194576
2728+303501035+302909314+302268478+301418032+300490480+299709123+299078666
2718+298499742+297990602+297601864+297270206+296880882+296382928+295825221
2708+295339751+295009484+294699391+294177217+293461855+292831014+292424299
2698+292087935+291670841+291215614+290779919+290296390+289720011+289170963
2688+288811790+288637348+288488937+288248591+287885940+287340846+286545101
2678+285589869+284720677+284132765+283829243+283661867+283468459+283159336
2668+282704878+282149716+281657967+281390107+281297787+281195930+280998403
2658+280688273+280155976+279325832+278411149+277809232+277681141+277753837
2648+277635046+277255479+276845085+276510772+276082602+275444914+274782641
2638+274345903+274130362+273948762+273702320+273426735+273157776+272904909
2628+272693981+272524207+272323092+271992807+271482495+270855792+270323732
2618+270098105+270125217+270068174+269656534+268982636+268396408+268182863
2608+268356829+268661925+268752963+268475895+267990334+267584882+267425378
2598+267494961+267657211+267726080+267567839+267195650+266753951+266404407
2588+266205068+266072492+265889666+265669054+265545760+265571682+265603206
2578+265492983+265320188+265272225+265340032+265333295+265179265+264976923
2568+264777456+264564496+264440214+264585750+265033801+265646025+266252280
2558+266656066+266649677+266251383+265791946+265549550+265451518+265297231
2548+265043723+264710344+264250485+263662207+263039567+262475416+262050651
2538+261840621+261806150+261792182+261713190+261626014+261595827+261593648
2528+261533640+261360058+261107465+260883467+260772859+260767550+260782946
2518+260700841+260438803+260059712+259767577+259716557+259867750+260070092
2508+260193551+260159812+259952692+259643972+259343215+259105341+258898038
2498+258648411+258335443+258030970+257800766+257604960+257383507+257175911
2488+257049066+256966009+256829663+256607074+256313786+255920801+255396064
2478+254828545+254378828+254085522+253840911+253572666+253330068+253165695
2468+253034913+252865615+252662285+252465069+252239680+251923417+251566770
2458+251295487+251141072+251026180+250883335+250694320+250465965+250224686
2448+249997301+249786539+249579602+249362835+249145739+248974335+248863453
2438+248749678+248594769+248462230+248394295+248304831+248095350+247803288
2428+247558860+247447868+247467602+247561771+247647903+247661816+247613395
2418+247556810+247524957+247560306+247730136+248014710+248278085+248412931
2408+248403503+248267266+248082627+248009639+248135606+248363961+248544481
2398+248653386+248793028+249034710+249289115+249392657+249339934+249307605
2388+249391412+249442798+249216713+248559932+247405910+245715307+243527518
2378+241005892+238334904+235630562+233053504+230908589+229425325+228455833
2368+227572234+226519831+225488298+224914299+225095643+226054536+227758869
2358+230400200+234335177+239782544+246671069+254455843+261889774+267462576
2348+270276263+270610302+269880349+269440188+269123010+267858710+265243026
2338+261690270+257782277+253951061+250515704+247798492+245991277+244814482
2328+243678290+242349148+241129113+240389788+240236947+240583104+241262348
2318+242002369+242483408+242610913+242655324+242938141+243455592+244002663
2308+244529688+245128218+245777164+246333187+246727948+247018600+247238497
2298+247323585+247271851+247285270+247567446+247998545+248232392+248161857
2288+248080137+248286543+248696351+248969759+248933878+248734136+248584920
2278+248504262+248352995+248055716+247692644+247390477+247192273+247037400
2268+246835480+246577176+246380180+246376628+246540416+246686099+246659664
2258+246476874+246241984+245990819+245701449+245415630+245206844+245048841
2248+244865300+244677146+244570749+244575985+244654812+244729521+244711398
2238+244605239+244557459+244728368+245163586+245797155+246508032+247183761
2228+247773119+248281380+248754932+249279230+249908936+250599236+251288640
2218+252010593+252830448+253742495+254738331+255893433+257257943+258741097
2208+260238749+261782187+263431307+265139649+266829923+268491693+270169409
2198+271926995+273782485+275658239+277480118+279264798+281000069+282555405
2188+283821481+284856182+285837189+286891990+287977454+288930471+289616817
2178+290021299+290251119+290437076+290573441+290538805+290284510+289849950
2168+289247704+288481193+287578117+286552222+285426282+284218146+282891000
2158+281457163+280039290+278733123+277561106+276497811+275450918+274444996
2148+273712993+273400502+273746329+275683484+280221440+287084592+294984880
2138+303141569+311560626+320218014+328895321+337454257+345858211+354250962
2128+362944121+372100838+381595308+391077916+400025243+408023233+414976508
2118+420795991+425232638+428259797+430333079+432296302+435230537+440179144
2108+447755938+457967254+470368500+484200544+498139461+510201085+518583840
2098+522596766+522622835+519824690+515649459+510696458+504407964+496056257
2088+485329101+472333993+457561875+441275702+423372115+404465625+385965870
2078+368893946+353772796+341039873+330550702+321580309+313785009+307270906
2068+301945662+297593700+294043470+290985776+288265140+286070304+284414721
2058+283046568+281881379+280920125+280157623+279896097+280558700+282280296
2048+285125031+289293672+295036724+302857013+313465048+327198457+344029651
2038+363967893+386567567+410366535+433477692+454201245+471028778+483138695
2028+490889803+495348382+497598431+498221657+497138865+494275000+489994470
2018+484572348+477980516+470315594+461798433+452451366+442127758+430760169
2008+418576038+406074655+393683514+381563858+369814469+358621010+348138026
1998+338463969+329815697+322479853+316377242+310879295+305405018+300037376
1988+295206645+291120713+287777914+285095209+282845105+280800071+278946540
1978+277354774+275994731+274791995+273715483+272841403+272364062+272317985
1968+272293417+271759839+270710786+269650475+268936486+268486238+268147239
1958+268000659+268127651+268358807+268459327+268390696+268289260+268315622
1948+268598292+269278396+270394651+271469242+271532124+270197893+268330541
1938+267011688+266488617+266415867+266485578+266599463+266774711+267023221
1928+267367822+268029089+269207184+270552252+271518559+272252557+273105767
1918+273511457+272678018+271164402+270372116+270886345+272086627+272941760
1908+272966583+272514010+272185061+272164375+272288273+272490853+272920835
1898+273705597+274670806+275395230+275825615+276513262+277631458+278282674
1888+277669096+276345959+275328723+274884241+274778155+274835967+274938465
1878+274999829+275060588+275272046+276061055+278163572+281738333+285207575
1868+286020712+283679753+280404742+278272386+277608611+277704995+277884984
1858+277892105+277823548+277880591+278112186+278510205+279246363+280633994
1848+283020372+286459811+289765448+290567473+288276069+285333743+283907009
1838+283972016+284391142+284702499+285787487+288612634+292363906+294659849
1828+294613808+293735390+292926738+291576123+289658373+288284417+288099833
1818+288649430+289264070+289976521+291320272+293301344+294971590+295446094
1808+295032111+294804250+295624564+297807611+300914073+303630809+304714187
1798+304508001+304834954+307218586+311234807+314049904+313066297+309696880
1788+307334136+307342960+308866974+310785639+312799461+314630695+315716305
1778+316423814+318358845+322844225+329205432+334179998+334755773+331908567
1768+328400094+325909095+325529126+327651542+330799890+332727342+333426540
1758+334329928+335484810+336601798+339006829+344006694+350293870+354547124
1748+355362860+354458960+353898599+354609695+356589870+358957154+360526531
1738+361888314+365419779+371542929+375810572+373984794+368946119+364496657
1728+361402643+359883205+360151285+361659995+364296018+369404330+377883268
1718+387140669+391349401+388534305+382951123+378617138+377114469+378857026
1708+383370268+388803044+393059666+396760686+402553660+410442141+416040957
1698+416792218+414508924+410031453+404728543+401918389+402989977+406739802
1688+412328074+420795734+431516812+437891054+435247526+429274672+425997044
1678+427055963+431514908+436662543+440419911+443997728+448689751+451936734
1668+450858190+448343063+448970060+453083562+457148332+458461638+458843621
1658+461965242+470252144+484294053+499677058+505237357+501810641+501179361
1648+505865050+510091246+508545045+504419204+503014439+505886652+512960823
1638+523794962+535479912+541311916+539082334+535708670+536743608+542346488
1628+549943749+557625439+565731913+574478930+582388060+589280742+597772933
1618+609369024+620511114+625619280+625641394+625029006+625166670+625185636
1608+624592652+624096767+624770079+627085994+630893156+636098565+642834616
1598+650839379+659203682+666851981+673186754+678500977+683604969+688741254
1588+693295466+696835206+699772443+702723960+705962888+709929609+715734006
1578+724176294+733361532+739005345+741325435+745495284+754388497+766208036
1568+777380039+787577332+798526729+810572390+824443793+843420212+868438575
1558+887652027+891165699+888030385+885378436+883821360+882933203+882512228
1548+882633709+883939400+886823403+890974579+895487126+896624690+888884932
1538+876157903+867388442+863952610+861790541+857392594+852091990+849216262
1528+849401963+850947103+852733596+855178608+857803318+858661232+857487787
1518+855613204+853076512+849871195+847769904+848794408+853704498+861988910
1508+870498786+871400343+861484164+850380554+845164746+845693511+849166103
1498+851765329+850505331+846515179+844088618+845676888+849829969+852266487
1488+849946764+844659561+840105349+837836298+837022538+836605663+837101989
1478+839717032+844486015+850173911+854604737+854794612+850292976+845268874
1468+843617703+845418108+847437019+846758655+845272828+847263181+854053200
1458+861713068+862542938+855138847+846363235+840641948+838469263+838463917
1448+838186244+836084441+832913467+830088924+828103916+827367630+828833612
1438+832348309+834796837+832945613+828515812+825081297+823427563+822346237
1428+821320708+821070275+821806488+822793647+823772750+825099238+825750143
1418+823451508+818541492+813904828+811071351+809692800+809083195+808974308
1408+809220127+809311733+808539492+807110196+806468298+807510522+809473269
1398+811253903+812600235+812970319+811254929+808067405+805705650+805160996
1388+805138442+804206496+803288389+804601916+808665001+813916324+818780867
1378+823157726+827741082+832501791+836388036+838757407+840424175+842456340
1368+844878506+847265598+849625815+851757494+852606329+851479382+849278285
1358+847531261+846904887+846932566+846826169+846491160+846464213+846893756
1348+847205479+846976136+846746646+847716230+850615243+854808598+858607631
1338+860885396+862193797+863796345+866239674+869171566+871904430+874015606
1328+875747252+877852644+880919857+885002860+889911266+895410458+900968304
1318+905871804+909932253+913646491+917534420+921585863+925294242+928028278
1308+929664657+930987703+932907906+935347866+937529852+939194862+940765924
1298+942438404+943786200+944133657+943158214+941345654+939509441+937687287
1288+935211080+932006056+928898934+926519898+924749954+923205474+921663116
1278+920195083+919201628+919017977+919440198+919936816+920211925+920311732
1268+920361672+920488060+920957658+922162517+924170518+926305199+927587678
1258+927735082+927509253+927982951+929514544+931268451+931835952+930560064
1248+928077120+925498177+923369792+921606952+919859269+917565614+914291757
1238+910379004+906687906+903579540+900782091+898151670+895887232+894205086
1228+893238358+892846380+892370045+891223620+889735084+888840850+889225359
1218+890938259+893235063+894901977+895499940+895955625+897259705+899245079
1208+901208265+902992854+904955015+907422948+910536953+914070396+917171732
1198+918946435+919558677+920278634+922262251+925451678+928609911+930436971
1188+930788675+930722479+931483149+933733894+937358064+941313288+944131533
1178+945351623+946031672+947471733+949934393+952767064+955277541+957248489
1168+958966808+960786252+962670355+964348253+965843746+967825898+971136588
1158+975418253+978710709+979501109+978520395+977475022+977210164+978031465
1148+980240618+983556360+987395521+991737817+996406042+999955008+1000910606
1138+1000092600+1000140636+1002295967+1004944988+1006151750+1006407748
1130+1007485414+1009537130+1011021786+1011344639+1011538614+1011957540
1121+1011756168+1010957054+1011074215+1012980505+1015653397+1017897625
1113+1019354308+1019884683+1020132260+1021824510+1025714344+1030145097
1104+1032897366+1033805586+1034588445+1036429783+1038421381+1039037284
1095+1038897276+1040322399+1044037222+1048196966+1050827021+1051415391
1087+1050026149+1046817317+1042808418+1039628364+1038166775+1038495779
1078+1040968544+1045692201+1050751818+1053269105+1052871342+1052280482
1070+1054132878+1058520867+1062565280+1062656300+1058732929+1054754273
1061+1054529982+1058870960+1065857883+1071842709+1073007880+1068631021
1053+1062631623+1059961440+1062015500+1066256964+1069823798+1072233076
1044+1073741823+1073545724+1071437550+1069075649+1068235528+1069003961
1035+1070012940+1069665264+1067628632+1065378619+1064546846+1065365951
1027+1067328772+1069892557+1071802948+1071564304+1069270869+1066711697
1018+1065011904+1063382847+1060799657+1057663684+1055453727+1054940852
1010+1055206882+1054989474+1054305837+1054075981+1054816588+1056339833
1001+1058185419+1059690358+1060156367+1059443879+1057755290+1054900285
993+1050962489+1047562244+1046881024+1049465239+1053667820+1056697835
984+1056127405+1051727407+1045931650+1041249805+1038013733+1035518267
975+1033766923+1032678859+1030699417+1026036391+1019424605+1014109209
967+1012369508+1012760242+1011679867+1007852642+1003304361+999326217+994812500
957+989411137+984932860+982675526+981663470+980124774+977742663+975384422
947+973423579+971809900+970864773+970670651+970164514+967917211+964042901
937+960651663+959929656+962071221+965292867+967689917+968652545+968443558
927+967351687+965728928+964112832+962851516+961910929+961341524+961564131
917+962650657+963803526+964274954+964231165+964064283+963593514+962433762
907+960580268+958543343+957001645+955929251+954281083+951371818+948205969
897+946298727+945581626+944608087+942891599+941893383+942898409+944838163
887+945361875+943997530+942727426+943067121+944332465+945245738+945610403
877+945821514+946181932+947000963+948096203+948336165+946826759+943991672
867+940774199+937821877+935859056+935492707+936392727+937381350+937235484
857+935422117+932912006+931958752+934019109+937940503+940939396+941372308
847+939754821+937594950+936246934+936547526+938750381+942261929+945399293
837+946411715+945164165+943083963+941643829+941609706+943005612+944667181
827+944716681+942691326+940141893+938625677+938738885+941024265+945653534
817+950809223+953596494+953311791+951882275+951194904+951345676+951431423
807+951191682+951360394+952503670+954337394+956499901+958896292+960578511
797+959829190+957015924+955440761+957278365+960518319+961565376+959631114
787+957008089+955683579+955370172+955009827+955021616+957113607+961824010
777+966538806+967155075+962861767+957482226+954992692+955857051+957928978
767+959305332+959502529+958844594+958194495+958509952+959285195+958563700
757+955970771+954128480+955159940+957616962+958812814+958812741+959462548
747+961013619+962493295+963404298+963243348+961205764+957572587+953875411
737+951551148+951681783+954970505+960113526+963711334+963624049+961127339
727+958946891+958698289+960117773+961424416+960861748+958611297+956238558
717+954553410+953733866+954382354+956470830+958300526+958405825+957881600
707+958381221+958846791+956954194+952943758+949356055+947238142+945695638
697+944536838+944077785+942874610+939151732+934693520+933201468+934499983
687+934193533+929789068+923902438+920399310+920046654+920435484+919405196
677+918164163+919557359+923189950+924245428+918517039+907189211+897660397
667+897720516+903920626+907659907+905945030+900779381+896260098+895017821
657+895734629+895351145+893984457+894345387+895928751+894365085+887800163
647+879939582+875767682+877370305+883033889+888173322+888674773+884687769
637+879835015+877140961+876666457+876482294+875817622+875562943+875207651
627+872086250+865307142+858141621+853639327+851077811+848440214+845996153
617+846320178+850834775+857241089+861018814+859061851+852219696+843435224
607+835393555+830723060+831869265+839086630+849017088+855902739
##END=
