##TITLE=<SNM>
##JCAMP-DX=4.24
##DATA TYPE=INFRARED SPECTRUM
##DATE=2/5/2025
##SAMPLING PROCEDURE=Instrument type and / or accessory
##ORIGIN=Admin
##XUNITS=1/CM
##YUNITS=ABSORBANCE
##RESOLUTION=4
##FIRSTX=4497.3318
##LASTX=599.83466
##DELTAX=-1.4281778
##MAXY=1.7930565
##MINY=0.26034394
##XFACTOR=1
##YFACTOR=1.669914e-09
##NPOINTS=2730
##FIRSTY=0.27980047
##XYDATA=(X++(Y..Y))
4497+167553824+168051424+168692689+168579666+167572438+166446138+165889680
4487+165894642+166035113+166065827+166226857+166850257+167658745+167875724
4477+167157005+165976540+164997082+164500071+164536478+165126541+166016302
4467+166591481+166454133+165964297+165828591+166241241+166829965+167302794
4457+167678269+167916842+167738233+166963619+165856432+164878152+164147172
4447+163481529+163014982+163233657+164166500+165143121+165662886+165998598
4437+166661350+167636543+168346589+168217362+167283894+166245471+165762166
4427+165795093+165832875+165542671+164891715+163889859+162734880+162044929
4417+162342058+163303384+164053477+164227232+164187969+164206423+164046606
4407+163482564+162755011+162276757+162181706+162422760+163028706+163854470
4397+164323425+163994655+163218220+162659942+162404806+162110408+161814369
4387+161889021+162222075+162039432+160805642+159064454+157988410+158037560
4377+158482529+158460150+158068131+158054782+158746838+159615147+159857808
4367+159317537+158680306+158610133+158901390+158875780+158429364+158074395
4357+158054103+158131254+158274848+158801234+159641721+160106322+159615255
4347+158304420+156872407+156058316+156126311+156716035+157299227+157647682
4337+157666296+157194414+156391048+155902604+156160880+156751354+156905531
4327+156499199+156107305+156087424+156133022+155966816+156034223+156956626
4317+158502892+159706112+159981681+159614237+159064311+158351339+157412625
4307+156632174+156489472+156844049+157107305+157158703+157508390+158367865
4297+159169035+159292106+158804661+158211189+157885471+157954573+158375896
4287+158918362+159214723+158936298+158059600+157030528+156458687+156572423
4277+157118816+157697510+157975436+157789010+157312719+156883347+156582132
4267+156339382+156358978+156895786+157633280+157871051+157459097+157034758
4257+157181957+157820027+158505694+158924323+159058422+159222950+159806999
4247+160701293+161282200+161231070+160960212+160974382+161235121+161373004
4237+161188666+160769324+160328762+160050355+159942579+159816707+159512012
4227+159173265+159182777+159666153+160166894+160124847+159656748+159439358
4217+159829967+160631620+161552077+162274758+162392010+161873869+161154240
4207+160461577+159772715+159356139+159410589+159495236+159247686+159090724
4197+159460221+160031224+160297888+160284003+160264943+160231141+160009790
4187+159793667+160119796+161074412+161937421+162091259+161815172+161655373
4177+161628996+161599192+161824131+162593963+163747426+164834856+165434217
4167+165305632+164596586+163822792+163331920+162955892+162477157+162112853
4157+162154757+162439250+162585771+162538674+162502856+162511511+162419012
4147+162287929+162481440+163264674+164414407+165253734+165107731+163945612
4137+162558234+161827397+161919914+162402629+162881597+163230320+163407108
4127+163371718+163165697+162920966+162747997+162667294+162652143+162638151
4117+162514617+162334937+162438644+162989801+163512386+163385478+162691976
4107+162062990+161836713+161940473+162426312+163375252+164265602+164256483
4097+163335972+162445586+162212795+162320178+162315413+162249416+162300653
4087+162458007+162712928+163027493+163109694+162670400+161904191+161433790
4077+161779764+162927141+164255537+164928497+164584432+163634135+162786671
4067+162428132+162482368+162631280+162603618+162393313+162201051+162158362
4057+162251504+162443623+162659014+162777944+162835659+163012377+163352890
4047+163760079+164156363+164368827+164139373+163568013+163184704+163298761
4037+163581470+163500910+162998760+162585129+162735718+163263300+163571351
4027+163554486+163744463+164428203+165169087+165410873+165151491+164891911
4017+165106035+165696009+165995993+165551255+164696723+164039771+163763541
4007+163776783+164051996+164527002+165107873+165826450+166589304+166969026
3997+166713998+166185649+165873761+165808478+165767074+165653463+165464681
3987+165241598+165117475+165200426+165478227+165919324+166519381+167242187
3977+167989050+168549380+168678875+168422009+168166106+168171674+168305917
3967+168383228+168450795+168635312+168982464+169482901+170041786+170458826
3957+170645769+170798572+171169246+171757257+172362668+172713639+172489771
3947+171753670+171320604+171908757+173009179+173438230+172958834+172369164
3937+172333471+173108210+174799660+176967881+178331131+177879362+176235938
3927+174993777+174927316+175458361+175870403+176435070+177705661+179281107
3917+179943395+178952943+176857732+174897798+173878239+173794609+174597136
3907+176912789+181254729+186501885+190193049+191103637+189933684+187376870
3897+184030753+181507669+181424290+183415883+184962579+184435675+183625653
3887+184657384+186705569+187694093+187936950+188666038+188639643+186358684
3878+183622565+183044281+184949176+188332360+192207825+194823069+194362019
3868+192125927+191019401+191423537+191450325+190145327+188634539+188451325
3858+190689595+196089465+203685041+208144608+204703565+197438509+191611373
3848+188854980+189060752+191377261+194621063+198111719+201827475+205104668
3838+206157868+204383843+201502149+199101350+197399800+196250941+195667928
3828+195352899+195193136+196392626+200295735+205465437+208088587+207607318
3818+206697889+205385913+201856797+197233790+194559242+195483590+199740955
3808+205067279+208655146+210848710+213958127+217301513+217843265+215915687
3798+214148889+212888668+211420694+210392497+210933678+213222150+216851778
3788+221509586+226802073+232044339+237044302+242684245+249696896+257316368
3778+264400817+271472719+280101917+291265068+304834389+319187463+331545463
3768+340167987+345067312+346958840+347786031+349957465+353657498+356898944
3758+358885237+361497162+366785009+375304486+386167474+396948154+405566823
3748+413527380+423868997+436503227+446689721+452142114+456662663+464050344
3738+475956860+491695188+507403713+518667536+525349026+530714255+537200075
3728+545389532+554577794+562847811+568134587+569789825+568853056+567194355
3718+565963403+564855413+563308825+561526090+559822059+558076374+556341540
3708+555070396+554683160+555185685+555902727+555913685+555365865+555590982
3698+557472908+560455864+563371538+566347212+570818754+576395966+579239790
3688+576982906+572444046+569023777+568035038+569720795+573668539+579164941
3678+584905628+587442561+584488624+580137725+578434229+577640518+574700859
3668+570575505+567657368+565974575+564363417+562523645+561564710+562920946
3658+566341323+569462375+570848844+572167352+575218232+578775920+578856087
3648+573763947+566956317+562072268+559905688+559472122+559512492+559578488
3638+560220431+562001917+564937579+569075675+574668342+580661309+583403121
3628+580506757+575651084+573251249+574427413+578498120+583758197+587550390
3618+588318330+587515839+587453126+589137383+592568503+597201415+601474681
3608+603355286+603028122+602979722+604817996+608268747+612310079+616156454
3598+619618341+622951162+626182471+628855681+630869708+632651729+633799481
3588+632987816+630534263+628985676+629485238+630295404+629468034+627314875
3578+625232674+623144905+620182009+617436056+617739092+622605866+630339092
3568+636426146+637127019+633787773+630018210+627148616+624888948+623569512
3558+623712213+624176939+622973577+620116048+618228161+619666813+623925088
3548+628335916+630728006+630816025+629089686+625909704+622220950+619519971
3538+618396919+617760294+616208994+613998512+612813068+613648290+615604279
3528+616943490+616759884+615128203+612730331+610950594+610699385+610710379
3518+608862897+605506233+603335512+603713647+604854046+604031602+600874392
3508+597695802+596688717+597562130+598088713+596852941+594851907+593825655
3498+594053949+594683114+595105650+595164365+594672441+593538681+592250298
3488+591590615+591851747+592616618+592940712+591741241+588717345+584869792
3478+581635699+579842791+579533402+580103566+580517751+579949871+578512861
3468+577362254+577706765+579179432+579646050+577665040+574489091+572380405
3458+572042997+572523249+572514897+571488217+570143617+569703448+570437158
3448+571320851+571424540+570877006+570060915+568958351+567613073+566245344
3438+564921017+563739928+563072321+563179544+563670183+563614644+562438980
3428+560526429+558575580+556757723+555173585+554489846+554853774+554999188
3418+554119207+553361654+553760882+554351070+553830234+552404289+550808659
3408+549257930+547917470+546815584+545419943+543649130+542607172+543118086
3398+544373238+544981487+544510372+543215707+541376148+539651665+538939513
3388+539284596+539795616+539890845+539700315+539146106+537930501+536498488
3378+535829740+536251170+537113304+537502932+537093387+536474324+536468149
3368+537067867+537469594+537199682+536658894+536426352+536530969+536576728
3358+536353431+536101294+536059604+535889347+535101312+534154442+534112788
3348+534975208+535399886+534546568+533154995+532197881+531779592+531819354
3338+532358358+532925380+532946368+532665320+532518192+532122318+530919420
3328+529241124+527958844+527559401+527933716+528521548+528559062+527575820
3318+525747969+523772063+522351293+521635287+521192619+520746703+520710653
3308+521595132+523083611+524143415+524116003+523447218+523122017+523600093
3298+524557849+525373618+525601341+525138436+524244998+523491300+523459176
3288+524250531+525307871+525906197+525769278+525049881+523961665+522789463
3278+522093838+522435208+523765031+525204789+525674405+524883086+523545625
3268+522469259+521622901+520483109+519056914+517938002+517425733+517126516
3258+516552283+515741547+515140758+515142543+515719917+516365822+516551677
3248+516323168+516177219+516293864+516202775+515446293+514391165+513935362
3238+514377815+515015975+515001198+514169153+512812845+511125804+509237168
3228+507486093+506348085+506114437+506549324+506887910+506455129+505396432
3218+504662650+505004413+505920373+506131641+505222177+503889999+502518521
3208+500863283+499203083+498259568+497898852+497284214+496303543+495635080
3198+495455150+495090258+493963351+492271884+490682250+489683017+489350035
3188+489563909+490044518+490109694+489012413+486858682+484619931+483027156
3178+482067828+481541853+481274475+480788333+479676845+478213708+476841338
3168+475400473+473501022+471253989+469135703+467484605+466483944+466292272
3158+466822388+467590863+468081146+468145750+467871198+467290041+466458388
3148+465549174+464603946+463479787+462236806+461144235+460233522+459351649
3138+458530705+457794353+456899488+455752628+454670588+453853641+453070852
3128+452080401+450984332+450126731+449772939+449763231+449604824+449119111
3118+448667448+448491302+448269040+447602112+446555372+445495426+444640251
3108+443909575+443158446+442479454+442151718+442246413+442426842+442223605
3098+441475760+440471852+439610859+438965490+438304808+437501817+436721884
3088+436228603+436152113+436362381+436488414+436221893+435635167+434948037
3078+434033861+432657030+431211026+430521254+430742766+431091953+430879328
3068+430227641+429588375+429140960+428795236+428357529+427695634+426911168
3058+426178885+425439821+424563945+423627033+422649680+421432898+420077268
3048+419195538+419097810+419146210+418467360+417097168+415921718+415539800
3038+415596945+415378181+414719677+414000601+413463989+412960178+412274440
3028+411402347+410531289+409850976+409317398+408701582+407953523+407277886
3018+406714182+405959699+404796349+403443432+402377061+401923221+402018344
3008+402263485+402198380+401567038+400473362+399379756+398758979+398535219
2998+398065353+396934662+395510181+394467617+394051576+393976549+393799439
2988+393230596+392285118+391264826+390526797+390200668+390139775+390161548
2978+390224404+390255493+389957883+389034141+387593241+386154768+385171419
2968+384606609+384091020+383506186+383174025+383300129+383505722+383177701
2958+382127285+380749704+379619620+378951907+378458305+377825214+377144294
2948+376622780+376186073+375709854+375289780+374965436+374514987+373766785
2938+372856465+372065931+371579646+371370412+371212291+370879273+370375320
2928+369892962+369548772+369240597+368742819+367879613+366717227+365671272
2918+365228248+365372484+365513437+365186451+364501176+363754295+363078301
2908+362585913+362364329+362242508+361931870+361340576+360519631+359535318
2898+358549614+357744731+357112283+356551149+356097881+355798414+355494843
2888+354997851+354334849+353663066+353123242+352860646+352900837+352962979
2878+352707058+352163058+351625303+351212832+350804609+350305117+349756084
2868+349221292+348662336+347973456+347151477+346331246+345615275+345025409
2858+344619933+344445108+344370723+344121834+343481569+342480909+341480463
2848+340972334+341140056+341640904+341872517+341461331+340542016+339583902
2838+338938961+338590417+338284062+337782607+337055607+336301052+335688913
2828+335152693+334586777+334062622+333655505+333276442+332848766+332455998
2818+332203718+332064193+331897256+331567057+331035478+330365123+329677064
2808+329098084+328658558+328267003+327863312+327489711+327128174+326654846
2798+326074189+325584263+325269663+324919477+324293917+323446559+322663949
2788+322166314+321919067+321662718+321134851+320337606+319522979+318852303
2778+318233775+317565062+316935005+316484128+316177952+315797176+315157803
2768+314348387+313673642+313312748+313137780+312878897+312332147+311467978
2758+310487057+309681710+309164265+308832889+308543738+308156431+307534690
2748+306705358+305921463+305414512+305145028+304869262+304398932+303748744
2738+303056081+302398183+301748851+301105659+300543455+300101037+299722867
2728+299370932+299086296+298873047+298620267+298224144+297715408+297188540
2718+296680589+296191574+295721351+295180670+294392224+293353604+292376734
2708+291780889+291558252+291475515+291360012+291152117+290833376+290470857
2698+290214384+290099790+289924055+289458704+288747356+288042218+287482566
2688+286993479+286473714+285941724+285509979+285266194+285140643+284923699
2678+284483744+283905460+283379895+283038525+282869946+282733687+282521366
2668+282284809+282095331+281879316+281537089+281086979+280583437+280051268
2658+279559665+279206445+278987021+278784604+278520510+278240211+277993285
2648+277693426+277225880+276670975+276267981+276147480+276196273+276166327
2638+275870858+275340224+274804790+274451123+274240212+274053608+273913494
2628+273899342+273934607+273815944+273408060+272736349+271989860+271459744
2618+271306049+271360999+271324056+271117482+270863274+270589275+270208803
2608+269766582+269461030+269365122+269296252+269055019+268688592+268436419
2598+268464207+268686290+268832293+268692501+268288061+267797957+267421018
2588+267316687+267496884+267744238+267800527+267613797+267291987+266940658
2578+266640782+266437473+266304908+266224670+266219102+266225384+266095692
2568+265809058+265529365+265384897+265313439+265197400+265072938+265103652
2558+265352613+265668337+265820712+265710794+265469615+265351631+265443755
2548+265507807+265253903+264718112+264179126+263773651+263407402+262986168
2538+262534792+262107776+261732711+261453608+261334160+261379937+261476683
2528+261444916+261217550+260958364+260906270+261072243+261200578+261072993
2518+260739225+260405369+260211465+260186533+260315564+260529974+260679903
2508+260634591+260411883+260128746+259857120+259607857+259403102+259262078
2498+259154927+259050275+258975337+258970304+259007710+258991738+258834081
2488+258532134+258188872+257933433+257790089+257653991+257441384+257220621
2478+257133101+257206272+257296005+257208164+256873772+256415114+256021239
2468+255783700+255694521+255727144+255824159+255863386+255724128+255378207
2458+254918264+254520053+254316226+254264507+254201169+254027147+253766961
2448+253496620+253317904+253331521+253514592+253698055+253760857+253732999
2438+253630184+253378083+253014833+252745277+252649673+252557977+252354080
2428+252199099+252298648+252592136+252809151+252776795+252591761+252480451
2418+252521445+252563742+252449434+252246696+252169974+252299237+252495371
2408+252610660+252671107+252788216+252970948+253106868+253118272+253097855
2398+253252782+253696895+254375227+255268629+256617976+258910411+262747202
2388+268752287+277470629+289284039+304451936+323168937+345470967+371043177
2378+399109416+428539351+458148787+486902050+513785879+537686930+557707984
2368+573557461+585446809+593733209+598518602+599253562+595230505+586494870
2358+573421613+556046249+534223794+508391702+481884294+461033051+450983369
2348+453372068+466755142+486209636+504046620+515220569+520668999+523730944
2338+526326592+528276193+528780110+527909695+526317383+524186283+521100174
2328+516695342+510932525+503755970+495041251+485131558+474862398+464669122
2318+454292989+443651691+433277058+423508852+413817138+403413557+392250888
2308+380993703+370225873+360061294+350378895+341150407+332553547+324822034
2298+317934951+311538865+305315499+299313037+293749639+288642310+283857417
2288+279421782+275538447+272320058+269692090+267541518+265810039+264441203
2278+263335766+262385558+261523031+260718184+259940785+259172881+258447808
2268+257784235+257107598+256365554+255686829+255266041+255095588+254932095
2258+254553033+253988759+253450612+253044547+252655152+252147969+251569221
2248+251075208+250761179+250619156+250571862+250483272+250213127+249756647
2238+249306876+249090236+249142098+249301433+249402106+249406567+249375461
2228+249359880+249335056+249264758+249219695+249334146+249616497+249904577
2218+250054061+250092252+250155340+250349101+250700162+251167815+251659667
2208+252093608+252481611+252898865+253365323+253828621+254250283+254636109
2198+255008764+255413365+255892493+256387719+256753272+256970536+257250175
2188+257771903+258408653+258878769+259084986+259134421+259122892+259079579
2178+259058930+259148734+259370836+259608606+259691129+259587565+259424143
2168+259263274+259023737+258688042+258391681+258215481+258069067+257886371
2158+257778150+257863617+258068318+258220103+258269235+258343834+258659309
2148+259352846+260348009+261532365+263113379+265513839+268844572+272785534
2138+277032030+281593716+286627463+292175299+298126665+304383762+310994864
2128+318061270+325572841+333411077+341449017+349581330+357658853+365415209
2118+372554821+378926672+384448988+388970964+392466653+395151963+397169131
2108+398431815+398891044+398676742+397968874+396870521+395350525+393333642
2098+390876091+388126141+385192371+382163228+379042354+375591781+371436766
2088+366308611+360148136+353122599+345509587+337496883+329242499+321052256
2078+313273628+306110530+299641237+293907831+288994817+285021659+281940529
2068+279466631+277351378+275529827+273969318+272637693+271552154+270667961
2058+269888135+269225865+268731281+268345152+268012759+267797064+267791764
2048+268037762+268519442+269249315+270397495+272168969+274510695+277216761
2038+280332353+284162594+288886827+294319392+299986890+305390383+310249197
2028+314542059+318439618+322187337+325820195+329029982+331518407+333251564
2018+334174484+334069546+332899308+330930790+328422697+325456267+322048598
2008+318244947+314125305+309811169+305455023+301201817+297157879+293379839
1998+289922627+286931016+284574191+282756049+281022963+278994195+276781624
1988+274766830+273182675+272074739+271382450+270916547+270461244+269959414
1978+269498900+269173717+269012633+268969480+268998285+269155478+269489085
1968+269818569+269839913+269510518+269120231+268920973+268878462+268858867
1958+268898040+269122140+269479126+269741507+269795350+269797778+269997713
1948+270518620+271399958+272636854+273898503+274453800+273920936+272876784
1938+272194418+272149498+272461386+272824065+273156797+273512712+273934874
1928+274491332+275395852+276752749+278169110+279189972+280072274+281253774
1918+282275796+282346272+281790903+281730385+282658481+284116193+285372952
1908+286099613+286510674+286989053+287645006+288301226+288824096+289350928
1898+290157935+291255145+292243776+292893037+293574938+294538263+295170105
1888+294770073+293653445+292647753+292091527+291842156+291712215+291597068
1878+291449156+291280059+291203408+291590073+292984625+295393295+297548738
1868+297640684+295496288+292830109+291077339+290364563+290181653+290122848
1858+290023925+289886398+289790901+289797968+290011753+290624838+291806516
1848+293740555+296473283+299073910+299620071+297646984+295160361+293913149
1838+293888360+294221236+294587894+295637080+297996296+300928121+302637006
1828+302598493+302035789+301568208+300651570+299272811+298321140+298299438
1818+298865391+299537833+300319587+301499141+303003469+304200049+304552163
1808+304296421+304189983+304885431+306607487+308941004+310873971+311616034
1798+311584624+312144008+314338929+317759519+320170562+319539755+317029735
1788+315409619+315772155+317311391+318997861+320590029+321982458+322845449
1778+323495566+325157550+328854906+334056161+338156494+338756533+336637390
1768+333972425+332092569+331963431+333995947+336927576+338723802+339266625
1758+339836432+340685717+341720429+343981738+348340347+353492131+356680394
1748+357016018+356145460+355775178+356578954+358482618+360726902+362347732
1738+363850524+367179205+372686422+376764411+375878433+372275307+369157610
1728+367265047+366701772+367471461+369038609+371336218+375539347+382490749
1718+390268592+394290186+392781789+388952761+386064428+385415596+387241662
1708+391099352+395624470+399383254+402983774+408398368+415348913+420244027
1698+421380857+420405004+417694173+414024158+412175463+413515744+417094063
1688+422088654+429243828+438063557+443356615+441508205+437059792+434833283
1678+436117990+440091683+444603023+448105994+451598363+456104421+459637838
1668+459830831+458777809+460186264+464670299+469658252+472768168+474963552
1658+478942671+486655588+498641307+511554123+516893654+515229635+515623724
1648+520136670+524238787+523604126+520574733+519361877+521392323+526828118
1638+535389713+544781355+550056638+549774625+548982628+551613613+557700952
1628+565377748+573291689+581598256+590220780+597827688+604169092+611235997
1618+620451422+629935544+636276163+639893459+643478274+647736050+651659951
1608+654464369+656427140+658236217+660104330+661748360+663164882+665041490
1598+668148801+672520652+677282773+681335241+684403718+687172443+690329510
1588+693984712+697862854+701413547+703940486+705370785+706893816+710249338
1578+716086967+722533667+726379685+728195400+731783428+738855187+747639365
1568+755316197+762039804+770008106+780352222+793632464+811524130+833759093
1558+850805543+855905607+856490191+857546497+858562398+858496794+857553350
1548+856870324+857514016+859377703+861750947+864354198+865241246+860224775
1538+851211803+844671374+841944910+840006338+836027184+831098304+828196015
1528+828125557+829467623+831191535+833803709+836812935+837808777+836262331
1518+834085971+831946376+829759308+828625762+829855537+833818129+840013120
1508+845956045+845842612+837902007+829620318+825968400+826538849+829103980
1498+830727880+829291584+826220537+825323637+828320942+833065216+834885357
1488+831448169+825769018+821711124+820334507+820779245+822002667+823628280
1478+825795930+828660384+831990635+834464034+833903722+830498943+827712657
1468+827988138+830699753+833125538+833052366+831741068+832363844+836166745
1458+840538596+840415954+835570382+830715102+827855645+826472032+825928995
1448+825792647+825747530+825804711+826044355+826449259+827354940+829250394
1438+831506920+831955085+829609396+826890999+826246022+827249145+827498284
1428+825747816+823486934+822556269+823193179+824842778+826936472+827782973
1418+825087063+819692671+815012716+812822151+812352285+811820527+810535356
1408+809487831+809394386+809262463+808134557+807028281+807357301+808934942
1398+810747231+812385622+813601191+813801145+813198500+812933157+813187864
1388+812471215+809817208+807238014+807813889+812095650+818000526+823364935
1378+827820308+832163819+836581143+840230849+842669340+844541593+846268218
1368+847629487+848970339+851080452+853563060+854816821+854107239+852508967
1358+851441097+851314100+851490425+851183463+850394785+849705049+849448985
1348+849626524+850285921+851503988+853174218+854936465+856268822+856928576
1338+857323200+858064763+859294681+860775308+862359374+864106201+866051626
1328+868082571+870215100+872788011+875945793+879067381+881363955+883112996
1318+885563836+889338682+893626369+897348888+900440066+903354348+905995648
1308+908013101+909707460+911864259+914864776+918358288+921524136+923429655
1298+923619258+922651400+921646992+921150642+920732317+919801580+918234647
1288+916105259+913708815+911768601+910671177+909743367+908001394+905342747
1278+902622779+900828551+900156590+899796231+899087863+898753560+900015816
1268+902758556+905563974+907313085+908013744+908244393+908421789+908772297
1258+909578821+910965289+912650153+914246212+915513465+916268092+916637517
1248+917221458+918221868+918833579+918296324+916895579+915455713+914678029
1238+914883122+915558082+915524387+914203380+912285939+910806312+910086450
1228+909763783+909404210+908786859+907824570+906707514+906072817+906405549
1218+907310658+907958134+908038087+907919228+908306500+909761785+911909376
1208+913559974+914476148+916153873+919724268+924073490+927095494+928097974
1198+928251669+929241729+931775949+934939584+937267711+938601211+939974829
1188+941864073+944067345+946940294+950860626+954875759+957627422+959008180
1178+959612966+959863604+960524571+962340001+964861157+967063145+968815255
1168+970544307+972034785+972532492+971663861+970100997+969535116+971283157
1158+974792517+978449503+981613781+984519139+986555796+986729265+985719146
1148+985530543+987039082+989332659+991447126+993548887+996115945+998698565
1138+1000224880+1000373007+999933766+999694907+999743521+1000291840+1001737345
1128+1003354321+1004084604+1004461454+1005904960+1008412696+1010293944
1120+1010607830+1010777944+1012897551+1016946093+1020920964+1023763217
1111+1026279448+1028702162+1030359828+1031905702+1034263455+1035864654
1103+1034510952+1031378513+1029812079+1031016512+1033503403+1035689257
1094+1037271967+1038570416+1039769066+1040755913+1041474989+1042297790
1085+1043674621+1045317367+1046321275+1046634090+1047577891+1049968053
1077+1052499489+1053220279+1052338299+1052405045+1055194044+1059472735
1068+1062290860+1061864254+1058962536+1055885636+1055160349+1058311135
1060+1064490135+1070580901+1073741823+1073302653+1069764525+1064591718
1051+1060654110+1059932893+1061527595+1063478017+1065173089+1067133076
1043+1069426724+1070747731+1069596695+1066710611+1064709006+1064659535
1034+1065367332+1066225968+1067940243+1070270298+1071558753+1070430061
1025+1066905639+1062893005+1061207213+1062377023+1063629071+1062554633
1017+1059987432+1058311848+1058975886+1061673081+1064226219+1064082161
1008+1061180372+1058192562+1057446644+1058680988+1059640280+1058492528
1000+1055890276+1054384164+1055525277+1057847551+1058429565+1056504057
991+1054101831+1052935804+1052375919+1050681276+1047291631+1043560688
983+1041107563+1040055683+1039297487+1038430570+1038383740+1039328112
974+1039631076+1038058075+1035309410+1032157768+1028358865+1024285480
965+1021525964+1020734788+1020494501+1019245737+1016478797+1012150992
957+1007095187+1003333476+1001938869+1001360996+999597964+996966444+994780304
947+992651345+989203663+984826530+981699944+980837381+980656845+979236682
937+976930613+975492390+975393519+975175505+973192674+969763910+967104763
927+966732982+967769728+968397073+968126232+967771156+968067124+969079599
917+970475348+972062269+973868204+975227617+974535097+971093055+966305235
907+962191588+959761164+958935865+959131107+960035788+961853645+964074550
897+964556480+961633203+957103802+954976556+956828964+959890945+960564762
887+958536743+955652087+953054475+951434716+951478333+952848097+954603348
877+956269437+956983231+955588838+953256214+952964243+955382531+957775264
867+957511134+955021958+952523003+951390242+951400236+951701130+951791006
857+951534871+950741482+949490933+948189772+947304936+947672505+949741143
847+952866729+955669291+956781635+955996741+954525751+953701665+953920750
837+954788167+955341341+954562158+952708465+951101127+950310307+949938741
827+949692529+949714088+950815652+953971435+958024402+959652728+957621711
817+954412675+952656210+952774498+953959085+955176938+955621105+955430003
807+954956354+953982357+952539493+951683926+952930977+956585822+960512079
797+961402696+958439301+954763325+954132340+957147634+961398128+964551269
787+966459215+968231813+970179094+971149379+969741352+966482987+963556641
777+962327794+963050868+965951657+970169242+972804332+971941055+969648906
767+969313033+971586692+974332288+974857193+972350028+968302343+964299560
757+960624798+957208812+954936223+954903242+956946252+959598760+961529622
747+963236115+966152253+969828300+972067980+972043637+971095553+970812934
737+971948408+974257332+976602735+977749345+976996503+974110918+969613998
727+965009784+961759058+960517433+961247431+962949713+964254658+964791770
717+964753578+964170065+963892300+965508347+968689258+970594849+969408191
707+966342998+963457985+962215646+963755880+967559781+970193585+967767658
697+960470318+952731594+948549488+948547275+950492629+951534443+949968509
687+945208958+937838018+930447518+925831668+924082342+923865256+925678686
677+930495275+935740826+936887578+932727531+925688324+918243356+911825497
667+908288011+907613765+906693522+903193086+898250143+895540169+896829480
657+899660954+900764446+899696290+898723864+900699056+906408761+912763586
647+914326950+909403353+903085007+901310125+903600346+904608680+901844881
637+898145990+896844472+897707677+897504154+893498801+887161894+882978504
627+882891269+884628102+885710607+885730238+884351765+881341397+878709378
617+878525200+878503570+874208674+866067973+860051449+859754196+863197451
607+867140484+871204159+877967958+889049496+901209327+906808383
##END=
