##TITLE=<SNM>
##JCAMP-DX=4.24
##DATA TYPE=INFRARED SPECTRUM
##DATE=3/5/2025
##SAMPLING PROCEDURE=Instrument type and / or accessory
##ORIGIN=Admin
##XUNITS=1/CM
##YUNITS=ABSORBANCE
##RESOLUTION=4
##FIRSTX=4497.3318
##LASTX=599.83466
##DELTAX=-1.4281778
##MAXY=1.7064592
##MINY=0.18119262
##XFACTOR=1
##YFACTOR=1.5892639e-09
##NPOINTS=2730
##FIRSTY=0.20126137
##XYDATA=(X++(Y..Y))
4497+126638103+127232222+127714625+127981976+128044402+127692009+126696207
4487+125421043+124698217+124982633+125974057+127007307+127520351+127330812
4477+126778380+126494086+126816747+127530459+128241001+128731664+128867721
4467+128565781+128050412+127712618+127559056+127299815+127054441+127356372
4457+128305668+129279137+129675598+129457321+128820737+127929948+127109545
4447+126659828+126335516+125566242+124305826+123208105+122884084+123241831
4437+123604988+123422087+122816801+122366643+122403145+122736523+123009556
4427+123075320+123017985+122943904+122804471+122367206+121338465+119647431
4417+117829792+116946569+117667322+119485140+121144763+121709554+121088413
4407+119910695+119058310+119004069+119526104+120087754+120256271+119869402
4397+119206847+118852654+119104112+119696272+120161188+120239760+120005009
4387+119751553+119625022+119305699+118371057+117032042+116122425+116202647
4377+116964018+117595051+117430143+116296343+114769935+114010402+114686750
4367+116117240+116995953+116839671+116213392+115711131+115308369+114805086
4357+114485941+114853861+115811296+116672148+117004804+116980979+116892328
4347+116794816+116702780+116810849+117306612+118031566+118552195+118582686
4337+118115023+117262273+116325606+115785934+115817288+116031607+116007304
4327+115842228+115962805+116528477+117190011+117474098+117253543+116690122
4317+116027322+115633525+115745307+116040824+116081198+116134351+116798838
4307+117874188+118383471+117846162+117023950+117125522+118393410+119750644
4297+120018530+119263966+118601542+118869484+119914286+121091282+121976821
4287+122387290+122119573+121105543+119765139+118914686+119119002+120049743
4277+120687339+120440587+119781323+119468244+119656170+120079793+120560199
4267+121040445+121556732+122249629+123028711+123416152+123118488+122482795
4257+122083203+122157565+122552975+122922498+123030727+123049639+123281548
4247+123563161+123480304+123172748+123215062+123732072+124380001+125058092
4237+125820813+126266030+125829824+124642054+123476769+122879743+122774299
4227+122939863+123478438+124494436+125576143+126104516+125974216+125579940
4217+125217159+124943516+124844682+124990837+125239258+125357229+125242840
4207+125003786+124977739+125486901+126331166+126824829+126626992+126201353
4197+126194996+126676705+127192242+127328393+127110323+126985658+127395292
4187+128261001+128971393+129001556+128519219+128172959+128252065+128409941
4177+128398970+128578561+129254487+130029397+130342644+130258128+130217313
4167+130316822+130294095+130065607+129837589+129676038+129419338+129139526
4157+129164326+129496401+129811448+130075827+130488331+130890230+130960823
4147+130847634+130954775+131331752+131727275+131934432+131803775+131262753
4137+130534677+130117514+130428051+131446066+132634707+133338846+133438261
4127+133429823+133699987+133982199+133763144+133075086+132603982+132910291
4117+133742179+134375322+134476650+134293778+134178704+134318756+134691851
4107+135002164+135019350+135087731+135758715+136892384+137662015+137431400
4097+136299840+134941753+134102514+134092247+134648796+135266618+135630150
4087+135809421+136079220+136471443+136672214+136554928+136502881+136903561
4077+137602880+138075503+137939446+137285563+136626777+136406963+136549527
4067+136685031+136688763+136704393+136827126+137064980+137434391+137873860
4057+138221293+138360088+138233257+137819347+137326621+137183373+137559712
4047+138156175+138640416+138969143+139221417+139494873+139940989+140545028
4037+140983288+141002200+140761523+140583471+140568131+140607942+140632273
4027+140702454+140871881+141039910+141045077+140865721+140629001+140493113
4017+140570447+140831301+141061991+141065348+140954484+141098080+141650550
4007+142243741+142362490+142024236+141805866+142110478+142674744+142984991
3997+142950862+142861029+142850321+142840214+142944101+143450122+144396597
3987+145541283+146636144+147370933+147299637+146283217+144888516+144018541
3977+144166412+145116647+146251957+147047691+147289830+146996300+146360232
3967+145772292+145676402+146203838+146939106+147243043+146944985+146510016
3957+146371202+146437248+146519064+146947666+148278984+150302074+151813030
3947+151921662+151214204+150828197+150884829+150653276+149917174+149253887
3937+149180781+149852713+151247780+152931284+153852368+153302439+152079068
3927+151669218+152351117+152904862+152500066+152051793+152861488+154732319
3917+156010577+155348744+153148061+150865796+149451874+149038067+149727485
3907+152004462+156062671+160953950+164920864+166776215+166211077+163261418
3897+158977085+155686941+155220938+157073588+158535956+157981808+157543886
3887+159618413+163032453+164825096+164942729+165226582+165082752+163204618
3878+161282059+161600754+163897008+166778859+169617091+171296189+170243792
3868+167724517+166540442+166775877+166198907+164047158+162124168+162282887
3858+165371650+171787499+180290608+184875634+180351965+171747781+165181071
3848+162357465+162780029+165147617+168210126+171687830+175941298+180137101
3838+181841046+180134889+177084249+174570318+172733889+171369154+170770319
3828+170961817+171779510+174150924+179209839+185016107+186977708+184977440
3818+183055688+181668600+178441220+173961601+171167623+171673597+175233174
3808+179801136+182897400+184992123+188019585+190687509+190092481+187565986
3798+186028149+184965195+182860889+180592051+179859605+180660234+181987070
3788+183584052+185874980+188790829+191889212+195234093+198791420+201575964
3778+202954219+204005003+206406102+211167999+218175051+225653160+231325500
3768+235251665+239186400+243794116+249184384+256305450+265531346+275139340
3758+283252176+290992967+301233100+315272894+330942262+343237757+350643670
3748+357900352+368725293+381222075+389732010+393772263+398826828+408439359
3738+422532447+438735730+453812001+465090784+471560358+474567849+476864291
3728+480360203+485015419+489510041+492732958+494490384+495256827+496032834
3718+498070044+502714759+511535081+524747525+538212037+545774944+547963635
3708+550286030+555285013+562537420+570909150+578438040+583132149+585422852
3698+587974662+593139640+600925324+609145349+615901158+620825206+623142838
3688+621523991+617209504+613483126+612610058+614608751+618113027+622605435
3678+628457197+633487946+633760004+630816871+628861871+627172328+623258690
3668+619195071+618179972+620054375+623329011+627833346+634507170+643264935
3658+651587647+655939601+656215859+656771377+661484500+669919200+676496825
3648+676318603+671868162+667783016+665797449+665165872+664560624+663899193
3638+664520194+667552513+672535218+678154152+683814790+689221297+693256788
3628+694928966+694738368+693791453+692514422+691629840+692422911+694761546
3618+696876053+698218716+700163177+703765640+708303692+712133058+714395408
3608+715499392+716665034+719049949+722408632+724649530+723920966+721429538
3598+719943982+719647996+718369391+715696291+713668044+713385260+714444539
3588+716634505+719529032+721590283+721820711+721452641+722055039+723053936
3578+722968650+722184280+722357626+724184248+727320529+730896814+733270253
3568+733024073+731163847+730180477+730297791+729439612+726248274+722096894
3558+720334405+723279638+729604332+734474749+733631347+728652541+725325962
3548+726597216+730503016+733898754+735443117+735029367+733703130+733414045
3538+734242221+733583416+730088741+726251949+725368567+727974159+731888285
3528+734862621+736582505+737412931+736534125+733763738+731629953+732154792
3518+733216996+731428779+727229243+723658509+721801883+720632266+720013741
3508+721169331+724086811+726603142+727146133+726957410+727980760+730003531
3498+731463133+731917463+732664254+734303803+734836893+732321312+728297223
3488+726218345+727981510+733429497+740534286+744824808+742326104+734104654
3478+725211498+720428166+721677593+727147033+733119709+737437759+739900384
3468+740394619+739192223+737701491+736870990+736146627+734547508+731731141
3458+728427889+726446898+726850522+727916627+727515478+727200590+730196679
3448+736090821+740804094+741945357+740938960+739602823+738031157+735940052
3438+733965212+732828974+732193122+730998601+729006209+727550582+727877247
3428+728867742+728018189+725116161+723149197+724758143+729093970+732873304
3418+734060324+733610944+733584991+734322256+734077351+731992097+730281964
3408+731372747+733896954+734229994+732248778+732046554+735809311+740395069
3398+741556960+739532839+737434159+736306322+734868997+732619849+730627906
3388+729529098+729057440+729389731+731036181+733338136+734588463+733855549
3378+731747943+729736873+729343675+730976099+733377741+734881974+734617566
3368+732475981+729586480+728431714+730566174+734690550+738271636+740300182
3358+741014719+740244976+738013679+735837365+735830914+738408302+741546234
3348+742843742+742083374+741034372+740979540+741597315+742239618+742880796
3338+743239415+742550456+740997317+739845552+739390697+738261660+735681421
3328+733054601+732349666+733752861+735460144+735825663+735614813+737127972
3318+740948711+745172400+747865377+748287003+746087211+741840345+738028831
3308+737175678+739013476+740606520+739445754+735994584+732770617+731584498
3298+732192972+733225697+734007442+734937105+736115124+736716772+736284644
3288+735521876+735433591+736616034+738971921+741163012+741575037+740561814
3278+739904134+740049727+740309108+740872427+741967485+742483023+741514130
3268+739594497+737330721+734815891+733012821+733648599+737124971+741571362
3258+744275141+744096994+742419940+741207268+740702231+740039526+738914089
3248+737491166+735811187+734364261+734264799+735649842+737095343+737483965
3238+737179128+736989355+737107719+737268689+737248361+737147324+737211457
3228+737300868+736983279+736185707+735255369+734378437+733454850+732541389
3218+731898111+731660857+731801799+732332414+733268452+734470399+735735202
3208+736735524+736611159+734789862+732347190+730648084+729350051+727701126
3198+726675001+727716427+730319769+732543264+733291630+733080555+732588420
3188+731462008+729372479+727212216+725821922+724409050+721722824+718326786
3178+716433031+717456005+720200289+721782231+720775834+718891229+718539962
3168+719535858+719538258+717427952+715049937+714918971+716813252+718137538
3158+717605723+716513965+716080188+715631108+713836965+710731437+707965176
3148+707176605+708361224+709805225+709766070+708354548+707436212+708356574
3138+709992147+709955693+707673316+704855973+703220174+703180719+704019171
3128+704321983+703017725+700497043+698296726+697870824+699408436+701173625
3118+700760850+697786438+694493688+693335472+694828604+697586614+699694520
3108+700124098+698974733+696740736+694058485+691922676+691247443+691986808
3098+693082092+693538222+693289942+692626711+691441942+689694530+687974270
3088+687097939+687277286+687799949+687543043+686216357+684949828+684931451
3078+685869440+686695890+687050983+686958872+685923221+683600939+680810825
3068+678689117+677091497+674969864+672372449+670750001+670944050+672142546
3058+673150968+673481908+672876660+671167577+669069197+667813994+667713857
3048+668091678+668382789+668318881+667470303+665918289+664859310+665067010
3038+665510539+664738470+662854991+661074125+660248350+660571339+661646069
3028+662235416+660896278+657639382+654294801+652510409+652122762+652184719
3018+652572516+653426495+653880975+652960988+651327890+650523717+650631805
3008+650023706+647609838+644375520+642117970+641468691+641749075+642109269
2998+642082641+641547976+640895922+640548629+640015540+638523458+636475109
2988+634954974+634181330+633671868+633433339+633837488+634663489+635057362
2978+634228661+632085200+629535940+627968212+627997916+628897763+629493710
2968+629285710+628476924+627341399+625869945+623926421+621633205+619561153
2958+618444042+618531953+619193946+619486556+619086682+618351818+617633718
2948+616927808+616056727+614912087+613448885+611617012+609478839+607403712
2938+606017581+605586991+605483891+604845113+603719827+602893864+602715642
2928+602769799+602342097+600732026+597908533+595154160+593942425+593983043
2918+593483332+591518431+589080784+587683814+587826369+588756295+589287172
2908+588941305+588236444+587767787+587434634+586837262+585946603+584914478
2898+583661750+582118550+580508405+579072955+577800463+576693216+575911321
2888+575302547+574317114+572825708+571468305+570795849+570582523+570330417
2878+570002327+569818517+569555573+568558964+566644244+564556553+563133930
2868+562332420+561490255+560282083+559015741+558199342+557976828+557886029
2858+557313559+556227052+555134507+554428221+554141799+554057639+553771666
2848+552918325+551557172+550186493+549213325+548498863+547591177+546389681
2838+545234916+544270599+543270952+542166180+541131129+540097241+538689995
2828+536782888+534749804+533195015+532592879+532990052+533862783+534306687
2818+533601677+531817097+529797814+528367615+527611786+527005300+526039370
2808+524626310+523085173+521831883+521015184+520461054+519923163+519285998
2798+518553309+517750374+516891782+516062182+515423329+514966298+514333184
2788+513116761+511348571+509582781+508478122+508234230+508399775+508284898
2778+507504054+506086306+504307127+502577455+501234416+500213917+499071641
2768+497469746+495587580+494017189+493257121+493247333+493361497+492907916
2758+491709271+490223828+489062686+488353325+487661141+486605988+485312418
2748+484057215+482821778+481540622+480433112+479649379+478865347+477635234
2738+475943741+474111944+472377583+470846234+469686743+469053929+468793835
2728+468439341+467605540+466336986+465046454+464145182+463674237+463276801
2718+462618896+461729476+460749144+459622732+458312060+456960096+455628984
2708+454300872+453155446+452318606+451506708+450471469+449489562+448933332
2698+448695403+448323058+447414885+445855146+443965253+442318878+441169738
2688+440243188+439246242+438306978+437677576+437260676+436746263+436083858
2678+435479172+434953245+434286977+433468402+432806634+432435864+432040041
2668+431298801+430324995+429393532+428527551+427659733+426915793+426401493
2658+425949488+425371768+424698486+423920529+422830871+421390846+419951496
2648+418843386+417991320+417180847+416471411+416025406+415680402+415061502
2638+414107611+413166396+412515767+412031696+411422397+410642039+409933278
2628+409498563+409258309+408947283+408372376+407569703+406764780+406152293
2618+405664959+405021831+404033548+402813262+401700465+400986940+400651312
2608+400403369+400077942+399832288+399777643+399624700+398982284+397890001
2598+396812158+396170342+395994558+395953228+395688259+395169908+394660784
2588+394302915+393913130+393290217+392558578+392052604+391938403+392060218
2578+392124313+391942116+391496937+390889850+390284527+389802181+389385280
2568+388865804+388240866+387755932+387620690+387736654+387775884+387490362
2558+386942383+386424782+386126959+385972402+385828910+385670116+385459002
2548+385151315+384860017+384710824+384608399+384462319+384423239+384583759
2538+384748479+384725976+384512350+384107863+383518442+382951560+382693604
2528+382785715+383002304+383125881+383121981+383033320+382840959+382538185
2518+382215271+381951989+381750514+381619698+381550802+381431500+381162480
2508+380803561+380490361+380281460+380146257+380045819+379996088+379994326
2498+379902402+379598652+379244609+379118257+379171476+379039497+378528647
2488+377881169+377463518+377312787+377159656+376854406+376493125+376121717
2478+375677101+375225283+374907545+374711321+374567528+374485018+374390582
2468+374134013+373808549+373729114+373976794+374271692+374361666+374255978
2458+374043140+373759905+373489872+373364832+373398586+373458256+373442879
2448+373394761+373378071+373308500+373023428+372529868+372025019+371622783
2438+371228872+370728862+370159580+369677984+369442455+369484235+369651918
2428+369741141+369662344+369434917+369124191+368849921+368724055+368692626
2418+368546396+368188078+367838723+367883241+368462836+369229204+369587935
2408+369286624+368684150+368298641+368242947+368331533+368501991+368744120
2398+368824192+368526744+368052499+367833397+368021595+368356361+368481401
2388+368281839+367869289+367279230+366316488+364742571+362501149+359755552
2378+356841223+354123230+351671069+349067503+345806219+341993468+338418871
2368+335785713+334117810+333087710+332619578+332898650+334048502+336123067
2358+339257585+343547694+348945201+355437202+362795147+369939316+375287691
2348+377819399+377600560+375641846+373135042+370523224+367551963+364002981
2338+360050376+356132237+352564841+349302019+346206880+343455958+341471292
2328+340477796+340252244+340322865+340373758+340432041+340727426+341447476
2318+342558399+343821403+345033100+346164350+347211815+348121713+348947113
2308+349846398+350842331+351755530+352407246+352762190+352877704+352820697
2298+352680917+352624960+352836711+353327346+353850647+354112879+354100615
2288+354132119+354483086+354991723+355209475+354980584+354645256+354549169
2278+354582773+354402189+353945308+353490753+353266551+353205681+353098868
2268+352858764+352593644+352460540+352464516+352445539+352302271+352155853
2258+352207722+352490319+352828123+353009345+352958564+352775916+352638987
2248+352648476+352733686+352716134+352537125+352400121+352548076+352913821
2238+353179878+353200730+353189479+353452611+354044058+354695212+355077159
2228+355158881+355239178+355577807+356092407+356455976+356415471+356019911
2218+355627613+355654616+356196595+356899918+357315956+357382376+357433795
2208+357777862+358448068+359303285+360104682+360550837+360541423+360399993
2198+360591304+361230157+362018653+362638640+363097846+363648526+364401205
2188+365138619+365575848+365688249+365707114+365895949+366360780+366980393
2178+367523122+367906568+368291365+368867660+369634328+370452153+371252875
2168+372126394+373205250+374511834+375950396+377445328+379062900+380986846
2158+383368273+386207143+389395594+392831161+396390682+399834125+402916362
2148+405593701+407978465+410183771+412376100+414800357+417528927+420335768
2138+422985390+425500596+428065008+430829619+433852336+437087592+440413759
2128+443721286+446979420+450205187+453297438+455881090+457495698+458029201
2118+457764869+456955558+455592417+453627066+451185481+448465913+445549746
2108+442442418+439278984+436316461+433647861+431078011+428363619+425429937
2098+422292643+418948137+415453574+411983390+408663861+405420392+402120816
2088+398818052+395717700+392957927+390535807+388403523+386561224+385065542
2078+383928891+383002791+382062665+381054767+380140668+379454560+378940560
2068+378484692+378086619+377795996+377555142+377229602+376759370+376208465
2058+375706467+375361462+375160175+374979066+374753851+374569291+374535012
2048+374660802+374876866+375124283+375411531+375775175+376225192+376825378
2038+377726875+378953387+380297437+381626186+383120781+384989820+387067686
2028+388873380+390006580+390369212+390056199+389222210+388097786+386905891
2018+385629311+384066458+382238898+380507613+379142935+378002158+376784498
2008+375462912+374282494+373383847+372615228+371753899+370756352+369719014
1998+368777462+368167525+368132646+368509904+368631119+368005505+366912398
1988+365928090+365202865+364559999+363947325+363459428+363131713+362906648
1978+362694747+362436153+362143355+361848982+361600439+361576924+361940906
1968+362416726+362388785+361683849+360838047+360357688+360192856+360094781
1958+360012796+359915959+359633100+359109124+358560132+358248357+358271047
1948+358619277+359320012+360338823+361245384+361304641+360323484+359010562
1938+358090687+357638945+357433795+357355223+357317306+357247022+357177526
1928+357228345+357610067+358458045+359465642+360166790+360686941+361365323
1918+361745694+361086739+359735863+358795473+358776308+359294471+359651477
1908+359451015+358840591+358217415+357772311+357458811+357262924+357309392
1898+357716692+358330642+358727552+358815426+359115575+359856552+360307845
1888+359784168+358711725+357886475+357501116+357331445+357161550+356890317
1878+356632135+356627785+356982803+357869411+359792007+362881145+365789586
1868+366307524+364016033+360895466+358802186+358009865+357900127+357996701
1858+358172072+358353894+358429204+358412777+358572096+359254717+360669314
1848+363008473+366283446+369299600+369685710+366929087+363585631+361890612
1838+361826854+362192861+362430753+363345039+365855369+369208989+371252050
1828+371223059+370427137+369545743+368050248+366128140+364883363+364760948
1818+365196414+365634767+366278758+367675428+369723439+371408669+371868438
1808+371456450+371277516+372180851+374386831+377319800+379619205+380161671
1798+379484901+379543408+381938599+386321157+389838935+389631385+386791915
1788+384695372+384952091+386945983+389528510+392135114+394340682+395670744
1778+396566278+398559195+402903236+409013554+413936927+414968940+412981311
1768+410377932+408627069+408860573+411637823+415572201+418272605+419526682
1758+420839717+422481029+424122941+426785315+431597637+437401918+441176602
1748+441629432+440435174+439745465+440655026+443146979+446117715+448166964
1738+449823991+453584085+460287050+466110946+466615007+463706566+460957332
1728+459443048+459505268+461297798+464307502+468470245+474981187+484514021
1718+494578557+499959786+498986730+495384868+492629107+492185204+494706673
1708+500181513+507167300+513473092+519117190+526361309+535416635+542453540
1698+545155594+545155931+543124159+540228545+539707569+543007145+548762220
1688+555854070+565479090+577664546+586368680+586697932+583912656+583886253
1678+588013067+595220468+603051945+609622407+615955877+623343863+629518088
1668+631489478+631620669+634382430+640476696+646735682+650401977+652884629
1658+657609004+667024898+681854951+698163584+705642819+704613319+705633143
1648+710982868+715398430+714323324+710903658+709790073+712158861+718011447
1638+727164735+736643938+739424826+733678902+726906029+724314989+725348089
1628+727272598+728646616+729651213+729426860+726633971+722974351+721525025
1618+722182705+721148479+715935870+709193225+703837574+700084193+696956988
1608+693761974+690634469+688201698+686766849+685853088+684723075+683337957
1598+682302831+681810171+681276706+680169947+678604056+676955581+675422244
1588+674064429+672962770+672146446+671407456+670671317+670841887+673456405
1578+678666839+683375986+683651270+681407372+681740413+685818958+690454297
1568+692561078+693474464+695991170+701295890+710517286+725685180+745131670
1558+757177309+756764159+754108011+755264502+760474860+768359519+776974916
1548+785045148+793479098+803968148+816431964+829001542+837947655+837789385
1538+830662244+825697540+826182099+828787916+829114431+827938363+829271950
1528+834354943+841344518+848424703+855397476+861603281+865209869+866465147
1518+867355130+867828063+866986085+866219492+868179855+874170909+883717244
1508+894176741+898926469+893860053+886001347+882009737+882536976+885746916
1498+888831066+889154730+887189717+886593694+889760129+895280350+898897890
1488+897861864+894256176+891657035+891356848+892397450+893605397+895301203
1478+898497116+903094050+907995896+911805759+912455563+909151937+904969878
1468+903730428+906291689+910058347+911628963+911440240+913062237+918443166
1458+924988237+926417311+921739292+916846822+914626627+913998576+913189228
1448+911361555+908950462+907072984+906535619+907527689+910033819+913845032
1438+917684974+919220411+918076597+917032995+917742356+918852941+918288123
1428+916092756+914308664+914335667+915728211+917373311+918901472+920132597
1418+920211656+918846190+916983489+915379719+914039381+912768727+911733001
1408+911450891+911813860+911401160+909302030+907285260+907862380+911033691
1398+914412776+915962465+915041278+911588083+906670035+902343809+899424979
1388+896686246+892984771+889555954+888633792+890676891+894379116+898421807
1378+902376588+906310291+910007041+912816882+914597674+916107157+917755258
1368+919113598+920258537+922072333+924349910+925303576+924226595+922876880
1358+923032524+924734931+927011758+928980298+930407871+931782038+933613236
1348+935537370+936768569+937416498+938425671+940319501+942608630+944251704
1338+944669805+944532238+945087681+946583063+947951154+948202585+947474021
1328+946477750+945701406+945509157+946442271+948900995+952426873+955421387
1318+955998132+953691452+950208854+948080620+948620836+951187198+954210215
1308+956486592+957165199+955726899+953186791+951857329+952755788+954386712
1298+954783210+953686126+952013648+950399152+948911571+947392786+945716332
1288+943926465+942033235+939810864+937109636+934142875+931301455+928830504
1278+926631912+924348709+921817977+919379055+917532556+916451149+915870429
1268+915176819+913693889+911188509+908055078+905004908+902604241+900780544
1258+898689365+895535306+891685088+888445144+886602695+885820575+885579946
1248+885768444+886071106+886008773+885922437+886582218+887680126+888098452
1238+887775163+887908304+889191860+890963875+892060884+891980024+891405004
1228+891743670+893873104+897208535+900142891+901642549+902293028+903466246
1218+905657862+907976019+909225446+909348011+909570338+911026415+913613029
1208+916447699+919006560+921248808+922975142+923813744+923804668+923596143
1198+923971189+925308526+927561350+930522260+933873743+937157792+939845444
1188+941365878+941513346+941236563+942352098+945903405+951215251+956645386
1178+960729633+962826213+963504820+964151549+965553994+967155514+968159811
1168+969028717+971139848+974801644+978366302+980075535+980190899+980258782
1158+981032951+982235872+983665546+985477617+987568346+989274878+990043872
1148+990416292+991673670+994196527+996797243+998247094+998762407+999187934
1138+999738200+1000449212+1001737344+1003459178+1004705304+1005481124
1130+1006910422+1008896214+1009657106+1008592952+1007645287+1008756322
1121+1011819994+1015845959+1020169110+1023947769+1026448198+1028317275
1113+1030965547+1034126431+1035203112+1032600521+1028541027+1026745609
1104+1028435490+1032005774+1035395886+1037234584+1037075640+1036145227
1095+1036377905+1037830007+1039074633+1040327360+1043206660+1047342138
1087+1050290672+1050692046+1049379611+1047971915+1048117583+1050724149
1078+1054774417+1057783558+1057945652+1055533959+1052551147+1051648487
1070+1053759619+1056313304+1056230269+1054643976+1055196043+1058613459
1061+1062001696+1063034346+1062752912+1063734256+1066567501+1068639628
1053+1067322918+1063885700+1061540089+1060973396+1060570822+1059924468
1044+1060447357+1062692530+1065426387+1067693763+1069746162+1071331030
1035+1071479473+1070464975+1069628023+1069050753+1067428530+1064457194
1027+1062164465+1063159086+1067776723+1072860766+1073741823+1068808098
1018+1061699409+1057853466+1059532770+1064259170+1067754520+1068216801
1010+1066624433+1063825092+1059851784+1055596967+1052995651+1053134418
1001+1055012496+1056545007+1056636143+1055852298+1055056226+1054172394
993+1052863335+1052015882+1053042081+1055198668+1055202569+1051102795
984+1045126894+1040527260+1037693415+1035241067+1032901608+1031276985
975+1029886541+1027395863+1023548120+1019339809+1015558674+1012443320
967+1010252829+1008916391+1007367603+1004534659+1000916744+997741308+994799375
957+990504428+984058969+976916676+971601079+968924604+967117859+964298942
947+960658224+957159799+954018867+951761242+951656530+953935607+956978577
937+958930164+959171468+957930067+955695321+953542634+953033847+954797912
927+957388126+958369021+956889766+954642718+953758060+954504701+955473369
917+955548453+954878471+953908528+952925309+952787742+954358733+956728871
907+957486538+955319375+951370670+948004936+946686200+946836294+946800364
897+945822170+944553541+943742692+943308615+942895314+942457486+942004881
887+941440437+940939527+940949953+941279843+940800010+939096553+937678355
877+938230122+940471095+942696540+943792498+943919189+943608726+943103915
867+942211231+940488047+937951238+934990028+931602991+928181900+926720198
857+929082310+934046414+937982742+938835521+937734762+936773070+937155241
847+938716631+939768709+938804992+936883333+936244781+936909887+937079857
837+936308914+935669536+935391477+934725696+933788832+933687570+935011931
827+937436526+940015564+941170030+939673898+936661306+935301766+937610622
817+942320294+946219344+947441917+946966059+947086074+949040812+951883207
807+953256174+951604173+947798961+944243528+942445035+941601632+939782286
797+936606700+934049564+934261090+937377569+941716171+945388918+947172484
787+946579537+944303311+942204705+941792680+942951046+944402698+945058502
777+944804221+944246229+944108512+944556841+945085731+945279554+945198844
767+944782994+943889260+943279661+943955043+945299282+945536911+943906062
757+941280218+939142458+938417345+938873775+939316704+939052297+939216642
747+941360103+944943888+947773908+948866415+949129622+949201781+948500371
737+947081798+946708403+948532025+951094036+951846153+950651182+950449483
727+953361337+957339296+958462332+956154526+953693027+953786564+955384483
717+955486795+953300579+950801051+949599404+948930548+947373584+945227798
707+943725365+942958772+941563452+938445248+934127948+930209622+928361472
697+929097837+930551139+929978219+927132823+924038997+921673134+919120649
687+915290383+909880650+903982458+899909538+898360225+896975106+894140437
677+892113615+893541114+896969256+897726848+891977174+880268850+871072807
667+874705574+886451702+894510157+895441845+892320490+888600038+885098462
657+881357307+877996974+875846987+873760984+870352644+867154406+866231868
647+866019968+863644429+859354132+855339119+852919550+852404987+853014286
637+852718976+849898933+844999262+840594876+839181105+840176776+840822304
627+840777674+842423299+845706898+846861738+843458725+837560383+832297668
617+828473178+825594928+824496644+826622478+830768907+833454458+833536368
607+832643760+831210035+829101454+827169969+824601657+819083686
##END=
