##TITLE=<SNM>
##JCAMP-DX=4.24
##DATA TYPE=INFRARED SPECTRUM
##DATE=2/5/2025
##SAMPLING PROCEDURE=Instrument type and / or accessory
##ORIGIN=Admin
##XUNITS=1/CM
##YUNITS=ABSORBANCE
##RESOLUTION=4
##FIRSTX=4497.3318
##LASTX=599.83466
##DELTAX=-1.4281778
##MAXY=1.7001224
##MINY=0.26531374
##XFACTOR=1
##YFACTOR=1.5833623e-09
##NPOINTS=2730
##FIRSTY=0.28856626
##XYDATA=(X++(Y..Y))
4497+182249038+181732990+180806111+180455849+180884882+181575995+182134260
4487+182629829+183102943+183179343+182555369+181712644+181570668+182346424
4477+183237993+183381474+182776868+182196355+182439255+183560492+184624208
4467+184463711+182860759+180764928+179419067+179429909+180341486+180940821
4457+180387299+179083261+178042903+177619423+177470897+177534196+178195231
4447+179466010+180678007+181167760+180823842+179908651+178792176+177963944
4437+177950053+178868462+180051643+180399778+179454943+178021145+177234698
4427+177155739+176917262+176179338+175538067+175333771+175024410+174171200
4417+173340728+173434651+174447510+175382784+175372018+174540887+173677307
4407+173400508+173729726+174204798+174420274+174432283+174395015+174069241
4397+173332315+172752103+172814743+173123841+173160525+173096473+173174755
4387+173156535+172848905+172345977+171649500+170805796+170151876+169831485
4377+169603435+169468932+169709009+170208417+170612755+171064036+171893473
4367+172771207+173022031+172526613+171602764+170396112+169071125+168184450
4357+168190944+168834361+169458674+169685180+169547552+169310186+169333130
4347+169746352+170152911+170059948+169609929+169396015+169654744+170156167
4337+170655482+170978301+171002487+170969774+171298146+171784850+171711406
4327+170942049+170095635+169526095+168955896+168188008+167563507+167611484
4317+168507006+169897494+171105369+171529602+170987787+169884827+169080819
4307+169190627+169913455+170451769+170525703+170492181+170667302+171063923
4297+171520643+171692866+171269950+170535754+170320748+171034259+172048549
4287+172346466+171617671+170409834+169326467+168597785+168411483+168975000
4277+170077302+171109115+171710672+172009304+172227566+172499490+172962139
4267+173608888+174136323+174220044+173893762+173506589+173318801+173236943
4257+173037240+172763979+172645833+172704991+172791592+172944051+173350987
4247+173970989+174495657+174717608+174700329+174553309+174296575+174038711
4237+173989491+174172800+174327933+174152642+173555941+172779075+172369147
4227+172851390+174186145+175550245+175883491+174887874+173445417+172781126
4217+173207467+174050663+174655683+174956198+175156146+175284965+175137569
4207+174604092+173973455+173553758+173109912+172320416+171619723+171752927
4197+172613929+173306510+173271350+172763321+172396589+172589423+173226403
4187+173789204+174004907+174123919+174294824+174175793+173630533+173291565
4177+173891503+175347925+176829061+177553959+177487724+177310269+177559041
4167+177938327+177785284+176996672+176128405+175820569+176332061+177280963
4157+177789971+177301328+176210508+175380488+175214852+175483915+175851851
4147+176203393+176440854+176334245+175807694+175151064+174745954+174761859
4137+175198345+175995897+176994865+177870962+178242512+178017248+177611706
4127+177553677+177857806+178057961+177864186+177571069+177686957+178234908
4117+178681012+178677380+178526652+178669851+179106826+179559613+179817778
4107+179809345+179703169+179877331+180415080+180852734+180794159+180500872
4097+180524738+180965987+181354890+181223681+180649228+180120683+179960412
4087+180122791+180517962+181155093+181875926+182315668+182258336+181795480
4077+181140826+180521520+180184716+180240091+180426637+180231207+179509395
4067+178896074+179197775+180370830+181511340+181885130+181566358+181082044
4057+180812661+180762180+180746294+180758039+181012703+181585067+182270853
4047+182947397+183765484+184755737+185472919+185335159+184272083+182862829
4037+181856445+181659396+182203978+183143129+184141645+185010759+185593042
4027+185728712+185528369+185460195+185863629+186477778+186679514+186175381
4017+185371731+184974940+185215243+185670796+185930825+186099998+186353740
4007+186446778+186249522+186362511+187408478+188930515+189763584+189447654
3997+188570898+187805607+187304712+187039488+187150351+187759982+188684753
3987+189486183+189750766+189335248+188468110+187585444+187021908+186956708
3977+187565135+188857823+190336305+191174250+190965399+190183563+189714364
3967+189975917+190687395+191413461+191939729+192114003+191843510+191363845
3957+191084976+191167511+191560443+192326317+193577973+195027770+195889637
3947+195733808+195274115+195408034+195738702+195149963+193717502+192713979
3937+192998476+194630471+197401792+200574909+202477511+201856417+199716054
3927+198315025+198448757+198766776+198101996+197510678+198692316+201301841
3917+202933102+201817568+198827440+196039612+194420096+193873142+194814609
3907+198479870+205237426+213094837+218789090+220670969+219008632+214360327
3897+208202031+203600461+203097118+206163458+208896061+208300000+206972228
3887+208759243+212718694+214913303+215048428+215700296+215879502+212951957
3878+209062675+208461514+211832471+217118905+222669075+226542735+226148429
3868+222907344+221227221+221791189+220958647+216656651+211597024+209582016
3858+212737949+221899323+235170368+243062148+236746518+223474588+212797258
3848+207840288+208478548+213117498+219546476+226240206+232656704+237472000
3838+238074328+234224572+229211757+225292942+222071433+219118365+217402272
3828+217550497+219084071+222510780+229407639+238092604+242309487+240077365
3818+236116822+231930055+225274929+217439691+212690668+213467817+219314643
3808+226657399+231042382+233096860+236729164+241306077+241904019+238089198
3798+233702502+229675422+225229455+221431968+219944753+220776354+222951501
3788+225924953+229316050+232290067+234743104+237992245+242335763+245260371
3778+244753414+242927400+243436032+248024614+256015154+264645291+270921357
3768+274772186+278014136+281349820+285521040+292542332+302943127+313610670
3758+321217125+327238941+336282469+351486457+371298339+388020449+396326147
3748+401673188+410340084+420862885+426313598+426335394+428066809+436400590
3738+452300961+472627140+490020787+498075285+497324581+493414312+491465276
3728+493482787+498468781+504016203+509004230+513771021+517864430+520490989
3718+522752888+527317001+536413344+550083664+564128921+571644202+571749380
3708+570818398+574400408+583638520+595214195+602885134+603386105+600333826
3698+598708720+600373541+604897036+611557828+620095227+628646894+632210421
3688+628280539+620806254+613830681+608557686+606086974+608304339+616452497
3678+629269268+640033820+640300418+633797733+630801883+632177821+629834762
3668+620691664+611100185+605744938+603903000+603427439+604976617+611117916
3658+621534145+631302703+636931775+641873425+651015656+663331080+670332703
3648+666006765+655723985+646699430+641510006+640073573+641596513+644926532
3638+648975558+653464421+658702105+665084177+673209108+682599416+688888883
3628+687110790+680738881+676604628+677966149+685782546+698009582+707914864
3618+709947283+706726432+703019894+699908890+697834310+698589229+701977974
3608+704429524+703698019+702070579+702413218+704297317+705330429+705189639
3598+706152431+709349039+712979158+715000811+716277029+719723068+726625235
3588+733666159+734988003+729325916+721183744+715364606+713886914+715696177
3578+717870289+718236418+716793961+714746034+713903929+716878812+725206796
3568+735738706+741251721+738748447+732426606+726982179+723652611+721158447
3558+718397837+715942747+714895632+715284423+716242171+717431280+718797921
3548+719460838+718595018+716693225+715000660+714900451+717943620+724320874
3538+731259104+735128265+735161844+733193271+730814825+728732189+727726633
3528+728431336+730435973+732342433+732748766+731538049+730257463+730511638
3518+731783339+731587890+728239952+723062724+719642284+720870543+726548591
3508+733235508+736983228+737120329+736384533+737201114+739063154+739955250
3498+739080019+737043459+734513684+731914944+729699875+728220979+727735216
3488+728433067+730028435+731718064+732912820+733505794+733457534+733049544
3478+732989088+733484487+733640787+732391747+730152586+728482231+728269841
3468+729175263+730409998+731043025+730065100+727209701+723777289+722452208
3458+724804754+729097189+731947393+732147812+731658435+732271436+733388645
3448+733856413+733735048+733497286+733131986+732555876+732171226+732317211
3438+732865539+734016402+736057403+738239345+739004880+737142464+733296265
3428+730098227+730040029+733251318+737241469+739067445+737782794+734536120
3418+731265428+729752125+730473843+731648648+731048070+729565786+730094538
3408+732869981+735248200+735721616+735223581+734681728+733808003+732074706
3398+729620521+727997221+729288573+733575361+738546297+741653989+741502207
3388+737796723+732240793+728587108+729339920+732606320+734026415+732197578
3378+729872512+729698746+731356527+733149453+734543197+736042722+737456945
3368+737640122+736416681+735897038+738074237+741421422+742118068+739313790
3358+736502811+736648495+738551944+739103659+737413729+735248501+734208765
3348+733941113+733196734+731918332+731546481+733247554+736991585+742174008
3338+747356882+749888389+748256582+744390959+741507703+740584136+740492284
3328+740546040+740847948+740864662+739921295+738894131+739409106+740871664
3318+740655284+738155775+736119742+736873834+739765070+742826384+745027600
3308+746496407+747781510+749295415+750695710+751032702+749833729+747294091
3298+743751532+739755584+736519902+735532867+736993016+739164493+740308881
3288+740894100+742486230+745332369+748296108+750017133+749814531+748433435
3278+747574391+747776466+747481033+745336509+742422912+740845764+741272200
3268+742837151+744761229+746849888+748436220+748288805+745894926+742287919
3258+739615547+739707625+742354324+745246991+746332504+745405625+743110674
3248+740443572+738804763+738760493+739633616+740822124+742025614+742445273
3238+741386638+739344809+737688683+737861923+740689766+745267696+749014212
3228+750099724+748823129+746118608+742535770+738939906+736523440+735684875
3218+735983921+736977506+738199141+738954964+738906478+738308836+737531782
3208+736676050+735779513+735068938+734723513+734752650+735122543+735414438
3198+734888170+733648918+733288586+735300601+738862208+741586154+742340019
3188+741753370+740327929+737942030+735083017+732769696+731329574+730362717
3178+729884859+730644899+732343035+732571009+729472654+724752730+721642403
3168+720851194+720823940+720683075+720517741+720065180+719486511+720184437
3158+722834675+725711381+726507258+725061338+723130861+722048435+721613191
3148+721002600+719998324+719149218+719053074+719658998+720102147+719619320
3138+718613689+717787622+716979774+715952911+715405788+715978133+716908852
3128+716677264+714449321+710693017+707058832+705391337+706115088+707778065
3118+708554592+708097966+707414194+707240428+707611149+708400777+709251615
3108+709476653+708905513+708152776+707504691+706468267+704726839+702676954
3098+700891708+699596366+698570708+697611229+697166951+697856746+699138762
3088+699479669+698150372+695951490+694122276+693155569+692704891+692291104
3078+692046792+692387022+692746525+691890643+690001725+688738983+688944973
3068+690068130+691219369+691299552+689492171+686892678+685640100+685861298
3058+685599670+683734468+681059762+678732437+677605290+678186519+679728130
3048+680223078+678271144+674680626+671684512+670692809+671221863+671998014
3038+672452080+672703318+672773789+672578415+672191205+671608169+670681215
3028+669382710+667786364+666182188+665253502+665542911+666591532+667082942
3018+666059543+663783716+661513234+660642747+661666974+663477291+664045043
3008+662416849+659726558+657731558+656976864+656701082+655771116+653631637
2998+650953994+649237111+649281607+650210669+650286635+648694957+646388187
2988+645093748+645532606+646610439+646455419+644414418+641606601+639276642
2978+637554338+636244314+635709765+636120464+636665479+636408293+635361554
2968+634102501+632923104+631872149+631101607+630789573+630935671+631265096
2958+631223913+630233227+628301394+626303609+625193552+624978189+624786541
2948+623946282+622666073+621527294+620655074+619668980+618292665+616718793
2938+615433088+614877645+615082242+615508301+615616491+615447505+615131067
2928+614277971+612668411+610995496+610067563+609797691+609506211+608669452
2918+607040242+604558764+601506636+598685305+597145952+597288925+598201462
2908+598377073+597206597+595397711+594007919+593413703+593132537+592427722
2898+591018167+589209733+587454264+585968291+584790361+583926649+583302054
2888+582696018+581773430+580285387+578391650+576658617+575570733+575183147
2878+575246804+575348406+574947004+573849295+572691505+572245457+572282273
2868+571829976+570566632+569191333+568254290+567509459+566755066+566396466
2858+566546404+566382312+565222904+563546676+562181353+561245138+560406422
2848+559420592+558173849+556775964+555529032+554478755+553416958+552355501
2838+551346632+550107907+548450539+546653172+545047151+543730201+542790636
2828+542262561+541774464+540730662+539038699+537312706+536133835+535432671
2818+534805893+534036932+533104933+532154489+531446963+530874204+529925830
2808+528568827+527492537+527086166+526918423+526422007+525399699+523896297
2798+522106609+520309544+518670283+517215592+515952022+514889134+514043642
2788+513429700+512930611+512317083+511553731+510851137+510208322+509274517
2778+507969952+506796540+506138140+505640482+504637636+502896133+500761812
2768+498857949+497677535+497213192+496981980+496489065+495555523+494276744
2758+492931109+491882564+491312440+491023858+490601301+489748430+488403059
2748+486601363+484538866+482772556+481896798+481822676+481730033+480909161
2738+479412722+477804179+476470365+475348563+474314209+473519085+473019658
2728+472367055+471040883+469126178+467228037+465912743+465364115+465319883
2718+465268573+464843757+463989531+462811000+461503348+460352221+459560071
2708+459016186+458295936+457004208+455236731+453618287+452711171+452421837
2698+452152040+451489800+450523846+449472289+448382033+447348771+446610792
2688+446169901+445665128+444828708+443786863+442808223+441982682+441185224
2678+440262674+439245110+438304603+437501800+436750118+436012213+435295954
2668+434500830+433516581+432428697+431450622+430679515+430004062+429287201
2658+428633356+428298961+428192315+427734221+426542739+425014906+423818004
2648+423007370+422082336+420828967+419680099+419154547+419199908+419205442
2638+418571699+417232087+415694014+414619381+414301625+414465265+414567695
2628+414279415+413615519+412709796+411685230+410702411+409899570+409281864
2618+408788535+408382127+407985016+407467896+406776030+405980267+405197302
2608+404517671+403974199+403529243+403061738+402347361+401179897+399710562
2598+398542120+398188940+398477334+398688443+398289677+397405034+396582317
2588+396187240+396044116+395686909+394921975+394004545+393260015+392720346
2578+392197127+391574188+390959079+390585120+390549321+390655704+390581318
2568+390145698+389348805+388309670+387297301+386612362+386285609+386070208
2558+385781965+385434809+385063297+384673188+384338455+384124258+383958736
2548+383725793+383375362+382868330+382199465+381533123+381100325+380930813
2538+380851910+380694406+380367126+379871501+379361646+379033387+378887177
2528+378757266+378575519+378407286+378219667+377843412+377256837+376707380
2518+376416954+376343134+376332217+376271798+375989239+375325456+374483616
2508+373991830+374123962+374558039+374756199+374551639+374205650+373948765
2498+373700500+373306741+372796810+372266364+371760988+371387142+371253957
2488+371244169+371125815+370890162+370719369+370665312+370581252+370320979
2478+369857088+369255644+368639933+368168136+367981420+368110352+368413540
2468+368667940+368731070+368558659+368143216+367563192+367009820+366628896
2458+366399868+366233894+366082075+365917795+365723889+365505664+365247688
2448+364908437+364501953+364105332+363755767+363445540+363242674+363274785
2438+363515408+363719515+363684205+363466244+363245724+363109752+363035555
2428+362949462+362784994+362580134+362457601+362453385+362478720+362440887
2418+362269493+361924896+361542241+361418655+361685026+362098173+362291289
2408+362175043+362004213+362039373+362198269+362126218+361635901+361000351
2398+360728371+361020039+361506668+361642978+361318446+360885272+360613781
2388+360405382+360031084+359323973+358054078+355893782+352679444+348605460
2378+344082755+339472451+334969396+330633181+326475664+322576124+319103734
2368+316194729+313883291+312159424+310983245+310372051+310678947+312580495
2358+316482294+322095857+328942912+337015555+346164713+354971119+361234800
2348+363507728+362016673+358711951+355896831+354146294+352437692+349895193
2338+346393327+342247028+337967468+334074590+331015535+329148564+328517607
2328+328708689+329187413+329690115+330202455+330806044+331696295+333118499
2318+335057108+337094872+338791126+340149372+341514770+343064324+344655739
2308+346158878+347631676+349086856+350324376+351142952+351614222+352014570
2298+352519380+353086530+353639187+354210779+354843166+355475177+356018874
2288+356443653+356742587+356921172+357027065+357098627+357118993+357098514
2278+357107775+357141316+357101074+356999886+356975417+357022510+356964689
2268+356783469+356709385+356889739+357213631+357533833+357824448+358056751
2258+358163887+358211206+358372437+358638657+358774742+358671107+358525423
2248+358561825+358775871+359064867+359411609+359809660+360154294+360320908
2238+360305022+360259586+360391905+360773205+361258554+361668124+361989833
2228+362297914+362555100+362651244+362611642+362642134+362928946+363409476
2218+363784377+363830152+363673552+363642006+363875024+364220298+364465777
2208+364553074+364625991+364923457+365503933+366076993+366304553+366258438
2198+366344230+366772472+367320913+367652559+367729994+367837393+368220387
2188+368785880+369235354+369439951+369532593+369666720+369888295+370247347
2178+370810506+371508959+372142664+372575951+372810814+372912868+373009124
2168+373277152+373766227+374298029+374673569+374902673+375141677+375490602
2158+375914779+376303043+376555937+376658895+376725412+376946159+377392545
2148+377861368+378056027+377959055+377871005+378040856+378402731+378724026
2138+378903928+379066552+379395902+379922848+380471477+380789647+380730959
2128+380357264+379920401+379742983+380033936+380701597+381360071+381664012
2118+381657537+381655806+381799230+381925866+381897633+381831454+381920822
2108+382182977+382481647+382709508+382862947+382991691+383133384+383273835
2098+383365499+383401487+383453022+383613613+383878591+384079236+384048405
2088+383890638+383890788+384096289+384264747+384271523+384252023+384306608
2078+384360025+384340224+384281913+384238923+384221456+384240467+384351480
2068+384580207+384812510+384867320+384672774+384277396+383769611+383298680
2058+383056288+383134325+383438040+383719619+383696167+383307640+382882033
2048+382850223+383289495+383917742+384440471+384677856+384493813+383926099
2038+383313889+382993912+382932137+382890088+382825679+382875445+383071572
2028+383307301+383493000+383609133+383696694+383893310+384395072+385233600
2018+386074424+386422634+386143802+385599540+385209470+385110992+385202694
2008+385278095+385195127+385050949+385033859+385113025+385115171+384990116
1998+384816425+384801367+385300080+386361575+387294590+387268766+386275445
1988+384935080+383702981+382752837+382173641+381886641+381670186+381432010
1978+381235657+381084176+380901149+380693089+380612794+380864070+381440254
1968+381876100+381531353+380369724+379132618+378498800+378433675+378514912
1958+378512766+378403033+378117575+377581407+376908025+376409990+376358568
1948+376805745+377779266+379367518+381087639+381589175+380051893+377466931
1938+375449683+374544110+374265504+374038471+373665755+373225316+372820978
1928+372612391+373060998+374484068+376185442+377072041+377277692+377611937
1918+377615136+376146931+373687777+371999729+371966941+372955594+373649530
1908+373195539+371849490+370493578+369612964+369061437+368650699+368571684
1898+369160855+370266884+371126643+371438640+372024687+373343256+374137965
1888+373035287+370669227+368596642+367408662+366891052+366805825+366973079
1878+367246076+367590710+368112498+369384124+372479807+377655943+382666556
1868+383785346+380181615+375017149+371354241+369810973+369519079+369585521
1858+369597643+369523672+369494874+369577353+369835254+370534197+372104982
1848+375081446+379654632+384223903+385265786+381627158+376733506+373884092
1838+373259798+373317883+373404691+374824674+378981476+384552689+387780353
1828+387252278+385396600+383728917+381352919+378212590+375979000+375566531
1818+376177461+376776533+377490609+379129907+381638226+383624379+383831272
1808+382639490+381584055+382139272+385001409+389386186+392961044+393768967
1798+392581626+392291388+395200280+400838575+405065434+403583375+398074238
1788+393718561+392910600+394585134+396973781+399414414+401412614+402161247
1778+402261306+404150262+409818183+418275062+424689169+424670310+419829961
1768+414209999+410025340+408754429+411175751+415427568+418101220+418710230
1758+419213309+419978431+420851027+423749002+430479887+439074205+444458739
1748+444395158+441620807+439530642+439667141+441959832+444956962+446806053
1738+448320937+453112987+462315939+469847745+468774467+462598083+457185089
1728+453964766+453129776+454876023+458409095+463298607+471292196+484277238
1718+499573003+508531869+506658648+499858837+494848223+494335168+498753147
1708+507384507+517923456+527259782+535424917+545999779+559951942+571486961
1698+575930086+575560268+571991922+566979276+565286146+569546696+578169737
1688+589133013+603587427+621550219+633956968+632911585+626435176+623800485
1678+627576477+636597494+647102225+655438716+662318372+669556401+674490597
1668+673888363+671704915+673995950+681246177+688413209+691148673+691592952
1658+695024686+705342776+723999768+745121560+752309372+746359005+744042748
1648+748583560+751671978+746096925+736729656+730861429+730256560+734433501
1638+742488112+750138799+748408891+735682993+721969909+713821488+710743912
1628+709549683+708332340+707242385+704919277+698662862+690421234+685483575
1618+684820432+682901700+675087185+665201025+658287716+654741468+652228331
1608+648736441+644338678+640344085+637388627+634933162+632245882+629420824
1598+627206546+625925622+624977323+623541040+621329548+618510400+615471485
1588+612752772+610747909+609409803+608326512+607292422+607248717+610148348
1578+616540697+622283983+621078761+615206920+612496226+614958693+617813716
1568+616339413+612438028+610159829+611642942+619369143+636283615+657723427
1558+663906436+650703434+636011898+627197248+623540099+623149652+624074611
1548+625981674+631019956+641160666+655901968+672933551+686598074+686368594
1538+673712865+663652488+662850738+667603638+670750330+671093495+673690730
1528+680915584+690241369+699230087+708948201+719355584+725946507+726587967
1518+724739178+722145106+718371335+715454801+717014407+725014734+739175184
1508+755304432+761191331+749723808+734647321+727178306+727709317+733266602
1498+739640167+741971933+739384260+737150068+740265816+748391198+755728383
1488+756346428+751189302+745511330+742719851+743045700+745193913+748654407
1478+754226072+762241834+771260517+778026260+778508334+772613379+766305541
1468+764985731+769060280+774329133+776185677+776023204+779382511+789141808
1458+801324047+804800427+795976215+784941979+778493954+776771725+777359127
1448+776990288+773745646+768998091+765271150+763474084+763789770+767048867
1438+772786920+776604508+774386277+769297966+766487514+766531483+767055793
1428+766969588+767334738+768574818+769946955+771864558+775572376+779238182
1418+777841953+770816614+763392772+759118859+757544572+756653078+755806081
1408+756319173+758773886+761050315+761014176+760102430+761127862+764409847
1398+768174960+770912306+771566264+769494921+766284084+764947032+766509875
1388+768936656+769515475+768463692+768582196+771621978+777143575+784050711
1378+791782710+799864801+806907080+811153965+812826729+814282436+816866194
1368+819814801+822649270+826148914+829931494+831460682+829148642+824568604
1358+820108878+816701688+814177183+812277950+810922452+809852675+808586319
1348+806920482+805158726+803899523+803915484+805796798+809096777+812066238
1338+813007648+811961436+810458900+809944302+810833009+812607489+814527275
1328+816323137+818205505+820436083+823227939+826784351+830883444+834603233
1318+837089868+838521633+839784977+841444190+843508004+845864239+848412159
1308+850895632+853071325+855089514+857265733+859410181+860954127+861773268
1298+862248866+862505149+862173954+861012777+859326234+857415633+854842717
1288+850945247+846121199+841697536+838384231+835739414+833233129+831079270
1278+829820368+829463951+829244334+828385591+827056821+826175868+826290532
1268+827089948+827923921+828400649+828521863+828492200+828488962+828631032
1258+829028556+829696367+830533276+831553062+833043778+835354162+838502058
1248+842032947+845309587+847899217+849669555+850715240+851377103+852172302
1238+853420739+854937204+856395772+858006574+860254469+862839506+864733544
1228+865691066+866712206+868433155+870158170+871156423+871980910+873735814
1218+876623361+879903615+883072064+886413226+890206120+893996379+897015832
1208+898906934+899846537+900369567+901275592+903404982+907157371+912016503
1198+916694943+920225305+922855591+925389131+927979891+930093772+931370291
1188+932140495+933178726+935140975+938103360+941413578+944212059+946375630
1178+948578051+951207734+953779596+955805690+957527242+959323178+961171365
1168+962954352+964640894+966377428+968830033+972526934+976343092+977977007
1158+976838492+974993392+974343951+974649623+975066045+976036140+978620048
1148+982615092+986298517+988388907+989497759+990969955+992888010+994092252
1138+994293800+994962514+997348790+1000634991+1002902686+1003190666+1002082943
1128+1001152676+1001981680+1004771277+1007801421+1009231756+1009494513
1120+1010802880+1014363132+1018946407+1022285310+1023403648+1023376469
1111+1024034643+1025801518+1026920986+1025562853+1022650761+1021235259
1103+1022818279+1025506612+1026262812+1024458443+1022404342+1022534817
1094+1025171201+1029356500+1034940738+1042073665+1048754709+1051556126
1085+1049481922+1044902788+1040931987+1039753643+1042313836+1047768276
1077+1053599310+1057115067+1056953723+1053706597+1049727439+1047939784
1068+1050105915+1055541458+1061166803+1064056384+1064430644+1064036432
1060+1062724828+1059601852+1056282825+1055582189+1057801022+1060620509
1051+1062100007+1062767441+1064594623+1068246877+1072096539+1073741823
1043+1071807807+1066740953+1061244050+1059247619+1062021330+1066220407
1034+1067861023+1066463514+1063775707+1061341323+1060394944+1061464495
1025+1063299883+1064628879+1066293587+1068850617+1070007353+1067365849
1017+1062361259+1058693193+1057767142+1057698404+1056665744+1055331101
1008+1054854825+1054480715+1052691705+1049807320+1047970953+1048651638
1000+1051084593+1053082679+1053102104+1051239687+1048382331+1045007816
991+1040890427+1035747908+1030164950+1025800012+1024170464+1024924932
983+1025571135+1023555957+1018873226+1013961768+1011090935+1010582284
974+1011043051+1010177758+1006307542+1000292578+994634406+990255088+985794233
964+980382557+975054150+970713079+966756432+962451348+958308814+955430376
954+953998762+952906699+951106621+949017962+947693860+946656909+944136243
944+939971122+936598414+936225660+938349780+940728225+941801239+941389335
934+939955989+938379895+937886829+939196476+941622956+943378312+943111037
924+940962749+938105167+935762258+934673734+934786591+935214081+935000863
914+934168772+933579563+933812356+934663796+935584125+935987145+935242013
904+933217876+930787030+929051550+928076110+927253882+926836180+927750712
894+929634736+930524348+929041311+925724392+922073568+919266428+917650658
884+916795303+916160920+915764224+915862099+916212568+916320608+916264743
874+916456955+916508905+915604461+914263645+914186926+916046180+918482974
864+919602743+918935986+917577025+916642316+916032854+915035128+913945023
854+914030325+915477374+916579751+915755491+913439158+911176131+909954496
844+910177727+911951529+914453824+916078329+916126137+915683665+916311121
834+918143196+919643775+919424309+917777594+916044524+915502144+916912226
824+919606206+921162725+919973239+918108187+918975212+922874715+926895658
814+928256501+926961762+925527813+926319248+929120891+931453636+931211884
804+928765528+926426158+925971113+926983972+927934115+928535521+929628789
794+930906362+930961173+929419109+927652084+927483286+929474371+932333911
784+934257688+934804811+934779288+934668162+934007203+932110455+929074814
774+926208950+925352014+927084031+929675468+930888143+930544977+929927459
764+929520523+928931389+928123466+927317952+926747942+927128225+928747384
754+930574038+931578540+931968084+932381193+932982373+933369131+932689425
744+930960495+930404864+933058866+937150431+938911358+937976348+937460771
734+938809191+940185092+940132616+939636388+939938973+940676953+940876694
724+940158591+938393598+935994072+934461118+934859847+936225133+936810126
714+936494741+936765028+937951804+937413113+932321790+924109525+917398591
704+914612759+914003523+913438255+913678125+916244491+920034524+921586901
694+918571213+912811552+908659757+907990591+908738734+908592750+906995199
684+902917337+895350070+886646245+880967067+879739862+881262801+883667522
674+885647088+884660053+877582539+864984933+855326673+858180416+868305541
664+874704102+874871770+872194278+869828330+867631632+863995640+859349725
654+856182931+855226162+853766540+850098852+846965562+847406829+850354758
644+852969911+854340993+854596071+852882726+848072155+841238652+835755075
634+834422013+837500718+843436856+849373897+851410456+848080136+843114394
624+840921385+841095076+840268105+836362428+829643891+822222533+817150409
614+816603135+820694097+826468063+828190970+822004798+810922377+802476190
604+801517614+807135054+814192316+816474166
##END=
