##TITLE=<SNM>
##JCAMP-DX=4.24
##DATA TYPE=INFRARED SPECTRUM
##DATE=2/5/2025
##SAMPLING PROCEDURE=Instrument type and / or accessory
##ORIGIN=Admin
##XUNITS=1/CM
##YUNITS=ABSORBANCE
##RESOLUTION=4
##FIRSTX=4497.3318
##LASTX=599.83466
##DELTAX=-1.4281778
##MAXY=1.7079613
##MINY=0.23625454
##XFACTOR=1
##YFACTOR=1.5906629e-09
##NPOINTS=2730
##FIRSTY=0.25335255
##XYDATA=(X++(Y..Y))
4497+159274820+160827511+162919249+164262305+164028970+162318074+160038715
4487+158391053+158182711+159527584+161971930+164552410+166000124+165644988
4477+164144925+162781372+162178792+162183157+162569995+163143629+163510663
4467+163552481+163804852+164599325+165203460+164656431+163099262+161547040
4457+160770854+160796110+161010428+160614541+159434861+158225522+157762748
4447+157904110+157923876+157416773+156555967+155809514+155652021+156275998
4437+157344809+158181062+158405123+158300952+158351614+158578935+158685448
4427+158639152+158601212+158457340+157917318+156993447+156053838+155436372
4417+155210672+155245530+155325569+155243890+154951659+154591388+154307757
4407+154160137+154270931+154758483+155411388+155790797+155714739+155314964
4397+154737200+154117982+153679368+153550194+153603891+153612059+153440383
4387+153080675+152597610+151989952+151154018+150165340+149483310+149548145
4377+150282476+151238160+151974673+152112391+151508443+150623064+150181190
4367+150324107+150596029+150726551+150862957+151013612+150785007+149922617
4357+148904524+148658683+149628053+151368486+153053049+154093775+154337799
4347+154022382+153544114+153136414+152818543+152495491+151977427+151220408
4337+150598202+150500663+150753625+150920111+150943652+151052741+151383522
4327+151991882+152767909+153147674+152464886+150835669+149239707+148525836
4317+148702833+149257141+149787523+150261370+150890583+151849603+153023662
4307+153995815+154318408+153825638+152817343+151992847+151928059+152505252
4297+153049883+153019156+152351637+151291379+150248845+149723896+149969682
4287+150654372+151036760+150618970+149645768+148874481+148827436+149446710
4277+150521676+151962495+153347707+153903232+153501902+153005132+153111467
4267+153586869+153954793+154169524+154327888+154302998+153881583+153043353
4257+152150771+151852975+152510536+153786246+155032766+155921236+156464705
4247+156649655+156407017+155917779+155595158+155578268+155524271+155111334
4237+154442326+153811174+153401844+153257859+153265616+153200696+152999315
4227+152918873+153218467+153690056+153781843+153407924+153288436+153901171
4217+154494449+154063301+152945740+152430468+153056665+154164690+154889231
4207+154996212+154881109+155048701+155561293+156027552+156183340+156231519
4197+156445482+156705431+156679717+156280007+155732988+155305419+155139832
4187+155263666+155529330+155639159+155391172+154815656+154105794+153633193
4177+153872749+154936848+156326566+157474948+158291435+158873649+159114591
4167+158955225+158646571+158438005+158270038+158011990+157761324+157713454
4157+157862310+157935829+157649078+157045477+156511095+156407879+156794164
4147+157509066+158332372+158971806+159094544+158609400+157897908+157538837
4137+157794374+158555703+159618415+160649015+161157317+161015000+160676744
4127+160466641+160127954+159395553+158520067+158065874+158528442+159972278
4117+161762352+163019635+163389761+162976843+161915535+160606672+159850121
4107+160064515+160758226+161224110+161369312+161486242+161656701+161765331
4097+161757330+161608475+161281891+160896384+160712567+160805365+160965350
4087+161049193+161260589+161873305+162705080+163150936+162914340+162441074
4077+162326674+162579719+162828905+162923296+162894630+162670344+162321990
4067+162303441+162911624+163697159+163936059+163557203+163094822+162908457
4057+162974538+163224867+163617738+164041635+164411667+164755881+165217662
4047+166004939+167016560+167587139+167154268+166035535+165045349+164680732
4037+164977619+165682928+166370418+166756301+166886852+166839638+166563210
4027+166144371+165890089+166066187+166709630+167628152+168532060+169211251
4017+169515145+169278250+168535133+167671956+167140740+167061263+167144281
4007+167037769+166849399+167139785+168141943+169296443+169931867+170095187
3997+170313402+170799465+171228027+171229339+170894961+170643452+170692334
3987+170919805+171144934+171245283+171161946+171048745+171236721+171903415
3977+172902651+173893755+174492120+174414535+173658602+172553678+171612992
3967+171307748+171872051+173188578+174796052+176088803+176641040+176370945
3957+175517642+174634774+174413317+175248915+176985516+178925457+180107591
3947+180238086+180244981+180946917+181577957+180765967+178611520+176530161
3937+175781236+177083111+180397884+184197408+185916266+184530530+182084142
3927+181353784+182847063+184609689+184901330+184456973+185009360+186553958
3917+187121858+185186001+181656179+178711588+177489902+177836702+179863764
3907+184629080+192552932+201516114+207708141+209146900+206478062+200839133
3897+194059046+189303022+188952476+192068199+194343436+192926373+191061563
3887+192985298+197423656+199819476+199912649+200508747+200234642+196466632
3878+192279914+192359691+196667835+202229460+207373183+210769963+210393036
3868+207671307+206377488+206666694+205251880+201015025+196951177+196340840
3858+200775376+210792764+224222070+231372265+223710883+209300346+198070340
3848+192943667+193687365+198837496+206163619+213759389+220599094+225106287
3838+225044590+220971280+216209767+212378149+208992536+206166692+204940566
3828+205203242+206074175+208773271+215623356+224449579+228058766+225169146
3818+221660495+218717515+213089284+205685445+201016318+201730414+207457869
3808+214579510+218743164+221010326+225227639+229725820+229211729+224755029
3798+221017970+217931642+213504020+208852598+206472273+206924386+209356385
3788+213107795+217435200+220985463+223485754+226502647+230416478+232706253
3778+231772087+230106738+231220861+236604402+245485915+254930906+261612088
3768+265234521+267605629+269679831+272789166+279354710+289690476+300221468
3758+307662424+314038118+324098880+340251190+359642242+374213439+380536168
3748+385384615+394314878+404624057+409383847+409920290+413531500+423498939
3738+439085615+456797042+471164880+478503801+480461053+481610232+484977540
3728+490599250+496271735+500134904+503175310+507008090+510829029+513626919
3718+517066323+524013927+536304491+553624602+571295860+581396398+582066052
3708+579284200+579030630+584062837+593215757+601610851+605340734+605540157
3698+605029232+605577217+608808353+616100397+626636729+635603714+636389343
3688+629013588+620268247+614463301+612406823+613639488+616984426+622179710
3678+630093369+638059676+639135185+633928210+630529988+630605381+628536762
3668+622172103+615762028+612146471+610683506+610728921+613873498+621445529
3658+630674928+636129066+637600724+642088770+655682408+676717601+692342048
3648+690134897+676582028+664685178+659346003+658990173+659967807+660344021
3638+661013713+662823216+665424043+670079811+679353351+691513402+698056838
3628+694480401+688515676+686665779+688811177+693350483+698587735+701985058
3618+703028791+704748362+708900587+713425205+715874572+716568470+716056309
3608+713114266+708222426+704926577+706058893+710911462+716082014+719079365
3598+720670708+722735542+725129976+726505032+727537524+731096424+737967137
3588+743259398+740794143+732123595+724013023+720006187+718976768+718404802
3578+717982947+719416760+722543837+724677469+724977541+726064217+729905428
3568+734665517+736851159+735259891+731126702+726639855+723749073+722524352
3558+721920685+722481784+726029143+732210155+737782777+740552077+741829782
3548+743400366+744537029+743414080+739668047+734849727+730977640+728489302
3538+726459167+724934599+725223130+727828603+732167587+737956046+744341427
3528+748251661+746856819+741234284+734979529+730457684+727808219+726312129
3518+725903988+726912948+728374115+728399146+726958588+726526091+728833966
3508+732394215+734329172+734005942+733613240+734783178+736073474+735240631
3498+732527389+730060036+729134338+729391018+729992437+730651112+731654676
3488+733109622+734332844+734343112+732834881+730498828+728718928+728688576
3478+729900332+730361682+729476528+729573505+732776050+737156477+738521492
3468+736341845+734517130+735436008+736914861+736154787+734125776+733911064
3458+736385312+738961933+738237158+734333519+731530420+733313168+738140781
3448+741417595+741152071+739374495+738340654+738331286+738488592+737817101
3438+736295980+735425216+735928984+735933255+733982260+732222370+733199854
3428+735365411+735261990+732672479+730008250+728088656+726014530+724476022
3418+725730270+729965457+734336666+736582188+737812680+740051456+742835070
3408+744337980+744331834+743880077+743133194+741500032+739476642+738303183
3398+738466484+739691055+741332160+742015416+740305139+736239398+731622301
3388+729048153+729850719+733083842+736766848+739646988+741481072+742192507
3378+741915292+741373903+741387468+742495427+744677547+746476932+745508517
3368+741437305+737304490+736508294+739328030+742807566+743790595+742146942
3358+740616303+741547546+744487641+747251919+748549260+748394128+746967360
3348+745039223+744051022+744270456+744825335+745646037+746745828+746171014
3338+742432400+738241879+737542809+740331969+743489698+745246291+746356498
3328+747583767+748433698+748409041+747807772+746901860+745609540+744625012
3318+745318536+747527935+749116954+748724777+747695658+748173120+750338528
3308+752558494+753359636+752637634+751262652+750003307+749013083+748130103
3298+747111176+745822079+744955211+745766246+748162778+749878826+748978834
3288+746580129+745516311+746790119+748826774+749326420+747517892+744931904
3278+743636512+744348547+746253377+747978493+748699371+748883731+749905731
3268+752407408+755478504+757525201+757623526+756315843+755164642+755163068
3258+755304560+753962029+751809961+750981615+751486956+751306493+750186393
3248+750469603+752897312+754638466+753261985+750256165+748535770+748610414
3238+749205987+749884147+751249911+753241675+754627074+754455305+753299531
3228+752372335+751760574+750761807+749418975+748018363+745973839+743452601
3218+742823828+745786856+750243650+752533538+752092497+751377015+751759150
3208+752160995+751611062+751103023+752301514+755105437+757029527+755633486
3198+751316536+746660693+743658095+742558979+742870743+744129413+745815184
3188+747500955+748860349+749408633+748843562+747342900+745122035+742316313
3178+739669696+738489716+739272122+741071283+742536946+743059075+742983532
3168+742928374+742664874+740959093+737249632+733149867+730817261+730611168
3158+731615031+733422885+735825637+737447706+736875141+734738137+732775900
3148+731519179+730330805+729133214+728590925+728867465+729273657+729300262
3138+729370559+729949794+730461956+730061085+729198489+729355720+731068471
3128+733112770+733919608+733065781+731113586+728464271+725004521+721119618
3118+718198409+717342408+718036831+718832128+719040845+719017013+719068724
3108+719096827+719146664+719682583+721033133+722383909+722099050+719692625
3098+716722928+715161263+715246098+715444548+714590945+713308893+712999528
3088+714008412+715318568+715851639+715284694+713929347+712422615+711210035
3078+710177468+708891144+707240971+705741883+705206264+705857371+706671553
3068+706385045+705076388+703758812+703019049+703127791+704425956+706419144
3058+707477267+706500907+704054163+701243271+698465428+695855758+693877034
3048+692669625+691658417+690475814+689815040+690625700+692601052+694046855
3038+693571415+691828388+690992996+692106652+693514833+692863802+690104021
3028+687324529+686274126+686955734+687917030+687400447+684870966+681792151
3018+680365608+681381762+683488414+684705041+684636319+684490854+684785605
3008+684362476+682377307+679773258+677768229+676283080+674709874+673041414
2998+671343502+669063207+665892437+662731185+660874394+660533777+660802149
2988+661019484+661523627+662635633+663786985+664228550+663964975+663677643
2978+663783762+663781514+662929560+661334695+659692990+658374440+657414494
2968+656786395+656094220+654708297+652707464+651012100+650175885+649580461
2958+648261612+646314964+644930614+644961191+645936651+646596975+646016090
2948+644158325+641749202+639718393+638603613+638416705+638766914+638863666
2938+638130197+637226158+637369824+638497494+639223468+638567341+636740152
2928+634337325+631772470+629429972+627570483+625979852+624204037+622289464
2918+620819379+620108281+619816453+619566779+619395047+619212748+618521323
2908+617145029+615679741+614678725+613918614+613005694+612057176+611222422
2898+610280274+609234218+608437085+607750493+606572537+604867505+603250269
2888+602089512+601262178+600550967+599778715+598803518+597662283+596666364
2878+596220115+596278571+596009937+594533932+592179518+590368929+589909415
2868+590013173+589476880+588287045+587241401+586455472+585314688+583703897
2858+582264989+581492774+581278062+581048249+579949470+577496806+574354027
2848+571829642+570591169+570340222+570403324+570338011+570176509+570028084
2838+569558902+568433593+566991650+565727359+564577544+563457556+562766168
2828+562548046+561959217+560286674+557875303+555574810+553803005+552569440
2818+552012538+552281734+552883265+552787375+551494418+549496959+547475817
2808+545583128+543729559+542102993+541005825+540345463+539667228+538701698
2798+537549372+536349569+535137814+533982640+532917323+531940439+531269810
2788+531119250+531173134+530860921+530115648+529288501+528453260+527308953
2778+525747512+524201697+523227286+522759042+522079495+520697880+518916482
2768+517280960+515870080+514465533+513085080+511917653+510833676+509363628
2758+507336116+505251647+503783586+503071289+502674990+502127492+501402830
2748+500828465+500583514+500414217+499860724+498613670+496732935+494753536
2738+493355022+492617582+491914090+490765886+489355831+488014311+486761074
2728+485534105+484408047+483482236+482771288+482158591+481425722+480475705
2718+479475064+478619325+477853331+476920102+475635277+474165866+472988584
2708+472338340+471826216+470951630+469802451+468855320+468277770+467784869
2698+467036862+465930139+464623318+463420330+462470838+461496390+460073369
2688+458349265+457066200+456536727+456109514+455105238+453696082+452363930
2678+451175669+450083447+449334840+449133393+449196982+448872141+447682531
2668+445861600+444202883+443207076+442666699+442203775+441740064+441262976
2658+440641772+439893989+439230480+438674664+437967201+436937370+435678587
2648+434356665+433167130+432409792+432213703+432239933+432002251+431395399
2638+430645855+429903768+429088611+428037684+426795613+425766494+425337407
2628+425306943+425027442+424188978+423123699+422255295+421569678+420732450
2618+419526690+418098611+416866358+416201650+416108158+416192169+415978394
2608+415265610+414242898+413305697+412669429+412150186+411455350+410614938
2598+409897882+409399397+408959818+408430495+407837919+407289560+406808837
2588+406328827+405807859+405205129+404400240+403384760+402482969+402091204
2578+402213024+402454341+402433094+402048036+401368639+400431213+399310213
2568+398305638+397743115+397553658+397335574+396861596+396249760+395618889
2558+394884408+394024510+393315061+393042193+393089445+393070484+392769775
2548+392196197+391370886+390372418+389455751+388896825+388774556+388938569
2538+389126376+389164147+389068295+388913725+388708381+388405311+387882395
2528+386995930+385845440+384844274+384348938+384324993+384432499+384338483
2518+383974035+383548320+383281485+383158953+383003146+382717950+382394458
2508+382183306+382082694+381912311+381557455+381148753+380874124+380693061
2498+380397298+379910617+379393922+379057389+378943588+378903156+378759303
2488+378485611+378180142+377897906+377614022+377288281+376846679+376214983
2478+375506695+375009897+374865594+374949980+375105075+375232966+375175671
2468+374800956+374240681+373808184+373624236+373487390+373164310+372657732
2458+372119752+371654243+371295078+371054510+370933252+370951201+371120160
2448+371352821+371520769+371593052+371577801+371412289+371053199+370574837
2438+370106779+369774706+369670310+369764064+369887870+369854146+369568275
2428+369087440+368617509+368356669+368298851+368275169+368201350+368166838
2418+368233013+368272508+368151700+367973972+367921849+367927245+367782492
2408+367554965+367600156+368098790+368770018+369117530+368883632+368247290
2398+367647295+367415158+367514233+367632119+367551030+367334632+367096650
2388+366780090+366292997+365630387+364659949+363004717+360405538+357112911
2378+353705284+350546992+347575346+344586801+341532006+338456114+335347809
2368+332255393+329517008+327622070+326730809+326575789+327058160+328699003
2358+332123793+337233529+343411880+350458671+358344115+365984157+371528376
2348+373873234+373344323+371306169+369066381+366909555+364455129+361472429
2338+358021409+354332183+350723446+347501827+344908719+343071900+341934038
2328+341283869+340901809+340730002+340933397+341695344+342959635+344484953
2318+346032304+347402228+348502206+349469647+350570149+351943483+353489522
2308+354956422+356154838+357114185+357979142+358811760+359574157+360200456
2298+360636363+360939696+361320032+361934866+362685684+363300255+363582753
2288+363588149+363561919+363662043+363801662+363832501+363755834+363667027
2278+363618726+363610670+363641846+363726494+363851349+363954546+364030726
2268+364180987+364417358+364558550+364494587+364392289+364483270+364805563
2258+365236524+365624767+365839479+365814748+365609178+365368349+365209319
2248+365178255+365294417+365542816+365833933+366074613+366273962+366509171
2238+366848813+367357677+368048091+368752669+369190337+369271987+369232605
2228+369343446+369581090+369734049+369788983+369982936+370436004+370946330
2218+371219947+371172658+370982640+370912268+371058969+371307706+371572705
2208+371933706+372419862+372869558+373163148+373397383+373705549+374098176
2198+374549259+375032830+375423471+375570997+375551511+375665462+376100770
2188+376730554+377307317+377727785+378033891+378287423+378546652+378860626
2178+379197496+379480069+379747241+380130463+380630259+381106335+381514588
2168+381933070+382346757+382628131+382713978+382665302+382642370+382862628
2158+383394274+384001127+384405482+384634321+384905803+385313419+385791931
2148+386232821+386526186+386633055+386662995+386763344+386946242+387145067
2138+387397363+387816482+388361581+388801910+389002158+389087406+389211512
2128+389348545+389444248+389568915+389794832+390105358+390490866+390954952
2118+391414390+391759803+391984933+392136880+392220367+392237529+392233482
2108+392260911+392364632+392584028+392910293+393277814+393626338+393934466
2098+394209695+394493580+394842028+395271939+395756222+396253132+396695222
2088+397004362+397187748+397374357+397686495+398072527+398308823+398212896
2078+397856279+397512327+397364877+397320473+397160881+396863020+396691138
2068+396902327+397388596+397723105+397594390+397092983+396545635+396201234
2058+396079077+395998888+395757983+395354152+395007165+394923341+395075813
2048+395227573+395166569+394932484+394755768+394719608+394611016+394223485
2038+393648858+393113464+392689623+392340875+392122753+392151943+392426498
2028+392814741+393183948+393427026+393460301+393361526+393374903+393544537
2018+393481248+392786600+391613402+390515035+389843582+389526085+389301631
2008+388983347+388535787+388023176+387537769+387179391+386989147+386804487
1998+386399982+385980038+386151433+387018712+387722354+387404857+386229186
1988+384873690+383630195+382510920+381640530+381118251+380842723+380680658
1978+380610736+380635355+380646109+380469730+380176928+380223954+380893646
1968+381630188+381480151+380324753+379046485+378369936+378196705+378130268
1958+378066903+378041722+377889026+377381586+376607835+376003456+375955755
1948+376550241+377808274+379720899+381577353+381917557+380147175+377505204
1938+375523408+374562861+374227678+374199275+374321807+374439992+374449435
1928+374512574+375184103+376808121+378684884+379781865+380276789+380834629
1918+380724912+378772343+375818759+373970211+374088996+375325820+376289139
1908+376191563+375237162+374135723+373319629+372778090+372493569+372698613
1898+373580469+374772140+375505234+375747188+376499804+378039399+378832335
1888+377579023+375293032+373721662+373227674+373186605+373147110+373011463
1878+372819084+372706819+372940342+374167311+377411488+382901973+388417939
1868+390053947+386634479+381290508+377369257+375682475+375327132+375310494
1858+375192234+374949905+374722228+374644549+374931057+375949684+378081067
1848+381696213+386750941+391339297+391846026+387584009+382487425+379854372
1838+379591622+379907957+380037796+381350350+385412156+390988713+394278793
1828+393812646+391968370+390157407+387488381+384116277+381825077+381358968
1818+381729974+381991976+382562031+384434972+387467322+389936512+390288145
1808+389008041+387980196+388742667+391719896+395981314+399395161+400200800
1798+399072906+398774145+401645667+407236351+411279833+409468495+403744824
1788+399433120+398779354+400531599+402901676+405267444+407115355+407685672
1778+407698862+409614222+415406091+424172303+431098062+431480572+426619984
1768+420668711+416253848+415205318+418223091+422935367+425572653+425965730
1758+426469798+427313358+428109367+430970846+437998790+447076428+452630615
1748+452316716+449303252+447278513+447673351+450164536+453202094+455032618
1738+456608373+461607081+471202764+479295200+478743731+472853724+467461789
1728+464059820+462984723+464579738+468236252+473812359+483146753+497676319
1718+513832563+522579290+520277749+513430343+508499459+508086185+512812699
1708+521943510+532800974+542078111+550185911+561121203+575825648+588121946
1698+592942851+592537146+588906563+584310824+583411806+588298137+597111114
1688+608163992+623162402+642269682+655781108+655023507+648396659+645749068
1678+649669419+658593274+668397262+675940515+683119020+692284866+699984975
1668+701247093+699231797+700422493+705720449+710753781+712411449+713404221
1658+718418891+730519362+750654188+772560895+779487890+773034086+770900754
1648+776167084+779580220+773099362+762128659+754850855+753621262+758301987
1638+767579649+775950948+773789663+760641037+747378123+740138765+737847603
1628+736991602+735650570+733970644+730463679+722939387+714341460+709990110
1618+709991834+708187878+700108931+689773447+682051604+677450395+674107106
1608+670271141+665819593+661741861+658469843+655445138+652145316+648930405
1598+646634446+645480547+644677681+643228655+640894026+638133795+635463945
1588+633124145+631177272+629674287+628566627+627890640+628626394+632586203
1578+639860485+645535030+643284712+636777998+634641969+638300094+641722897
1568+639684443+635101295+632925471+635226600+644070191+662122797+684196252
1558+689577845+674787889+659017678+649806190+646053937+645329461+645643023
1548+647327146+652997794+664336768+680349795+698545992+712877145+712028414
1538+698159210+687466921+686370128+690369619+692149669+691249452+693147537
1528+700009557+709034885+717660017+726920892+736851983+743082532+743442934
1518+741375852+738971226+735953490+733742592+735291367+742848709+757214562
1508+774809789+781681476+768230755+749960889+740498942+740748503+747279123
1498+754853028+757563422+754394975+751359553+754053684+762100330+769120105
1488+768804520+762533652+756043500+752761215+752775079+754670841+757907786
1478+763492474+772108089+782328461+790240134+790922941+784188100+776694834
1468+774345142+777636645+782199333+783184461+782217395+785484541+796134787
1458+809433374+812611039+802071184+789624701+782840472+781910353+784132642
1448+785388839+782670051+776993483+771732848+769237391+770400509+775322400
1438+782408949+786990224+785306851+780582735+777890402+777815084+777813136
1428+776742798+776142503+777024209+778807556+781668061+786560275+791354389
1418+790656743+783847408+776401207+771983533+770265087+769409910+768588084
1408+768591306+769991544+771414490+771304998+770914844+772665890+776568255
1398+780579512+783391004+784436461+782931603+779990984+778804933+780745736
1388+783383210+783229577+780667795+779720739+783052411+789864519+797768548
1378+805434707+812911186+819598363+823617564+824485481+824417507+825467910
1368+827863019+831579000+836988621+842847377+845650550+843239104+837590939
1358+832013445+827902888+824823999+822087000+819664163+817868600+816807705
1348+816376032+816415303+816857242+818036773+820534478+824135346+827149785
1338+827673862+825791665+823529656+822639706+823288564+824761346+826587037
1328+828540205+830240590+831554568+833025178+835335525+838613988+842360546
1318+845800586+848390846+850050013+850953303+851514252+852540449+854574331
1308+856937063+858531929+859675261+861665451+864542069+866879546+867879363
1298+868157926+868328197+868174339+867353636+865835588+863531386+860240333
1288+856121607+851834109+848025199+844832771+841959375+839124201+836362321
1278+833942782+832119490+831004411+830587352+830742709+831244603+831926436
1268+832828827+834052273+835442319+836578982+837188419+837464060+837905775
1258+838872617+840345325+842119679+844146441+846508349+848954419+850730646
1248+851345555+851413903+852131709+853923899+856156680+858106401+859735066
1238+861580016+864090462+866878647+868891170+869759387+870334575+871444558
1228+873063405+874914276+876838891+878602079+880173636+881860157+883730513
1218+885571866+887553213+890107950+893273849+896677467+899895825+902674792
1208+905168226+907997854+911485858+914830571+916739448+916969973+916757284
1198+917662748+920301046+924131166+927968480+930618619+931792154+932648679
1188+934711265+938165844+941929939+945155492+947730988+949888826+952137795
1178+954883862+957692357+959695662+960958979+962446600+964395422+965713972
1168+965775275+965783669+967048559+969081542+970493471+970943430+971362212
1158+972587757+974573676+977030162+980192838+984166848+987813057+989521462
1148+989266430+988817670+989659207+991789316+994471157+996921348+998504522
1138+999329646+1000428912+1002825369+1006656088+1011079233+1014400489
1130+1014815824+1012468979+1009925558+1009482195+1011244782+1014218527
1121+1018139252+1022882554+1026868855+1027978389+1026145504+1023892563
1113+1023655743+1025170269+1026061343+1024902797+1023130691+1023375081
1104+1026035712+1028443711+1028260325+1026646349+1026655492+1029498161
1095+1033518111+1036743739+1039233800+1041402430+1041654539+1039034826
1087+1036673817+1038546722+1044152844+1049421872+1051689427+1051337868
1078+1050037605+1049957640+1052891140+1058049927+1061770629+1061052899
1070+1057263248+1054604191+1055242556+1057795570+1060059153+1061503682
1061+1063192301+1065978387+1068837169+1069687399+1068161781+1066016908
1053+1064361339+1062826203+1061607628+1061180602+1060756424+1060125552
1044+1061106783+1064424291+1067945495+1069799589+1070201659+1069693619
1035+1068203075+1066519177+1066755248+1069797715+1073207778+1073741823
1027+1071674891+1069565241+1068043596+1066556124+1066024327+1066988621
1018+1067646547+1066828692+1066004617+1066042838+1065365652+1063135943
1010+1061341730+1062273872+1065328106+1067287194+1066013011+1062595453
1001+1059065256+1056096234+1053919060+1053182669+1053757333+1054414659
993+1054363248+1053303177+1050408573+1045588680+1041177151+1039670644
984+1040170440+1039499624+1036787881+1034184805+1033119489+1032551569
975+1031032996+1028708185+1026711625+1025377187+1023563113+1019885802
967+1014292121+1008056551+1002366717+997555442+993481458+989783538+985860264
957+981445813+977443773+975260230+974735328+973884723+971188119+967431893
947+964919724+965071859+966860152+967619701+965986765+963635723+962791114
937+962945047+961738612+958649606+955932991+955536317+956971778+958656875
927+959982844+961339165+962815995+963774593+963730451+963092685+962466985
917+961726621+960587710+959479901+958841235+958218308+956958888+955093553
907+953053301+951271902+950119801+949672690+949839963+950601236+951457012
897+951336503+949824825+947748375+946320483+946321083+947482252+948353991
887+947677329+945830880+943888203+941896514+939424739+937198178+936823762
877+938820473+941676256+943142969+942349920+940493803+939598457+940432650
867+941453975+940417661+937053238+933039658+929788399+928164756+929351406
857+933365361+937571470+939236857+938861841+938805334+939956985+941410508
847+942068808+941484627+939848992+937943113+936887839+937186337+937858053
837+937500874+936469806+936618043+938684676+940951406+940957701+938462244
827+935877155+935164071+935681854+936164862+937094532+939230711+941620948
817+943098153+944036441+945150920+946418209+948003332+950545478+954101531
807+957416941+958374114+956043457+951934924+948140253+945352443+943652807
797+943518659+944748701+946201698+947580278+949567395+952151360+954463506
787+955809560+956138111+956086850+956581699+957822008+959017052+959448799
777+959132389+958151833+956480301+954839346+954519938+955768641+957000032
767+956167638+953078931+949779784+948237829+948424212+948784839+947992090
757+946438144+946267873+949212764+954147321+957732151+957777267+955026329
747+951455288+948379321+946517659+946392429+948064710+950839780+953526792
737+955266372+956245204+957522236+959669732+962059594+963672370+964041091
727+963211770+961392825+958996517+956611602+954715390+952965168+950491819
717+947888369+947252027+949352608+952191754+953121424+951752063+949902241
707+948921610+948058640+946009769+943087211+940641891+939044927+937126008
697+933358616+927433386+920930269+916329434+914750382+914802542+914404369
687+913271604+912352951+911632897+910049348+907258540+904248673+902111070
677+901228464+901341029+901461912+899553335+893149668+882250986+873147566
667+873590106+879635620+883177957+883591494+884049621+885451433+886109434
657+885344039+884202130+883419574+882561325+880446504+876056110+869630559
647+862720501+857450799+856005370+859271842+865101745+869453618+870324383
637+869414948+869160741+869410676+868430719+866016051+863408929+861738521
627+862050060+863803205+862888599+856132474+846967451+840829307+838172498
617+836521800+835435799+836020730+838111045+839940407+839507235+836475260
607+833148159+831886267+832274472+831790564+828627888+824554878
##END=
