##TITLE=<SNM>
##JCAMP-DX=4.24
##DATA TYPE=INFRARED SPECTRUM
##DATE=2/5/2025
##SAMPLING PROCEDURE=Instrument type and / or accessory
##ORIGIN=Admin
##XUNITS=1/CM
##YUNITS=ABSORBANCE
##RESOLUTION=4
##FIRSTX=4497.3318
##LASTX=599.83466
##DELTAX=-1.4281778
##MAXY=1.8633388
##MINY=0.39555654
##XFACTOR=1
##YFACTOR=1.7353695e-09
##NPOINTS=2730
##FIRSTY=0.41665938
##XYDATA=(X++(Y..Y))
4497+240098366+241551705+242807275+243497168+243661999+243548053+243337111
4487+242953233+242290955+241646675+241520158+241969467+242398083+242135638
4477+241278973+240688464+240964458+241728901+242026415+241197211+239598085
4467+238537950+238929745+240104136+240704761+240487637+240305461+240676906
4457+241189002+241203822+240810292+240746424+241283198+241725432+241513821
4447+241213766+241508669+241861189+241321564+240233985+239915743+240793754
4437+241925829+242311580+241883789+241242480+240968735+241145862+241290926
4427+240893669+240038327+239317849+239244071+239791562+240353409+240213926
4417+239298030+238344216+238156544+238790984+239519173+239521543+238582824
4407+237158525+236023581+235891380+236920243+238442843+239350890+238870153
4397+237224334+235611813+235154483+235680833+236064420+235952878+236219342
4387+237365723+238528934+238585400+237575256+236495646+236000827+235769088
4377+235348046+235067397+235316653+235593935+235284160+234778831+234939403
4367+235856690+236652405+236326590+234687605+232539238+231012929+230733207
4357+231426036+232147511+232125272+231474672+230837055+230647597+231171405
4347+232506214+233971884+234383841+233505263+232390155+231963875+232035265
4337+231865197+231175407+230425166+230282249+230869925+231601446+231890613
4327+231780102+231566670+231181503+230494736+230017228+230511978+231785512
4317+232723733+232757513+232380315+232055221+231639589+231116742+230938035
4307+231360709+232133841+232922979+233503031+233618591+233181423+232361029
4297+231157907+229524023+228102300+227937932+229145296+230660409+231500707
4287+231521332+230991118+230218329+229575492+229416070+229903093+230917684
4277+232046394+232816178+233030211+232684680+231762001+230525047+229643344
4267+229465496+229612054+229757153+230167375+230912962+231294917+230737930
4257+229669293+228967018+229069802+229880699+230969926+231848538+232453130
4247+233063853+233501657+233145256+232057368+231267834+231597926+232861052
4237+234272076+235139405+235202380+234618276+233734667+232911130+232403053
4227+232162487+231901828+231556744+231387997+231507284+231744759+232075520
4217+232682104+233515293+234148358+234152635+233470401+232358298+231063058
4207+229760330+228858190+228948522+230115288+231622844+232653751+233002544
4197+232842092+232359123+231845361+231647986+231831416+232094119+232011995
4187+231397151+230623125+230440915+231137368+232048987+232250295+231642439
4177+231074495+231382450+232473842+233444967+233588366+233068902+232497129
4167+232172842+232016632+231930765+231832000+231560986+231183753+231142709
4157+231650906+232201694+232132364+231481782+230857989+230632227+230743631
4147+231145491+231943027+233033199+233939426+234166099+233620343+232666339
4137+231888862+231691092+231877493+231809159+231280285+230963641+231607045
4127+233050750+234310837+234461345+233388398+231848246+230752562+230364149
4117+230308730+230245240+230203491+230330506+230642514+231042106+231369742
4107+231431154+231127270+230628878+230330111+230470882+230838772+231027440
4097+230949713+230871728+230958781+231071044+231056584+230951739+230818714
4087+230636675+230390751+230172184+230191126+230582493+231077346+231136732
4077+230681481+230333460+230642411+231442077+232124550+232205317+231607148
4067+230709319+230077816+229973350+230171171+230237478+229898903+229247976
4057+228656127+228412281+228548209+229037035+229879806+230868774+231494473
4047+231342161+230572910+229799331+229419660+229288952+229133034+229037859
4037+229307139+229955712+230622713+231029707+231288013+231586935+231872272
4027+232056354+232221289+232430582+232616570+232719405+232748308+232757135
4017+232764932+232563023+231868477+230859535+230131500+230008469+230365300
4007+231016380+231754084+232261543+232469960+232697011+233112523+233414295
3997+233313521+233037303+232969296+232969365+232576762+231863462+231481455
3987+231781253+232449953+233017966+233173987+232717739+231838286+231359953
3977+232060236+233689294+235120308+235497506+234895095+233945282+233246150
3967+233079808+233381769+233932780+234524148+234891918+234780256+234259986
3957+233734134+233540915+233758400+234423288+235685230+237427633+238888632
3947+239368081+239281595+239513867+239931027+239635060+238507278+237366770
3937+236952580+237603163+239208041+240920683+241646400+241288384+240863255
3927+241166951+241884888+242164146+241942556+242130881+243205288+244327574
3917+244224190+242613181+240420575+238755211+238068822+238383388+240062164
3907+243761159+249247259+254678422+257970284+258763287+257551389+254216094
3897+249481797+245894293+245579967+247820298+249233572+247877675+246528149
3887+248270191+251874869+253885608+254092308+254626420+254791045+252698165
3878+249973285+249480080+251436946+254537702+258013802+260497773+260040598
3868+257870318+257255576+258503658+258753034+256363036+253237206+252109356
3858+254579829+261383495+271304594+277583319+273429502+263691249+255571940
3848+251608303+251722025+254643920+258751660+263129385+267594849+271213797
3838+271932026+269367701+265977210+263686063+262056558+260113259+258290982
3828+257632997+258612469+261749033+267356876+273100286+274557043+271879871
3818+269156192+267041090+263691885+259714130+257509829+258425983+262205023
3808+266680602+269364197+271225888+274755088+278793087+279805240+278134724
3798+276506250+274863590+272241286+269832999+269443109+271286596+274555051
3788+278671670+283187521+287431550+291505424+296671755+303464688+310517593
3778+316632036+322730062+330408768+340490216+352966847+366279793+377403154
3768+384693569+388921025+391393044+393719191+397314148+401357196+403323284
3758+402937636+403512192+408376956+418035696+429044030+435377297+436310401
3748+438233384+445322902+454873827+460137840+461212693+464598684+473666656
3738+487779370+503874761+517137320+523780225+525007510+525801887+530153404
3728+539107619+550886905+561691801+568961711+573363066+576174192+577615149
3718+578162433+579268268+582457313+587780403+592345318+591744247+585554171
3708+578005605+573142902+572594484+574929218+576458550+575000007+571784892
3698+568852762+568025928+571257323+579015131+588941261+596777654+598545217
3688+594039790+587661150+583306644+582334214+584773396+589645992+595766068
3678+602302910+606427429+604561909+599974256+598302865+597994154+593164218
3668+584253590+577058110+573819983+572466198+570623107+568705208+568758617
3658+570882323+572582428+572717481+573608372+577507300+583435651+586819581
3648+583654854+575733898+567799513+562691881+560484472+559860697+560035969
3638+561448041+564595664+568939763+573685996+578781022+583255261+583449115
3628+577841015+571336458+568200891+568627240+571388460+574836928+576970113
3618+577617485+578893542+581481585+583623323+584426836+585177591+586368812
3608+586740171+586014145+585837121+587278937+589549958+591866041+594973753
3598+599511465+603854156+605151371+603181574+601545354+603949091+609998069
3588+614139143+611344332+604312275+599093188+597915363+599269182+601049659
3578+602429238+603309482+603269571+602501367+603000497+606691694+612305772
3568+615418704+613345385+608652768+605238887+604239941+604558543+604680406
3558+604111208+603510137+603366086+603189474+602380328+601305612+600723844
3548+600321297+598800827+596081923+594340944+595386259+598185673+600115971
3538+599738773+597503405+594551903+591893312+590175003+589534776+589500979
3528+589323680+588865972+588752902+589230325+589467525+588466861+586108119
3518+582962900+579737790+577212122+576100998+576463496+577331031+577277793
3508+575933694+574461515+573787903+573263254+571984723+570612906+570342320
3498+570875145+570957715+570415617+570276168+571068071+572037480+572068152
3488+571052409+569865379+569087523+568291602+566867062+565192305+564198682
3478+564091966+564281046+564164026+563587925+562784618+561799616+560090787
3468+557301059+554291305+552206377+550782696+549122330+547651250+547700023
3458+549341086+550884844+550725474+548892309+546541707+544829855+544339071
3448+544985859+546137615+546976848+547160742+546890053+546272633+544961678
3438+542675099+540048519+538524167+538966350+540606108+541669420+541026823
3428+539188025+537545829+536703504+535856955+533932977+531002049+528241791
3418+526865543+527297662+528986501+530712504+531347751+530555229+528793093
3408+526854037+525314366+524126099+522973038+522183642+522643685+524294433
3398+525457696+524668712+522471984+520270998+518561584+517344810+516889060
3388+517135087+517541583+517899410+518155981+517661935+515811768+513165610
3378+511065982+510450896+511266053+512541595+513225752+513330441+513768262
3368+514797503+515442916+514931868+513867112+513336349+513695584+514554704
3358+515131664+514752714+513652135+512963788+513438394+514516991+515016602
3348+514420442+513201091+512027936+511037645+510178937+509871910+510513030
3338+511505073+511716822+510926876+509988621+509588204+509381882+508479691
3328+506723600+505004879+504121888+503889737+503606443+502970853+502269969
3318+501877040+501749372+501509734+501093689+501030216+501760466+502927782
3308+503694921+503751215+503745926+504336384+505011302+504654986+503240511
3298+501941955+501500357+501439460+500950050+499988301+499342888+499735542
3288+501050549+502585823+503930953+505270106+506808712+508088307+508202614
3278+507125185+506213376+506451641+506938337+506268915+504563005+502802175
3268+501236641+499618968+498185189+497500930+497631620+497983882+497978627
3258+497550321+496806503+495675218+494307797+493295764+493083637+493549622
3248+494195826+494518035+494368694+493975593+493426386+492460584+491018939
3238+489551260+488502236+487890139+487568445+487561473+487849369+487966801
3228+487319945+485950463+484528397+483666117+483605323+484272581+485225949
3218+485839420+485703028+484719366+483142669+481598705+480555554+479886957
3208+479304192+478687905+477808417+476511201+475188809+474341367+473911927
3198+473562172+473204243+472945061+472779028+472448095+471639671+470424957
3188+469270865+468490811+467955548+467473352+467113499+466858953+466262931
3178+464840830+462688375+460444627+458737171+457774117+457247716+456573142
3168+455464526+454186819+453089537+452255731+451717514+451457095+451092640
3158+450167677+448894538+448078730+448078215+448201348+447546455+446269230
3148+445408564+445426630+445573704+444837821+443032270+440790617+438822434
3138+437441721+436685744+436442946+436307344+435758102+434727213+433616776
3128+432710910+431939443+431195179+430627389+430517273+430758457+430713085
3118+430042701+429276215+428972038+428886755+428530096+427909859+427254004
3108+426570775+425866800+425426987+425528070+425920862+425885965+424967906
3098+423474913+422135176+421428453+421254692+421058158+420314959+419005344
3088+417594406+416628433+416371140+416658555+417083770+417396568+417607252
3078+417719429+417594681+417106405+416317627+415466613+414690406+413852924
3068+412880975+412021614+411430572+410878101+410180343+409450470+408711393
3058+407804771+406801565+406016806+405586507+405377300+405225727+404999449
3048+404560736+403943109+403466614+403403106+403583187+403599743+403278255
3038+402603544+401462916+400000457+398874187+398506743+398409713+397855662
3028+396891063+396091260+395631869+395167498+394460020+393692022+393126534
3018+392678238+391985941+390923555+389843756+389162656+388855491+388535240
3008+387970096+387375722+387120009+387187123+387088925+386379798+385136095
2998+383809993+382726141+381884194+381228443+380890846+380982106+381274502
2988+381377337+381124234+380544801+379650922+378511359+377359396+376455316
2978+375924037+375626971+375156452+374262195+373268263+372676465+372500986
2968+372391557+372178194+371915886+371598005+371125803+370490316+369852012
2958+369403819+369114583+368695139+367954241+367107760+366588331+366554671
2948+366650087+366299439+365295272+364022168+363053893+362632284+362571696
2938+362508257+362151976+361432030+360515447+359635547+358889326+358250404
2928+357696010+357226143+356854750+356617172+356444716+356096610+355458753
2918+354775489+354290063+353837817+353108700+352146402+351307271+350799864
2908+350452135+349983162+349427326+349141902+349343073+349817232+350188488
2898+350284385+350129515+349732395+349026119+348025558+346973751+346222584
2888+345926410+345905836+345827044+345511327+345087451+344793854+344626138
2878+344347584+343863086+343303025+342703464+341941477+341079506+340474416
2868+340394731+340648899+340711547+340287260+339695565+339501573+339747566
2858+339812722+339194649+338157440+337311646+336855141+336590669+336388984
2848+336208354+335915237+335490331+335133328+334897434+334584876+334142453
2838+333771953+333576725+333425942+333181391+332809998+332342811+331879436
2828+331524460+331237972+330853664+330278731+329582621+328886203+328262496
2818+327728676+327232432+326684117+326108393+325673733+325445600+325219391
2808+324753956+324127193+323702699+323664539+323691330+323314510+322563754
2798+321914288+321591632+321333652+320889993+320380387+320064808+319999411
2788+319966507+319649931+318921329+318005159+317286483+316892214+316537273
2778+315902919+315085222+314452173+314106677+313767741+313189854+312468568
2768+311891642+311616661+311552947+311537457+311517913+311438950+311101250
2758+310396829+309580265+309011342+308680478+308231838+307454979+306568175
2748+305955563+305735124+305675875+305473812+304999412+304321404+303607537
2738+303000111+302527153+302140029+301828674+301623897+301466279+301174193
2728+300636010+299967310+299365551+298890155+298500592+298173884+297837730
2718+297348286+296698339+296094005+295684005+295363514+294962410+294505012
2708+294173770+294062623+294030028+293826453+293387019+292928487+292655497
2698+292447321+292025231+291378924+290778162+290372078+290058765+289761870
2688+289558536+289492041+289461437+289341463+289094475+288748086+288330839
2678+287858568+287381300+286991016+286716155+286469767+286189444+285940532
2668+285773674+285582585+285242276+284824788+284535450+284424372+284272919
2658+283859725+283278025+282831120+282638296+282545972+282424040+282301765
2648+282179060+281952216+281580410+281143448+280724553+280372806+280114877
2638+279871890+279494280+279008940+278664818+278623877+278778506+278943681
2628+279038770+279039732+278935953+278766537+278572064+278317897+277960362
2618+277562556+277252317+277046854+276805807+276443275+276118868+276073186
2608+276301731+276535239+276535153+276285365+275902963+275483449+275075957
2598+274732264+274493622+274344247+274254601+274254155+274375400+274563552
2588+274736060+274856308+274881674+274764911+274551153+274335952+274133614
2578+273928872+273791742+273774946+273794902+273780030+273813329+273944912
2568+274005139+273821744+273512450+273355141+273456481+273712916+274005775
2558+274279503+274487937+274585551+274569460+274484262+274364872+274174848
2548+273857242+273465549+273144233+272937087+272732036+272442577+272129573
2538+271872778+271610865+271227399+270779171+270492821+270479151+270573811
2528+270521930+270221892+269774540+269395058+269250354+269303644+269371170
2518+269350355+269291107+269231670+269087893+268778101+268412048+268243285
2508+268374644+268607397+268679903+268555893+268371004+268214227+268088998
2498+268002890+267959579+267897222+267752346+267585438+267526996+267585678
2488+267635928+267587636+267416330+267082375+266622263+266248672+266144858
2478+266214170+266212178+266066925+265910904+265842691+265801972+265675181
2468+265429548+265142717+264943041+264880959+264843143+264667304+264338569
2458+263989810+263747887+263651304+263647045+263615360+263473833+263258461
2448+263055110+262921363+262895946+262949287+262916846+262650709+262232775
2438+261898699+261786574+261847660+261918140+261827120+261551984+261276333
2428+261165014+261131921+260993863+260771879+260651304+260727417+260941639
2418+261173240+261306335+261321602+261351209+261520746+261751540+261845839
2408+261740051+261546231+261378257+261268708+261234155+261315866+261562426
2398+262024924+262743566+263775073+265340727+267907578+272034518+278247125
2388+287134827+299362838+315432607+335490331+359312617+386279711+415411898
2378+445746984+476730506+507815490+537591510+564099625+586392168+604866154
2368+619919185+631509287+639659268+643803296+642468436+635202408+623878838
2358+610942198+596951793+579758879+556838475+530660228+508916962+497946066
2348+499477528+511471069+528342152+542753410+551232194+555467585+557827083
2338+559209376+559894872+560455930+561449003+562338795+561628122+558729755
2328+554816230+551167897+547593204+542910547+536337641+527998168+518498077
2318+508589258+499038127+490211340+481666403+472459120+462015931+450500224
2308+438316263+425751085+413244228+401457249+390748455+380880130+371425583
2298+362232108+353398142+345029508+337141766+329737286+322879299+316598823
2288+310789964+305372420+300486739+296300979+292713406+289484519+286584554
2278+284189662+282350142+280812138+279236420+277554570+275996988+274733741
2268+273643002+272527190+271412890+270510561+269931368+269513727+268956155
2258+268138114+267238894+266484566+265895276+265354311+264789390+264209871
2248+263663995+263207490+262862475+262595565+262343149+262043180+261660830
2238+261210284+260747304+260352743+260119098+260087963+260172628+260204227
2228+260086434+259864587+259645626+259493228+259395923+259317200+259256131
2218+259216014+259135865+258964852+258793564+258767031+258886180+259031949
2208+259130679+259161763+259098084+258961314+258827859+258709757+258550765
2198+258355468+258204256+258171214+258305390+258603041+258937477+259127777
2188+259118812+259003595+258881749+258779207+258678879+258576147+258516727
2178+258556106+258653600+258677677+258549322+258301509+258003343+257725253
2168+257548744+257503836+257525612+257545293+257582095+257678713+257777718
2158+257744264+257550616+257363374+257350751+257471893+257566210+257564149
2148+257488019+257367547+257282470+257359991+257623020+257948165+258234430
2138+258525451+258925817+259452012+260024524+260623225+261373054+262383215
2128+263575243+264811870+266125555+267658287+269427842+271308835+273201335
2118+275076043+276869932+278460230+279754475+280706555+281243278+281295897
2108+280904806+280165367+279082992+277631095+275936726+274258191+272757676
2098+271388572+270033550+268699601+267527374+266624187+265958474+265423005
2088+264927499+264435840+263982752+263623225+263329662+263031857+262771421
2078+262666285+262714199+262788612+262817205+262816330+262796786+262798504
2068+262952790+263320079+263725322+263945863+263992489+264013784+264035698
2058+263991218+263902655+263873134+263975247+264214371+264518684+264771821
2048+264940482+265127536+265425787+265767471+265988785+266032251+266019423
2038+266102542+266306100+266553535+266774626+266943768+267089347+267297936
2028+267645184+268093704+268487217+268686137+268758609+268979906+269507441
2018+270104580+270383494+270287958+270099909+270024741+270038754+270096611
2008+270243342+270494624+270757498+270923205+270995110+271076375+271211685
1998+271354740+271607980+272279772+273416931+274476311+274829191+274442222
1988+273739328+273097333+272741842+272774420+273073788+273367385+273483890
1978+273450917+273396580+273426634+273556053+273773246+274173697+274867986
1968+275674934+276140335+276071280+275816546+275790820+276008786+276285828
1958+276588579+276956899+277333187+277648870+277914938+278188735+278558703
1948+279160582+280179330+281690046+283248624+283910833+283248057+281976585
1938+281015746+280579214+280469235+280582339+280890792+281315183+281743318
1928+282165218+282852432+284064416+285449662+286398102+287029450+287777338
1918+288181704+287447521+286001669+285095511+285279216+286086678+286723780
1908+286770440+286432981+286192741+286242854+286413627+286581394+286928333
1898+287701036+288741216+289527899+289991170+290778299+292083964+292906299
1888+292381615+291135920+290279513+290074771+290198489+290430914+290710636
1878+290988537+291229859+291539050+292446015+294796068+298721786+302573934
1868+303779512+301799136+298788797+296834937+296307711+296494318+296737323
1858+296879244+297053693+297367452+297821656+298496986+299616387+301379450
1848+303981197+307451922+310694686+311424970+309073681+306066057+304560699
1838+304568564+305025962+305495726+306758148+309648924+313357398+315643737
1828+315714973+315012200+314309324+312929813+310880537+309343099+309025184
1818+309534308+310234127+311121618+312672039+314843522+316593705+316939064
1808+316262463+315868710+316747992+319099693+322251162+324792665+325624582
1798+325259028+325501895+327801045+331751391+334541462+333499719+330023877
1788+327607638+327659124+329236335+331094471+332898888+334456797+335329724
1778+335926983+337777700+342090955+348118260+352663220+352971553+350146585
1768+346719138+344104545+343413038+345226934+348195301+350056939+350700876
1758+351471999+352441854+353442175+355839179+360791769+366739732+370216846
1748+369996785+368168978+367084095+367749018+369988748+372574489+374041206
1738+375014427+378138042+384125092+388725797+387519635+383046323+379060120
1728+376372437+375146251+375515068+376907562+379253802+384042797+392373203
1718+401657904+405649603+402128628+395777054+390974183+389210707+390640639
1708+394728441+399826971+403984428+407641863+413241618+420870899+426317191
1698+426902463+424248612+419276410+413523262+410298084+410916535+414211987
1688+419421595+427534172+437722988+443247591+439737677+433266094+429794201
1678+430647379+434616169+439067636+442310984+445671249+450172382+453050828
1668+451502433+448518096+448544234+451742828+454696150+455160761+455169485
1658+458126242+466151097+479768940+494711717+499976864+496347868+495484936
1648+499881997+503829595+502075187+497795249+496287727+499162360+506344238
1638+517361571+529488070+536381021+535716888+533909243+536398916+543651926
1628+553452278+563820488+574580081+585528617+595092181+603070702+612062458
1618+623971712+636431685+644860770+649654504+654476266+660629865+667138337
1608+672922775+677920393+682523296+686516472+689084387+690008045+690280142
1598+691274211+693742932+697420941+701332921+704747557+707630021+710158231
1588+712574745+715311510+718355543+720924282+722698096+724986289+729776383
1578+737464123+745040579+748315354+748927691+752138581+759386543+767540302
1568+773393090+778446763+785928283+796829661+811216773+830184531+851952458
1558+865470042+866117414+863570656+862726889+863052017+863585082+863710654
1548+863592157+864620986+867900638+873272844+879566579+882307465+874994519
1538+862310055+854871330+854294714+855146587+851836434+845548264+841182698
1528+840241179+841098204+842862813+846231768+850199390+851611805+849865950
1518+847055751+843763047+840083115+837582176+837767375+841064957+847253246
1508+853882688+854090487+845345411+836353723+832623645+832872317+834272092
1498+834832291+833698979+831488410+830445774+832346190+836137818+838056164
1488+835748255+831287274+827547922+825251279+823920472+823319744+823888461
1478+826228518+830442888+835833710+840282121+840382414+835585726+830294510
1468+828317499+829535717+831053440+830518314+829404443+831093076+836845984
1458+843513276+844264718+837926264+830850724+826519918+824644780+824129233
1448+823746814+822490540+820374562+818131637+816575927+816843902+819878111
1438+824657970+827608304+826390567+823392353+821435402+820404375+819026169
1428+817422923+816828033+817396132+818134591+818931303+820764606+823099168
1418+823100267+819684394+815192844+811745990+809518591+807772461+806544008
1408+806891256+808820867+810137248+809387523+808639721+810348345+813523239
1398+815271842+814929472+813952988+812956652+811826088+811144163+811282513
1388+811185105+809524018+806999311+805948088+807841086+812163718+817115380
1378+821393430+825397871+830001530+834496240+837273260+838248576+838618767
1368+839187759+840442521+842897504+846129208+848454840+848763138+847920470
1358+847382871+847504872+847585587+846945154+845754551+844762612+844389535
1348+844406090+844561338+845194490+846944879+849967273+853491270+856074710
1338+856732042+856109812+855829198+856658333+857983851+858785233+858671133
1328+858223592+858635206+860720134+864170629+868067359+871920880+875713195
1318+879323334+882541986+885406247+888129685+890775156+893240305+895594238
1308+898230641+901553708+905502302+909395254+912397314+914235082+915193980
1298+915435096+915018192+914603487+915103029+916543472+917985425+918371966
1288+917216741+914923464+912487922+910578781+909172136+908184318+907720703
1278+907586063+907421129+907304624+907533100+908028245+908326514+908107655
1268+907949934+909252096+912629774+916522039+918642139+918932508+919336016
1258+920738883+922034724+922302562+922290678+923121599+924820330+926564743
1248+927430423+926907113+925501774+924672982+925489134+927482013+929244217
1238+929876476+929284540+927712481+925650908+923860539+923081550+923461565
1228+924355135+924700391+923825917+922280167+921488264+922035686+923099686
1218+923745133+923721022+923039441+922017207+921707398+922928981+925173279
1208+927329856+928891817+930026847+931080817+932368553+934141130+936504200
1198+939242270+941678911+943075114+943577610+944429071+946560986+949274670
1188+951183742+952127664+952866605+953393075+953294911+953478667+955593065
1178+959704395+963934290+966527072+967967309+970260929+973801275+976152667
1168+974862046+970761021+967228368+966762212+969154476+972777049+976992175
1158+981982924+986457919+988227473+987571996+987264660+988731687+990499112
1148+990848214+990313776+990512713+991658940+992729946+993559081+994990044
1138+996881118+997764315+997136728+996377454+996877752+998903947+1002094229
1128+1005964443+1009774206+1012385261+1013150305+1013133200+1013860463
1120+1014821834+1014505430+1013379056+1013172356+1014049233+1015050996
1111+1016541860+1019683850+1023850272+1026696054+1027114056+1026789409
1103+1028014427+1030970188+1034059009+1036182337+1038055070+1040937947
1094+1044281622+1046053444+1045457456+1043661042+1042017265+1041219867
1085+1041749359+1043574144+1045445091+1046005839+1046010991+1047267540
1077+1050120054+1053437625+1056220346+1057803672+1057066861+1053445113
1068+1048580624+1045486857+1046564526+1051913170+1057976231+1059764539
1060+1056818327+1053990062+1054810404+1057777568+1059440304+1058342850
1051+1055778507+1054254739+1055295177+1057757922+1058606154+1056520195
1043+1053786865+1053693922+1056923840+1060923748+1062681557+1062106520
1034+1061971743+1064289474+1068160788+1071675030+1073741823+1073703217
1025+1071745853+1069252265+1066972177+1064238572+1060794741+1057363756
1017+1054237360+1051322815+1049483605+1049979369+1052539590+1054796940
1008+1054580898+1052658293+1051539407+1051924574+1052363734+1052050970
1000+1051071670+1049016143+1046964874+1047713638+1050950632+1052339828
991+1049892265+1046962058+1046442663+1046778302+1045563244+1043358170
983+1042180413+1042338409+1042498397+1042159943+1041946579+1042138373
974+1042383541+1042015823+1040518914+1037948389+1035035424+1032686162
965+1031238575+1030568535+1030756069+1032107209+1034187261+1035161409
957+1033214212+1028445413+1022084564+1015022214+1008210321+1003056081
948+1000221908+998979785+998624363+999209154+1000157748+999839146+997419747
938+993856251+990404864+987481664+985390210+984657727+984887370+984233610
928+981138882+976365206+972382334+971121183+972793261+976267042+979961469
918+982499364+983295183+982860557+982253303+982147308+982388767+982134875
908+980732214+978569249+976773454+976317051+977076875+977544611+976076554
898+972736588+969376289+967348102+966219530+965305077+964841530+965215156
888+966226811+967243893+967470308+966347507+964165033+962110467+961227132
878+961331272+961494832+961377366+961321586+961429092+961531446+961947731
868+962830104+963215889+962263723+960407683+958248084+955644723+952620474
858+949919430+948574473+949349271+951819297+954180032+955198488+955912835
848+957296468+957763724+955562565+952025104+950635976+953085876+956927925
838+958023112+955329555+951560665+949374825+949217448+950530737+953102980
828+956586448+959735444+961060893+959966805+956969760+953210555+950202793
818+949285935+951545415+957717561+966587798+974102360+976227818+973698852
808+971140486+970482055+969110924+965383937+961478209+959329464+958270959
798+958336081+961536530+967595743+971908689+970573967+965544269+961870176
788+961647676+963027599+964004770+964523684+964748725+964306886+963502961
778+963110719+963348537+964630983+967583447+971031606+972115389+969367427
768+964640395+961347278+961738421+965271005+968569548+968700066+966774989
758+966335004+969000739+972837156+974727749+973872991+972205859+971800909
748+972325936+971581569+968857307+966174535+965582806+966967538+969432687
738+973517088+979526911+984407131+983941867+978363511+971893371+967402713
728+965102842+965048711+967497648+971192006+973687312+973544222+971232467
718+968280690+966088324+965253968+965836287+967249114+967850185+966466278
708+964389868+963885586+965599842+968279522+969988901+968809290+964023523
698+957658004+953261869+953002412+955983521+958737803+957983063+954317076
688+952080128+954082212+958414667+961245130+961143669+959179230+956040743
678+951518418+946096134+941097898+937750719+935790264+933307667+928872789
668+924506605+924414693+927569460+930880368+934499369+938764435+940921149
658+937222188+928391520+918023276+908376111+901440913+899986457+904468940
648+910657435+913348244+911204857+905899147+899594833+894557304+892547046
638+893118030+895802862+900737213+905669503+906982724+904490853+901563738
628+899751799+896751730+890323150+881510960+873374168+869937756+875124900
618+887621419+897437364+895292397+886433770+880594995+879441419+880410964
608+881787796+883813648+886088377+886028201+882996877+880674886+882610955
##END=
