##TITLE=<SNM>
##JCAMP-DX=4.24
##DATA TYPE=INFRARED SPECTRUM
##DATE=2/5/2025
##SAMPLING PROCEDURE=Instrument type and / or accessory
##ORIGIN=Admin
##XUNITS=1/CM
##YUNITS=ABSORBANCE
##RESOLUTION=4
##FIRSTX=4497.3318
##LASTX=599.83466
##DELTAX=-1.4281778
##MAXY=1.692413
##MINY=0.30135918
##XFACTOR=1
##YFACTOR=1.5761824e-09
##NPOINTS=2730
##FIRSTY=0.3088381
##XYDATA=(X++(Y..Y))
4497+195940583+196629417+197421980+197870684+197807626+197402845+196817343
4487+196040473+195181789+194656641+194719774+195091447+195419083+195717507
4477+196091279+196533478+197174872+198249674+199642941+200762630+201050012
4467+200613371+200187092+200240431+200372636+199997389+199221673+198491827
4457+197927483+197571390+197637889+197985228+198062145+197797302+197789569
4447+198317761+198864767+198763024+197814168+196420617+195464803+195701152
4437+196982238+198325570+198770360+198118434+197101226+196773722+197419352
4427+198250903+198378002+197645434+196491162+195479551+194932828+194733085
4417+194636598+194731213+195208071+195934551+196766991+197860076+199104595
4407+199743304+199025276+196988875+194543231+192953359+192863130+193584051
4397+193880187+193559282+193526307+194279787+195234693+195554143+195048866
4387+194260898+193940390+194212834+194292720+193463948+192095639+191195622
4377+191337432+192379466+193672181+194236185+193501027+192206874+191728542
4367+192369161+193180519+193444341+193438593+193530693+193393705+192640735
4357+191727143+191561207+192309431+193149944+193354320+193108101+192948953
4347+192941787+192836640+192666866+192691333+192881074+192999324+193194265
4337+193889055+194951037+195639966+195572275+195062688+194460339+193986052
4327+194099462+195058982+196227472+196570708+195768105+194400779+193186891
4317+192379315+191913064+191799258+192084729+192597247+193089855+193530655
4307+193990080+194459544+194947236+195449847+195855724+196111832+196195026
4297+195781416+194532151+192917642+192162365+193107969+195404657+197799306
4287+199034711+198618964+197009560+195272434+194436382+194768273+195668668
4277+196549285+197491164+198634639+199541973+199762326+199492737+199172777
4267+198880631+198465527+197951855+197529774+197219684+196879304+196628282
4257+196850639+197691928+198967607+200369289+201354845+201374925+200584083
4247+199696791+199128306+198980521+199364692+199969008+200061090+199509584
4237+198944332+198717531+198594195+198389025+198196996+198081564+197934762
4227+197640593+197275330+197046582+196987419+196990180+197158441+197729196
4217+198647988+199601438+200427771+201215323+202011838+202500910+202071115
4207+200586957+198964790+198338390+198798211+199554604+200066554+200377835
4197+200580755+200564135+200310031+200099133+200313284+201050371+201918244
4187+202328243+202109479+201717310+201663328+201911910+202123603+202244557
4177+202423085+202576315+202559752+202633512+203203245+204006737+204109766
4167+203142229+202104808+202323668+203844469+205488531+206332732+206395506
4157+205998383+205319872+204599954+204160137+204141966+204461548+204961832
4147+205497267+205967279+206273493+206174605+205402500+204155523+203238376
4137+203350727+204328379+205371548+205975675+206379359+207087989+208157913
4127+209054167+209207529+208577744+207551593+206527218+205850618+205867332
4117+206672242+207957848+209273423+210252966+210580168+210087201+209019357
4107+207990275+207554145+207879683+208802502+209984568+210951765+211233739
4097+210729408+209873541+209257597+209119153+209205714+209113538+208815114
4087+208743132+209261719+210273860+211485101+212698024+213602844+213745012
4077+213186945+212777116+213195983+214139261+214936192+215437384+215686156
4067+215367425+214378881+213398184+213183617+213713171+214376688+214663105
4057+214507474+214186247+213937968+213719279+213437229+213263333+213506886
4047+214318735+215600351+216970873+217836420+217808304+217113325+216400024
4037+216042343+215811572+215457219+215337210+215924792+216903769+217523192
4027+217732635+218120795+218834815+219422114+219655759+219755895+219909635
4017+220130669+220415611+220674933+220743985+220656177+220637363+220757504
4007+220863729+220895626+221093876+221773143+222836410+223703981+223968635
3997+223877442+223813382+223669077+223227804+222773447+222749094+223098739
3987+223409282+223529537+223708935+224165712+224746526+225161819+225406941
3977+225663219+225907850+225979624+225930615+225932109+225951622+225889377
3967+225966313+226624743+227938257+229382860+230437505+231126094+231521061
3957+231172324+229833643+228449168+228564431+230721370+233723228+235615778
3947+235733026+235336830+235558449+235724480+234645953+232764824+231670207
3937+232192311+234167394+237172429+240429752+242398066+241815513+239454539
3927+237572029+237421711+238165756+238571955+239012150+240609226+243009794
3917+244084936+242191894+238218037+234582801+232892604+233280991+235608518
3907+240436578+248082201+256768573+262920792+264451445+261936805+256565804
3897+250008596+245231190+244775056+248216410+251588825+251364105+249685366
3887+250770188+254451521+256959505+257316940+257715387+257554329+254745558
3878+251508013+251676955+255471339+260623310+265652154+269018727+268570704
3868+265777041+264619876+265449518+264791258+260959720+256528083+254721451
3858+257422843+266002650+279839821+290109542+285687453+272297530+260663906
3848+254704925+254390562+258357707+264862446+272313942+279364401+284113369
3838+284187148+279719548+274156764+270157475+267619277+265480943+263768661
3828+263137458+263965719+267348950+274729957+283913550+288310907+286431158
3818+283629516+281156701+275762764+268160251+263051200+263375698+268823654
3808+275943240+280548717+283339809+287831573+292713180+292957584+288868426
3798+284619610+280606197+275567729+271010525+269398511+270976623+274237236
3788+277858442+281118998+283511946+285577901+288963703+293887986+297686756
3778+298068204+296575462+296507583+299808243+306238239+313538168+319332820
3768+323758255+328024751+331978244+335885527+341742708+350548539+360105923
3758+367553032+373764055+382446418+396440090+414777704+430707244+438742162
3748+443398350+450603665+459024077+462413888+461119793+462046167+469385766
3738+483192174+499862942+513285179+519343615+519200709+517146893+517069295
3728+520821684+527918241+536018316+542699692+547167443+550334822+553856685
3718+558930662+566196104+576486396+590176747+604759212+614830361+618046219
3708+617445212+617317206+620621628+627314539+634093480+638046217+640278410
3698+643401241+648134195+654101457+661452778+669907415+676305777+675678942
3688+668443791+661227623+658328283+659781016+663919808+669174014+675875131
3678+685003116+693768295+697047457+696568557+697301428+697656821+693417062
3668+686494042+681856687+680978831+682833395+686166784+690460167+696697736
3658+705945673+715506800+720724175+723133497+729250132+741461317+751813778
3648+748895909+734945044+721419759+715211383+716255554+719971110+721957727
3638+722536082+725312974+731890660+740014407+746420938+748900068+745667723
3628+737624825+730389296+728487084+732306483+739659392+746125445+746699868
3618+742235255+740251361+744924490+751989017+754685361+752665542+750431685
3608+749741319+749438717+749600418+751118496+753066163+753399850+751921251
3598+749979786+748173853+746714540+746631875+749190645+754175679+758918692
3588+759820750+756666305+752683996+749659108+747477210+746338954+746345836
3578+746666741+746191245+744135501+741246296+740552602+744876010+753481380
3568+762105053+766441395+765712910+762228182+758502718+755856215+754466180
3558+753912935+753463985+752614642+751609119+750871710+750526452+751287609
3548+754106627+757827554+759769775+759223033+757788603+756887225+757161844
3538+758914759+761274845+762365151+761886932+761474512+761798443+761537740
3528+760227800+759584780+760335726+761197247+761745727+762686963+763470961
3518+762946909+761084177+757909917+753367933+749303034+748408614+750953695
3508+754753278+757770981+759520795+760838904+762399336+762842386+759828314
3498+753644140+748065851+746758180+749537870+753190879+755447955+755984561
3488+754952341+752800847+751042486+751556025+754534022+758175535+760912115
3478+762802755+763935340+763696344+762334671+761374300+761434881+761147405
3468+759099149+756311442+756091580+760008317+765304953+767581617+765775307
3458+762883228+761145288+759310539+755890173+752890168+753913918+759274387
3448+764445778+764392911+759822793+755969133+755706918+757600281+759393734
3438+760700271+761835502+761819468+759333834+755443190+753149887+753737999
3428+755492653+756410821+756526689+757186349+759341473+762055590+763018230
3418+761378990+758630686+756397208+754913466+754112527+754407717+756008915
3408+758597711+761422780+763600064+765126689+767166627+770226154+772772369
3398+772788403+770050764+765985336+762351083+760672968+761428604+763896692
3388+767549323+771802091+774159152+772293243+767895035+764520804+762978297
3378+761740131+760865602+762089246+764903500+766256475+765159438+764728867
3368+767717301+772115735+773635478+771640844+769293238+768873936+770221540
3358+772503575+774439594+773722379+769507275+764778028+763744899+767163374
3348+771463715+773015828+771947001+770525882+770222297+771491547+773675790
3338+774495259+772545550+770229179+771029362+774706952+777855119+778429466
3328+777411464+776100692+773876365+769850038+765910763+765589706+769470669
3318+773740682+774626631+772688872+770670944+769525275+768891785+769532309
3308+772623602+776957750+779025671+776990498+773020290+770379838+770201574
3298+771533825+772625568+772224872+770813056+769930283+770051596+770568614
3288+771283712+772107794+772387102+772304436+772920834+773866457+773716101
3278+772836203+773117930+775102732+777741369+780388477+782952769+784476066
3268+783626042+780844234+778253471+777192813+777180485+776907984+775340821
3258+772824782+771180777+771707173+773491324+775036327+776806411+779960705
3248+783302717+783932955+781057364+776954422+773847247+771998128+771407747
3238+773351254+778531796+784566522+787103888+784113110+778123234+773251723
3228+771183802+771035262+771947228+774404954+778850281+784154783+788191471
3218+789358241+787464046+783494594+779243036+776988986+777666645+779201892
3208+778622629+776298696+775573312+777699999+779761264+778929845+776897471
3198+777631325+781992171+786809605+788667346+786917759+783398996+780749846
3188+780332586+780783123+779675649+776901480+774389450+772938078+771835369
3178+770952974+770897990+771628743+772634644+773903668+775370090+776086927
3168+775337493+773606057+771879840+771160659+772375908+775578153+778911013
3158+779810652+778089048+776201660+775959109+776493750+775585413+772471129
3148+769177294+768160805+768846935+768055374+764584108+761348434+761518076
3138+764381491+766355855+765157850+761981547+759960896+761302980+765472326
3128+769313431+769776373+767277654+765183943+766045765+769344970+772361387
3118+772484515+769460535+765696120+763683637+763842766+765056730+766105666
3108+766071102+764435492+761796401+759665176+758846766+758869985+759469593
3098+761334669+764411290+766743241+766681525+765417115+765405695+767000615
3088+768251336+767489801+764686589+760903645+757947959+757620852+759792389
3078+762038498+762513994+761998110+761815687+761634171+760452653+758242469
3068+755854778+754418230+754927912+757279981+759635907+759672059+756829216
3058+752810830+749620914+747892201+747370721+747691096+748156231+748129911
3048+748079238+748788587+749718554+749893415+749383355+748576592+747452630
3038+746573336+746990142+748251754+748463296+747131876+745899307+745841373
3028+746289566+746607068+746891594+746784575+745617201+743663862+741546856
3018+739024465+735932189+733386200+732604093+733088892+733232743+732637295
3008+732507058+733446479+734390362+734292192+733402461+732260877+730954188
2998+729912665+729854807+730355791+729947229+728130783+726062333+724964010
2988+724712913+724440790+723892461+723117614+721552644+719100060+717362045
2978+718003704+720444640+722447896+722644765+721517173+720374530+720216989
2968+721013995+721721529+721590914+721166847+721122375+720851614+719376948
2958+716890255+714335342+712178100+710355074+708964662+708359457+708737389
2948+709688079+710079851+708904535+706499372+704442569+703934173+704591261
2938+705050421+704608127+703980989+704275423+705355444+705689357+704271944
2928+702199410+701351277+701803025+701670518+699723683+696952691+694936426
2918+693849146+692718150+690859804+688534585+686585027+685603026+685150143
2908+684200437+682699526+681816981+682258443+683346480+684148175+684411222
2898+683993584+682497287+680071024+677811831+676733323+676581682+676162985
2888+674945088+673658291+672987211+672609583+671961495+671076529+670280733
2878+669584014+668549751+666720977+664200401+661682018+659958599+659514188
2868+660179822+660903088+660561232+659312024+658284493+658013429+658136784
2858+658296367+658400587+658312325+657929251+657282978+656225421+654411925
2848+651895508+649316544+647250514+645655670+644114675+642373483+640576096
2838+639306846+639285744+640489649+641774480+641879457+640600903+638531697
2828+636142493+633590491+631001204+628637790+626868803+625965081+626009855
2818+626921783+628167626+628606895+627362111+624924162+622715302+621536847
2808+620984812+620301820+619240141+617948541+616567545+615235331+614008888
2798+612606110+610713314+608620624+607016628+606130451+605598988+605102201
2788+604577809+603866947+602737615+601375867+600334495+599790098+599196125
2778+597913488+596044629+594383229+593475460+592941425+592051164+590840415
2768+590043446+589874977+589579597+588419446+586511788+584430859+582517189
2758+580859040+579539192+578604725+577997176+577562105+576986019+575940714
2748+574573558+573522429+573065160+572704586+572005788+571254727+570780744
2738+570172174+568730369+566414868+563862376+561699424+560301826+559968971
2728+560646707+561477482+561294605+559736064+557444462+555297166+553858690
2718+553231779+552993123+552459088+551186056+549229919+547179923+545852965
2708+545472576+545287808+544461948+543098309+541946892+541388844+541082460
2698+540439364+539238825+537763441+536464845+535624804+535214238+534869131
2688+534148550+533048525+532110844+531828435+532041528+532007191+531084106
2678+529397407+527656669+526314320+525293709+524512056+524031984+523625350
2668+522853983+521714062+520682674+520023808+519418188+518391375+516983378
2658+515851172+515506065+515582490+515260905+514286013+513062519+511934851
2648+510964837+510195550+509583917+508865378+507880427+506849265+506055019
2638+505394414+504409728+502766744+500711907+498999796+498269421+498518022
2628+499179459+499576638+499280427+498214550+496570998+494675442+492978797
2618+492028901+492156946+493121816+494166592+494516805+493894545+492594286
2608+491127750+489862848+488914390+488191767+487554948+486975080+486435827
2598+485768680+484917861+484221483+483944860+483676292+482733128+481136694
2588+479695231+479072328+479133893+479305728+479275437+479101068+478834164
2578+478393459+477763182+477033185+476258452+475453921+474678205+474024029
2568+473519112+473026523+472288244+471196274+469992559+469074466+468655353
2558+468704930+469123324+469766496+470275988+470198050+469473196+468527838
2548+467682276+466821588+465867003+465148843+464986121+465174633+465153872
2538+464569353+463557893+462545487+461847218+461448223+461131138+460782929
2528+460505777+460361926+460131665+459532360+458627049+457798239+457322705
2518+457063062+456606058+455826484+455210616+455290710+455880258+456288291
2508+456180478+455822930+455572059+455444166+455150829+454466514+453551219
2498+452815096+452497670+452515973+452619475+452561239+452204371+451540665
2488+450655434+449807830+449385276+449420143+449375785+448860884+448252087
2478+448131682+448444759+448616216+448236280+447383760+446487676+445968049
2468+445890262+446013012+446159170+446328207+446490021+446531959+446366703
2458+445945889+445294436+444586750+444023446+443643964+443416086+443371312
2448+443446754+443371009+442961123+442400504+442007295+441862498+441839430
2438+441838712+441802938+441609699+441140178+440450039+439811745+439565111
2428+439837763+440353041+440609546+440320671+439663999+439148380+439213348
2418+439790228+440299796+440299456+440003850+439914794+440152163+440441530
2408+440569007+440575663+440552255+440422584+440059250+439581787+439283647
2398+439173717+438917552+438380946+437873117+437696933+437786594+437858520
2388+437626066+436880792+435636235+434104845+432314833+429953537+426849538
2378+423365679+419977608+416680521+413236255+409833474+406919235+404410079
2368+401707457+398669409+396007515+394490722+394220414+394869372+396274381
2358+398685556+402572986+408164472+415102315+422404590+428748573+432982660
2348+434474608+433360516+430877718+428843642+427958412+427359182+426110995
2338+424136895+421692253+418793745+415539315+412566235+410724226+410276978
2328+410655817+411064795+411203503+411354729+411911378+413055193+414790902
2318+416864041+418700870+419897400+420688886+421580016+422742928+424058011
2308+425379145+426537746+427419423+428100486+428658761+428997401+429103626
2298+429250465+429707621+430443706+431248918+431996991+432707702+433442350
2288+434197834+434885439+435410550+435767380+436027478+436241515+436372887
2278+436346567+436176888+436012389+436020557+436241704+436561626+436790488
2268+436805954+436714591+436825618+437327397+438044839+438665548+439093887
2258+439408137+439640893+439800628+439939487+440034859+439965391+439725563
2248+439517160+439540908+439811708+440229610+440714939+441180943+441483243
2238+441590035+441743113+442189491+442773027+443095256+443106260+443219594
2228+443740697+444427848+444798859+444761421+444698836+444925013+445357815
2218+445833614+446383456+446998303+447474518+447723535+447941808+448310361
2208+448772925+449207618+449593717+449920559+450125332+450239498+450462196
2198+450945444+451583926+452121705+452404114+452475132+452509355+452645871
2188+452830261+452930548+453041727+453426503+454107566+454798688+455267755
2178+455530273+455736936+456041014+456440160+456697572+456671441+456668605
2168+457114076+457963873+458818170+459467771+459976923+460389569+460680940
2158+460908175+461230442+461784519+462493566+463015841+463087350+462890141
2148+462830505+463063413+463497614+464063264+464670208+465090379+465175125
2138+465094047+465172818+465535320+466010325+466381260+466627517+466872980
2128+467174221+467435868+467543341+467573858+467786837+468279993+468767477
2118+468899379+468715027+468593146+468823369+469330857+469773529+469891855
2108+469764491+469668401+469762563+470046484+470504509+471062671+471491389
2098+471556054+471257271+470851016+470628281+470664092+470799435+470890420
2088+470982615+471178387+471480612+471830635+472118905+472164776+471905510
2078+471538205+471270772+471086117+470909517+470783741+470773002+470902975
2068+471158156+471346441+471171089+470641478+470134406+469925322+469972176
2058+470150856+470352187+470380776+470088989+469605589+469215595+469029730
2048+468931068+468838306+468841218+468992519+469113643+468963136+468540166
2038+468080061+467774169+467605245+467446873+467220394+466924485+466596811
2028+466316142+466164122+466099948+465949782+465623847+465308274+465314287
2018+465669113+465927622+465563796+464572643+463485740+462794429+462551084
2008+462511567+462453406+462294277+462043520+461774536+461613743+461626752
1998+461758200+462048814+462731201+463753817+464413287+463985968+462599148
1988+460985017+459695838+458934681+458704420+458775249+458761787+458428062
1978+457846190+457269725+456915051+456848646+457102542+457804290+458900873
1968+459745452+459463876+458022979+456438004+455651737+455684788+455969655
1958+456041543+455767454+455279365+454815970+454468480+454168601+453975740
1948+454189172+455169737+456982628+458878713+459413240+457910023+455419699
1938+453459365+452580714+452457661+452578142+452644660+452643791+452634488
1928+452708380+453273802+454630029+456069149+456598608+456607835+457062192
1918+457393043+456282997+454192689+452893073+453104274+453979673+454232585
1908+453319446+451826288+450776067+450545542+450667460+450640270+450569101
1898+450840808+451368036+451623860+451718551+452650787+454636118+456066880
1888+455435809+453467987+451800233+450941020+450529130+450304844+450202401
1878+450189619+450280264+450562294+451560102+454371785+459368428+464341248
1868+465443655+461790721+456648714+453110627+451679790+451415986+451516047
1858+451680697+451828368+451928542+452006329+452282007+453158653+454990036
1848+458111657+462615333+466988696+467943092+464514671+460057092+457618161
1838+457163160+457156656+457172766+458646297+462859397+468397487+471673434
1828+471417119+469868598+468364020+466118705+463186957+461053615+460433057
1818+460701550+461211874+462212027+464327747+467305139+469574580+469718356
1808+468224328+466933750+467393590+470121397+474290101+477747375+478656959
1798+477753274+477848873+481109883+486896726+491063236+489536422+484144187
1788+479990875+479348081+481069760+483397325+485783428+487831420+488686776
1778+488817732+490658266+496388461+505179469+512027840+512140645+507088866
1768+501258119+497118382+496104956+498746089+502985508+505530438+506168694
1758+506834517+507593027+508111822+510462152+516734966+525121306+530456326
1748+530358307+527710292+526131897+527075213+530092159+533415377+535221952
1738+536617810+541393080+550696227+558501566+557836158+551939612+546575739
1728+543321082+542484407+544189598+547652356+552732421+561392359+575309189
1718+591286604+600398820+598500238+591726251+586623837+585922769+590364011
1708+599336308+610089844+618958677+626120504+635818714+649614609+661969948
1698+667722794+668550658+665969274+661590882+659873287+663499825+671517386
1688+682597802+697707192+715926329+727703842+726017710+719724173+718128874
1678+723382325+733226769+742885234+749620762+756082580+764265472+770020587
1668+768987534+765639775+766953345+773840137+781328730+784800526+786089289
1658+790332679+801031307+818613776+836153817+839352355+832575910+831383955
1648+836979034+840111168+833542483+823103574+816956157+817131774+822870856
1638+832676273+841812502+841444327+830556847+819137374+813177297+811903584
1628+812503949+813465605+814500927+813728652+808920445+802650883+799895244
1618+800898876+799652542+791905742+782523332+777031339+775621036+775486411
1608+774134117+771247408+767996457+765438670+763860615+762877253+761933521
1598+761002949+760619345+761036227+761756997+762165332+762234762+762323175
1588+762633719+763201183+764137049+765557714+767601509+771000168+777089273
1578+785944757+793556479+794290484+790724149+790434252+795403631+801073282
1568+802819390+802543562+804161096+809135541+818956085+836092177+856963641
1558+865001395+856084423+844957871+838100198+835452182+836126060+838639527
1548+842302671+848698613+859589043+874498009+890862506+902394822+899442994
1538+885976928+876902491+877126512+881806447+883918008+883235356+884969817
1528+890766379+897740828+904127619+911594505+919638689+923306370+921194886
1518+917702745+915086495+912763846+911371921+913100559+919958989+932634552
1508+947140780+950604710+936798831+920826181+913334034+913637165+918072054
1498+922521238+923116157+919662210+916825796+918723016+924695951+929323020
1488+927492507+920649506+914169234+911362846+911785022+913001481+914067358
1478+916836611+923231722+932315538+939606959+939606127+932640376+925648834
1468+923603451+926036749+928706168+927953709+926117902+929020342+939139555
1458+951026583+952196907+941053036+929779608+924280128+923386010+924370886
1448+924689749+923344640+921480168+920268549+919635058+919967913+922769612
1438+927848959+931147029+929347298+925676440+924569343+926186348+928106485
1428+929256388+930790501+933339666+936059456+938580032+941300881+942789312
1418+940271459+934796105+930383678+928498635+927781949+926965959+926487589
1408+927405304+929590075+931685299+932991307+934533663+937188334+940066951
1398+941918111+942655293+942059467+939177447+934795500+931664047+931172063
1388+931699291+930633868+927979424+926195348+926834814+929700800+934056352
1378+939013931+943297255+945626180+945600163+944282811+943329020+943220564
1368+943213606+943174126+944019386+945543364+945565145+942956610+939753760
1358+938275539+938384676+938421055+937341413+935267517+932693318+930087580
1348+927970045+926807208+926939715+928404549+930329148+930952580+929240960
1338+926185743+923504601+921741400+920331096+918669469+916606389+914350372
1328+912431672+911565387+911945209+912815200+913333353+913503524+913606459
1318+913429481+912753561+911789030+910623319+909090266+907355200+905837877
1308+904714974+904087534+904108938+904392254+903943229+902233197+899761630
1298+897263062+895040172+893158305+891604453+890124871+888286190+885808572
1288+882883896+880193451+878231868+876571148+874418823+871799774+869427209
1278+867675353+866514331+866134887+866741377+867957534+869108194+869916167
1268+870487338+870853395+870957010+870958977+871167871+871683377+872441130
1258+873555487+875225661+877266808+879082195+880267343+881065635+881958013
1248+882983049+883972311+885242696+887250565+889640072+891568074+892959999
1238+894586382+896955015+899611577+901538369+902252634+902472647+903466749
1228+905846651+909051920+911832216+913495280+914756741+916861116+919939022
1218+923025474+925533193+927639913+929398652+930540009+931177886+932017171
1208+933654445+935984581+938609983+941570508+944970832+948165589+950216492
1198+950999431+951199402+951581493+952673084+954605549+956992484+959316040
1188+961405667+963424352+965665318+968280358+971023140+973423613+975230151
1178+976489947+977270769+977650969+977772055+977691886+977607708+978220097
1168+980365087+984193637+988654468+992079296+993744176+994305211+994200915
1158+992929774+990836441+989937408+991744248+995374719+998694646+1000686330
1148+1002054356+1003880179+1006033867+1007167585+1006680063+1005825879
1140+1005987126+1007084088+1008401062+1009509217+1009957939+1009679539
1131+1009925494+1012171829+1015933446+1019199977+1021465599+1024285601
1123+1028027023+1030702191+1031182906+1030986944+1031325849+1030965162
1114+1028585563+1025213601+1023160353+1023807684+1026770025+1030098574
1105+1031660671+1031299076+1030671409+1031130417+1033064999+1036234193
1097+1039890378+1043095346+1045307723+1046498014+1046851365+1046926089
1088+1047584160+1049084541+1050326791+1049600727+1046716514+1043911562
1080+1043821561+1047090664+1052168573+1056611479+1058521179+1058119801
1071+1057840191+1059819850+1064162393+1069417961+1073317454+1073279638
1063+1068188266+1060625403+1055579561+1056024502+1060480795+1065038283
1054+1067418411+1068653628+1070549562+1072827058+1073741823+1072212778
1045+1068426657+1063649761+1059914087+1059025793+1061241725+1064855254
1037+1067482320+1068142660+1067846713+1067761477+1067754670+1067450782
1028+1067432857+1068371143+1069972946+1071080421+1070248245+1067022858
1020+1062769485+1059693696+1059147863+1060217294+1060298069+1058188248
1011+1055981846+1056558310+1060062854+1063900632+1065644319+1065234547
1003+1064273723+1063565962+1062261315+1060041224+1058584331+1059196040
994+1060581461+1060612923+1058908791+1056508620+1054215544+1052024722
985+1049578038+1046997561+1044791764+1042767029+1040212342+1037540578
977+1036025979+1035584819+1034749997+1033012284+1031269958+1029539883
968+1025959859+1019310550+1011551650+1006151928+1004061317+1002713259+999355515
958+994060316+988769579+985021425+983190534+982562489+981809954+980107485
948+977529580+974206703+970167670+966229076+963781409+963150867+963217423
938+963132262+963223096+963517530+962882602+960791235+958715298+958433040
928+959626659+960079541+958318458+955565693+954345300+955366403+956719605
918+956224596+953714532+950904136+949885453+951464793+954139809+955272091
908+954118254+952590343+952064779+951189569+947959039+942912063+938904038
898+938022703+939835669+942405784+944156884+944557959+943646143+941549709
888+938743548+936371966+935421427+935658003+936157475+936550154+936906682
878+936971196+936401841+935265475+933783775+932240133+931215929+931131675
868+931784301+932575030+932884742+932430195+931478447+930599834+930201482
858+930246331+930297685+930171153+930464150+931648013+933017475+933599915
848+933609822+933657395+933364549+932443355+932029121+933091292+934436249
838+933970283+931421118+928350851+926216676+925832543+927652165+931115793
828+934528520+936191887+935262450+932369841+929951595+930398351+933439349
818+936915153+939730692+942006600+943002594+941451161+937886944+934958184
808+934938746+937671696+941134719+943421139+943744011+942410246+940685240
798+939615884+939042066+938447223+937629494+936473691+935671920+937037449
788+941089264+945280544+946660141+945703400+945097666+945518103+945216710
778+943406845+941284318+939392241+936980347+934661254+934468998+936216165
768+936884068+935186516+933746262+934896998+937117694+937198318+934494183
758+931332856+930041823+931080170+933659512+937170031+941126097+944073916
748+944347325+942524148+940959177+940344065+939089033+936527465+934423316
738+934677439+937405397+941410623+945165432+947598049+948653489+948931813
728+949202877+950194332+951618930+951545416+948035124+941831135+936407740
718+934568681+935988967+938512493+940504707+941176921+940113540+937955617
708+936283931+936106121+937554013+940089111+941627913+939327046+933406903
698+928036450+926490236+927653527+928415591+927568214+925450830+922239661
688+918741092+916314677+914429861+910480527+903419782+895858356+891718279
678+892622153+896059460+897201725+893739762+887568445+881165242+876273916
668+876333967+882567302+887693616+886801465+882857727+879964968+878613127
658+876700857+873300760+869272315+865806872+863742053+863111360+863093360
648+862871457+862049416+860428630+858401323+857019760+856929380+856993213
638+855332417+852341941+850596665+851760334+854243699+853919088+848554535
628+841033874+836066160+834657293+833850984+831577497+829054500+828051170
618+828209165+828148055+827571288+827042925+826630052+825619537+823674669
608+821263305+819252108+818857008+820105687+820330766+816318734+809156264
##END=
