##TITLE=<SNM>
##JCAMP-DX=4.24
##DATA TYPE=INFRARED SPECTRUM
##DATE=2/5/2025
##SAMPLING PROCEDURE=Instrument type and / or accessory
##ORIGIN=Admin
##XUNITS=1/CM
##YUNITS=ABSORBANCE
##RESOLUTION=4
##FIRSTX=4497.3318
##LASTX=599.83466
##DELTAX=-1.4281778
##MAXY=1.7244711
##MINY=0.21938214
##XFACTOR=1
##YFACTOR=1.6060389e-09
##NPOINTS=2730
##FIRSTY=0.24432302
##XYDATA=(X++(Y..Y))
4497+152127711+151840300+151051532+150039400+149142745+148428703+147893870
4487+147709586+148076122+148988680+150152139+151043645+151225980+150795852
4477+150392250+150564556+151260523+152011835+152395072+152217580+151501256
4467+150558757+150037748+150497196+151726948+152798479+153053722+152766803
4457+152607116+152720162+152586880+151828878+150939154+150742066+151141716
4447+151132465+150229603+149044303+148255191+147832634+147443460+147015474
4437+146715362+146659460+146753903+146818591+146835310+146925763+147123426
4427+147305558+147238560+146687100+145715162+144834715+144632116+145181080
4417+145946579+146325770+146193026+145916990+145973754+146454969+146833510
4407+146434854+145214769+143741056+142543444+141960976+142231037+143080383
4397+143669326+143551474+143197232+143148949+143210008+142820296+141897996
4387+141012846+140770230+141089400+141235931+140707574+139875866+139437926
4377+139459599+139418274+139084250+138813539+138967335+139551751+140383356
4367+141178434+141592344+141533743+141276634+141006388+140560709+139820791
4357+139021418+138502460+138416581+138804308+139662820+140773403+141727147
4347+142297701+142542247+142495587+142158500+141798997+141745982+141797420
4337+141357503+140263473+139012065+138068323+137365267+136738403+136598275
4327+137632925+139681024+141431673+141707468+140733776+139719584+139418571
4317+139581190+139703644+139757578+139968212+140279255+140510588+140824136
4307+141481330+142238571+142478709+141965773+141140189+140639184+140708363
4297+141063022+141268970+141255740+141329474+141754156+142572995+143646706
4287+144501665+144497480+143540545+142284285+141376533+140873821+140532541
4277+140216794+139850936+139381328+138972883+138947340+139432526+140288654
4267+141327711+142372622+143151083+143380050+143048206+142501970+142105122
4257+141862312+141649219+141725811+142474506+143624420+144414709+144604764
4247+144656388+144881505+145081423+144996100+144608921+144102776+143774328
4237+143776193+143899574+143892161+143808759+143734561+143516672+143088204
4227+142701396+142627857+142873599+143207958+143296277+142967986+142510385
4217+142443341+142960054+143821377+144685308+145258785+145270587+144639326
4207+143732808+143256798+143665893+144636134+145319659+145284718+145007346
4197+145208673+145873643+146285595+146027549+145454899+145001333+144595820
4187+144086465+143722166+143850873+144458540+145233418+145876797+146252425
4177+146408513+146518107+146679817+146795117+146795479+146887667+147265569
4167+147699928+147824330+147667705+147459140+147195527+146850322+146624695
4157+146628137+146694810+146708728+146787240+147095378+147653463+148282692
4147+148721115+148837974+148674446+148344086+148002954+147733274+147422741
4137+147054814+146983520+147483829+148213115+148569027+148426281+148135438
4127+147944919+147804345+147681204+147721416+147997294+148320649+148408421
4117+148115564+147572306+147239757+147612666+148594013+149408964+149449853
4107+148943050+148500962+148383138+148524018+148888615+149380035+149682254
4097+149560941+149169800+148859156+148820754+148998886+149216089+149391846
4087+149691616+150331543+151216535+151935921+152134363+151785679+151125590
4077+150439782+149951071+149805969+150015406+150334605+150370632+149997518
4067+149578431+149640623+150348912+151320590+151970807+152049811+151770055
4057+151443508+151185546+150984868+150846140+150793069+150824967+150901188
4047+151008982+151256033+151722708+152164777+152150739+151620722+151031890
4037+150838625+151067481+151486800+151961390+152504230+153098638+153626503
4027+153983120+154152828+154168703+154171644+154446762+155124683+155888465
4017+156270802+156191102+155907448+155564758+155108270+154542114+154017190
4007+153725993+153874983+154642430+155923036+157104782+157408384+156642227
3997+155426809+154529468+154187148+154244024+154628327+155333443+156194034
3987+157016417+157674000+157918667+157534048+156822391+156519662+157092480
3977+158325794+159538066+160067778+159732055+158921845+158167026+157703802
3967+157568767+157865855+158658233+159678798+160425471+160611351+160344992
3957+159860447+159356956+159180911+159829124+161441101+163263137+163992459
3947+163132518+161670124+160836459+160764887+160874722+160989234+161373797
3937+162121435+163141258+164370992+165594379+166303438+166197518+165759086
3927+165821788+166560036+167215894+167122073+166748607+167083105+168202038
3917+168909612+168025956+165927838+164131224+163528957+163808955+164613580
3907+166501491+170096202+174621759+178047199+178960267+177322144+173725930
3897+169516797+166783752+166939478+169395698+171634807+171805434+171399011
3887+172660365+174992349+176109705+175930840+176017127+175993245+174649557
3878+173081465+173149363+174870174+177248104+179676229+181093865+180257695
3868+178395243+177996299+179128407+179463035+177679151+175171994+174093495
3858+175880515+181249053+189092088+193782166+190306550+183023992+177475866
3848+175190383+175673462+177826136+180700896+184005107+187645337+190560401
3838+190970684+188877706+186465057+185088839+184279556+183428782+182843976
3828+182844626+183355762+185004388+188738904+193234214+195022551+193957376
3818+193067522+192493145+190129225+186594265+184652039+185743750+189282625
3808+192926901+194486067+195061390+197128574+200048983+200825105+199344303
3798+197762127+196343564+194464448+192852230+192621277+193744701+195603404
3788+198103565+201394416+204922788+207934290+210663994+213654676+216483675
3778+218537907+220393178+223343165+228390231+235652841+243774538+250772551
3768+256405481+261948041+267957647+274510529+282386632+292108096+302562743
3758+312256502+321871286+333780941+349543204+367962895+384791967+397182270
3748+407422182+418156288+428322383+435087161+439749831+446458903+456927021
3738+470208738+483820535+494769933+501418251+504741408+507173634+510423827
3728+514432161+517835037+519737403+520892429+522163209+523118048+523469766
3718+524319242+527189325+532863357+540683290+547994591+551824264+552414877
3708+552647464+554890897+559812095+566136307+571414790+574508775+576499396
3698+578500408+580845679+584107749+589400409+597105812+604360998+605693089
3688+600684639+595256813+592760642+592448783+593690912+597024943+602400996
3678+607913104+609509030+605001269+599295357+597835079+599468006+598848036
3668+594488912+590216186+588677674+588988419+589246317+589891709+593304827
3658+599880218+606305488+609942471+613102628+619021011+626492677+629946471
3648+626858535+621784989+618865768+618239489+618254742+617807941+617506102
3638+618786050+621855837+625376175+628728354+633523109+641422129+650590259
3628+656327235+656922599+654500022+652076776+652635473+657227295+662806541
3618+665730438+667152156+670095649+674637739+678808033+681197357+680949147
3608+678001275+674137236+671658470+671781387+674890329+680514927+686738822
3598+691220196+693219464+693985473+695184960+697484545+700607738+703172234
3588+703298641+700758787+697563001+695607972+695153265+696011314+698190357
3578+700972928+702888173+703221891+702953120+704131081+708073206+713250965
3568+715454873+712595107+707997718+705459053+705161779+705412216+705057046
3558+704144219+703457558+703836851+705034333+705363524+704164706+703102611
3548+703579139+704954763+705967647+706139850+705588873+705659684+708503789
3538+713926493+718159730+717669767+713152393+707992597+704771203+704208499
3528+705061797+704925147+702945698+701156785+701855842+704764820+707664297
3518+708935337+708703604+707854908+706810034+705636749+704695790+704306848
3508+704391836+705128526+707101295+710123764+712554728+712705481+710743474
3498+708351849+706613781+705409024+705142035+707165723+711428503+715404326
3488+716845343+716245080+714865819+712676459+710180918+709426933+711213990
3478+713397709+713286816+710725511+707928392+706783312+707658581+709973383
3468+712273636+712454004+709603294+705347788+702390044+701986331+703057556
3458+703627534+702960172+702118453+702600400+704771129+707948358+711493079
3448+714841324+716595351+715077659+710684168+706109344+703659303+703388528
3438+703866393+704138504+704409799+704795772+704329561+701975642+698291007
3428+695113109+693797088+694494884+696693893+699693946+702605150+704328299
3418+704085507+702229272+700347651+699841358+700921267+703053993+705292861
3408+706734917+707485561+708272279+708806259+707867898+705244243+702312404
3398+700629634+700728874+701972154+703180993+703685579+703700276+703587824
3388+703393056+703353790+704154834+706037864+707909835+708209781+707119035
3378+706595596+707226885+707032191+704580147+701338489+699434898+699312871
3368+700781203+703757949+707048150+708777014+708589817+707612710+706411368
3358+704596476+702403628+700925053+700966396+702478150+704434442+705715651
3348+706000083+705398262+704289776+703587081+704083948+705684179+707869011
3338+710247201+712375548+713526491+713041797+711016996+708506313+706745829
3328+706155735+706334247+706764311+707203727+707738671+708585586+709425004
3318+709644860+709792272+711195137+713308267+713621722+711592987+709876964
3308+710282162+711516683+711963150+712396479+714119331+715944763+715594195
3298+713358147+711543033+711174205+711487438+711765264+711783524+711077712
3288+709291323+706928721+705333685+705781340+708274283+711520691+714265630
3278+716129585+717033505+716555640+714511836+712086661+711354796+713038309
3268+715222844+715306867+713025764+710061043+707630747+706275683+706627958
3258+708938232+712569945+716251389+718506958+718515271+716906282+715084858
3248+714069006+714251750+715155002+715550031+714751288+713373883+712092822
3238+710449243+708040101+706129162+706519069+709054989+711422490+711647691
3228+710019922+708311545+708015830+709484013+711972428+714173219+715018946
3218+714309646+712712755+711212803+710444938+710421260+710715565+710637109
3208+709460558+707292575+705585533+705542482+706347608+706222092+704852184
3198+703658783+703880273+705359219+706955516+707404136+706027695+703378656
3188+701020061+699963830+699684593+699229813+698609732+698378370+698515613
3178+698599934+698452522+697901990+696734717+695447199+695098932+695980139
3168+697167676+697510895+696540246+694629529+692877952+692415897+693168249
3158+693563352+692142821+689272886+686606404+685495691+686420988+688930557
3148+691359147+691584570+689055999+685229369+681893446+680123312+680340645
3138+682092073+683703809+683446098+681414245+679369476+678719334+679209149
3128+679491874+678611187+677029735+676375510+677979972+681308473+683939402
3118+683643687+680479224+676406462+673163989+671241173+670554512+670899884
3108+671450489+671108012+670014446+669541109+670338515+671614751+672525425
3098+672863969+672246782+670168761+667182588+664705010+663517919+663312240
3088+663398193+663213743+662520401+661661536+661201708+661191539+661539731
3078+662642799+664525829+666134522+666495185+665836135+664807664+663433079
3068+661606905+659896301+658944654+658442814+657510466+656005912+654677569
3058+654195177+654579295+655245692+655234336+653900204+651652503+649461287
3048+647778591+646514825+645642525+645187225+644993793+644856105+644721237
3038+644797986+645353491+646217329+646732084+646336684+645078856+643377826
3028+641439201+639282723+637207225+635913175+635848376+636596793+637307801
3018+637506354+637102567+635946873+634077723+632048839+630420031+629421696
3008+629220247+629815834+630531592+630254582+628671645+626753506+625512230
2998+624861271+624063049+622726244+621021578+619346045+618183783+617991687
2988+618769535+619702848+619720885+618563558+616868690+615289279+614079661
2978+613312279+612826509+612234040+611457342+610851179+610545814+610335162
2968+610162773+610098605+610106213+610154459+610250841+610147779+609262527
2958+607053534+603643014+600180387+598037789+597327969+597004679+596718020
2948+597255562+598572288+598994298+597420380+594922909+593026815+591806174
2938+590680208+589875156+589965860+590675383+591148794+591081286+590667478
2928+589597738+587256920+584071564+581493669+580441558+580655513+581415770
2918+581975431+581560064+579940275+577821949+576073601+574996141+574440413
2908+574175020+574223118+574833475+575792063+576088483+574976657+573117749
2898+571927801+571970926+572435541+572063225+570379045+568000336+565864010
2888+564322900+563041987+561602752+559996954+558543393+557539194+557040917
2878+556747949+556255536+555621055+555228364+555048070+554743522+554419378
2868+554373841+554218895+553159361+551079484+548656832+546550308+544903018
2858+543530141+542425255+541946054+542237278+542670348+542433865+541603020
2848+541028142+541120219+541229776+540395405+538457040+536239993+534712875
2838+534157518+534053120+533578039+532353724+530782812+529571635+529010711
2828+528860998+528754076+528429747+527676579+526410698+524924663+523771456
2818+523222632+522985629+522557755+521721566+520583724+519330387+518092637
2808+516930708+515881677+514932628+513856875+512336511+510546151+509238407
2798+508868763+509037700+509050579+508579839+507572597+506051417+504270038
2788+502622748+501214168+499877067+498650785+497792699+497269000+496709784
2778+495957136+495178731+494378430+493332071+492105937+491116027+490552357
2768+490131943+489452556+488318499+486847421+485496811+484736072+484460843
2758+484065925+483322296+482683213+482434260+482152202+481375988+480245123
2748+479142760+478215459+477433084+476641801+475530606+474016106+472526805
2738+471467382+470685155+469827960+468874272+468008355+467320209+466799145
2728+466277190+465401624+464045187+462572476+461357922+460356098+459415956
2718+458594760+457953970+457398206+456806033+456109314+455294539+454432891
2708+453602417+452777621+451895375+450958870+450024555+449148395+448316919
2698+447399824+446286439+445110297+444210607+443804704+443754936+443703089
2688+443380059+442703752+441691760+440510755+439510750+438918021+438534534
2678+437948968+437017102+436001806+435224812+434667637+434029111+433149500
2668+432206426+431523661+431319578+431452850+431324180+430436478+429094886
2658+428012231+427342196+426730910+426076908+425559964+425163784+424716092
2648+424139062+423369082+422378986+421396535+420705272+420207106+419539595
2638+418568352+417470184+416438039+415533970+414756716+414135707+413749066
2628+413585176+413444444+413147059+412732063+412262808+411660838+410935282
2618+410285325+409822640+409463091+409103542+408648464+407986854+407163357
2608+406415794+405909983+405578046+405235234+404713948+403899395+402792394
2598+401600812+400675812+400200323+399932516+399446858+398658953+397909645
2588+397516508+397428031+397340222+397029440+396513534+395900245+395199851
2578+394425344+393751709+393344544+393120382+392874770+392547991+392204030
2568+391849565+391432009+390985467+390647221+390464366+390268670+389849221
2558+389190579+388450661+387801223+387342843+387016621+386592904+385949627
2548+385296404+384883042+384622732+384286082+383891832+383592888+383351729
2538+383028328+382625468+382216411+381812772+381465433+381281650+381207127
2528+381009168+380614287+380265464+380167040+380118089+379754531+379110884
2518+378623295+378516818+378515742+378298669+377932737+377664745+377531696
2508+377372296+377069307+376624398+376104819+375645993+375410475+375403906
2498+375403757+375200639+374842314+374525222+374313865+374081724+373694897
2488+373172645+372650802+372240186+371973456+371829532+371730886+371567441
2478+371305536+371025780+370799614+370606516+370413418+370236612+370056652
2468+369742158+369183796+368517954+368072341+368012849+368156735+368204648
2458+368057458+367832555+367662801+367586311+367566567+367494420+367206424
2448+366658750+366059452+365664015+365472290+365281604+364986223+364656921
2438+364378167+364179502+364119231+364259332+364505761+364624410+364505204
2428+364283418+364125874+364024482+363862076+363619989+363481224+363653390
2418+364056102+364343207+364305092+364046118+363731216+363399093+363059363
2408+362804657+362761643+362890685+362876433+362451714+361832153+361510496
2398+361645883+361974517+362238464+362375076+362347910+362082776+361583608
2388+360934839+360137655+358996473+357157012+354224579+349937974+344377952
2378+338013733+331456416+325144786+319262142+313853393+308886490+304176668
2368+299504906+295113716+291804086+290075111+289558185+289851005+291380518
2358+294806310+300108880+307028177+315947225+326964873+338068623+345819711
2348+347991109+345216442+340701852+337590573+336060893+334327947+331560851
2338+328308543+325162822+322109661+319014117+316219113+314386964+313802474
2328+314062487+314489581+314745103+315079638+316022935+317838420+320333367
2318+323086471+325692311+327917003+329828647+331736209+333892687+336277595
2308+338663653+340819426+342635022+344118571+345329637+346340553+347243656
2298+348123119+348970034+349680745+350182213+350496893+350684869+350831057
2288+351071548+351489475+351987233+352363148+352492190+352371202+352046353
2278+351603115+351232877+351170305+351447501+351794023+351907626+351748078
2268+351478861+351257297+351165517+351209273+351333639+351524621+351830431
2258+352199889+352447395+352499278+352516053+352639565+352790837+352882246
2248+353058160+353509230+354163195+354739037+355038464+355105267+355160083
2238+355373370+355678252+355897255+356015236+356171259+356478108+357009044
2228+357820627+358842714+359859754+360698653+361391289+362124676+363038431
2218+364097371+365198657+366354239+367677126+369206880+370842331+372481976
2208+374166787+375995707+377973301+380075706+382332908+384687643+386984927
2198+389216818+391510391+393856961+396141664+398366652+400606671+402833478
2188+404896320+406648491+408114893+409475190+410844393+412232116+413647711
2178+414965030+415845607+416096898+415932896+415692665+415448945+415010234
2168+414307317+413619208+413145871+412538000+411292827+409432584+407386517
2158+405409739+403389242+401083756+398413080+395456004+392258957+388875009
2148+385397945+381814850+378447046+376537369+377304528+380416513+384427259
2138+388456784+392457807+396402121+400177572+403810770+407345544+410831775
2128+414350665+417901509+421528583+425400341+429508583+433633080+437685541
2118+441761755+445954502+450260407+454519326+458516044+462196263+465634693
2108+468977445+472522017+476478096+480767263+485531845+491411853+498671642
2098+506424363+513285969+518586274+522509397+525309634+526976780+527436274
2088+526431481+523413763+517999892+510250956+500491989+489385901+477906346
2078+466771644+456255724+446558254+437908107+430467096+424325851+419335363
2068+415117379+411490008+408493815+405995639+403793401+401908849+400385701
2058+399104121+397882033+396521773+395004118+393661599+392750442+392077030
2048+391355742+390510497+389584458+388818041+388571574+388871298+389435969
2038+390175665+391295916+393164101+396296164+401132189+407811459+416315789
2028+426443435+437424230+447956405+456867121+463702005+468744488+472450204
2018+474863280+475738772+475037228+472959763+469705265+465442968+460354020
2008+454620644+448423173+441903600+435176194+428428563+421905389+415770119
1998+410113976+405111500+400989007+397705672+394784670+391710837+388462723
1988+385434575+382984980+381210430+379923988+378783957+377593971+376423729
1978+375414965+374639344+374065877+373512896+372841525+372252841+372052246
1968+372122686+371999175+371470985+370784620+370232456+369831377+369483111
1958+369226364+369125380+369047851+368806692+368445362+368196557+368232037
1948+368587912+369272421+370230155+371079705+371168998+370282261+369008252
1938+368053005+367609432+367509896+367554728+367616335+367652669+367643984
1928+367615445+367809285+368442356+369201239+369598977+369784764+370108350
1918+370181574+369445218+368312052+367673155+367768609+368174030+368424504
1908+368352060+368044135+367680837+367400747+367256267+367234964+367337804
1898+367629251+368073862+368430554+368634600+369033786+369736517+370099592
1888+369536776+368450854+367660017+367463356+367656417+367940961+368135247
1878+368262321+368447885+368737514+369322598+370760534+373281572+375790955
1868+376439762+374857234+372572531+371000766+370400391+370355225+370422548
1858+370427818+370446374+370555597+370718337+370995644+371600954+372692814
1848+374409913+376784169+378984700+379331222+377480517+375224873+374069328
1838+373978699+374233516+374605906+375663473+377883117+380542993+382094495
1828+382150907+381730010+381250475+380250953+378858479+377916852+377838507
1818+378282117+378775977+379323206+380302836+381755247+383006432+383366166
1808+383030592+382849481+383521112+385212233+387446870+389230327+389845769
1798+389742521+390205541+392146393+395136685+397183977+396554507+394312632
1788+392872209+393172303+394543029+396153614+397812038+399394195+400566663
1778+401504913+403144261+406338005+410719546+414180911+414717525+412926868
1768+410596739+408926365+408900312+410938845+413849493+415748928+416534050
1758+417355987+418407134+419539521+421605146+425356214+429804669+432838457
1748+433744753+433668412+433839093+434829412+436684014+438850550+440639314
1738+442649827+446583936+452580033+457208819+457256101+454942190+453400189
1728+453349307+454668223+457118969+460180146+463900002+469499994+477949731
1718+487589417+493857700+494635288+493046451+492491243+494148999+498038497
1708+503879685+510779814+517342883+523606378+531328036+540766608+548697026
1698+552870178+554662022+554869260+554356472+555715804+560406309+567436889
1688+575498834+585174817+596853741+606508087+609882051+610044197+611748789
1678+616921872+625109705+633757439+640360331+645607417+651286867+656631040
1668+659866537+662290375+666491399+672436355+677502256+680183880+682453627
1658+687029119+695160465+706659281+718047798+722197012+720593887+721086894
1648+724846868+727559668+725724364+721794561+719340512+719305552+721783724
1638+726674378+731693740+731751339+725719094+719027874+715349102+714141673
1628+713378707+712332051+711591799+710477375+707541899+704145852+703159616
1618+704450474+704239599+700168248+695088466+692041503+691094310+690710637
1608+689597995+687836249+686327389+685485077+684963048+684365234+683705220
1598+683101988+682382815+681369561+680437287+680212383+680733373+681436735
1588+681859524+681954385+681843121+681516899+680971637+680898228+682680757
1578+686718559+690516537+690591060+688328810+687848719+689934831+691914429
1568+691529792+689978921+689451918+691137509+696193390+705649516+716629346
1558+719991620+714475985+708278366+704893305+704156392+705270594+707296212
1548+709983849+714158522+720425172+728339186+737068717+744363169+745330626
1538+740377919+736668863+737622737+741266994+743852942+744819657+746842603
1528+751257767+756824172+762100355+767241520+772261773+775795434+777430105
1518+778224839+778358742+777746010+777552875+779203356+783404751+790379365
1508+798760926+803126582+799266922+792504297+788651021+788828197+792118324
1498+796283868+798233479+797172646+796049908+797765709+802027375+805326557
1488+804567896+801073426+798142478+797251325+797978068+799417749+801295435
1478+804249394+809168477+815863705+821663104+822430375+818084240+813693347
1468+812784231+814809107+817022071+817431351+817263304+819342291+824842931
1458+831298634+832982368+828626287+823632905+821231334+821076721+821899068
1448+822607848+822559156+821797675+820986092+821007098+822584393+825811428
1438+829622099+831883235+831525467+830214716+829759342+830120450+830432866
1428+830682041+831669094+833495342+835427658+837401096+840038482+842449034
1418+842211958+839305058+836302334+834382561+832730892+830590372+828623318
1408+828203053+829510909+830846377+830710247+830034645+830643073+832700534
1398+835026617+836774928+837521787+836868601+835449035+834884104+835836493
1388+837020393+836613710+834902289+834259124+836368098+840905512+846435769
1378+851740602+856304441+859987592+862788720+864932728+866626112+867817286
1368+868762846+870222123+872306008+873929620+874115036+873108091+871638719
1358+870027058+868329220+866526650+864655124+862966045+861714601+860884684
1348+860286499+859876254+859943205+860856404+862404899+863567199+863359664
1338+861931933+860448237+859915445+860426340+861312149+861834772+861868842
1328+861990201+862842163+864398749+866055243+867514222+869088697+870855639
1318+872219387+872848301+873352441+874509471+876304322+878020938+879131132
1308+879774668+880339006+880809967+880792599+880266413+879915697+880334329
1298+881153558+881415797+880720674+879500256+878148235+876364667+873571630
1288+869824125+865964688+862697051+859918934+857250150+854652475+852212752
1278+849942115+847950937+846304389+844922233+843960046+843740487+844100555
1268+844430785+844407775+844208776+844217238+844805180+845975867+847082868
1258+847431654+847241637+847570234+849181079+851675432+853933599+855454928
1248+856833596+858705047+860876222+862865989+864672567+866511805+868286392
1238+869735054+870766271+871462730+872098325+873225070+875342209+878322369
1228+881413422+883882984+885548682+886821652+888347063+890406603+892580598
1218+894355185+896010343+898198812+900767614+902898113+904369636+905752238
1208+907409993+909164762+910925543+912934090+915292461+917757644+920147042
1198+922652826+925579915+928954510+932557720+936105855+939168406+941331341
1188+942711642+943797860+944703636+945226555+945575713+946260742+947254104
1178+947992203+948398366+949336282+951619686+954998215+958597343+962003261
1168+965329684+968465495+970818746+971828066+971769576+971834004+972897361
1158+974475027+975544025+976193054+977625758+980624177+984413694+986904781
1148+986423651+983731857+981640995+982427713+986322555+991856375+996909880
1138+1000195628+1002271274+1004419142+1006630324+1007688262+1007235486
1130+1006402674+1005989014+1005458301+1004534191+1004281230+1005493261
1121+1007642688+1010078477+1012791647+1015619571+1018312626+1021405683
1113+1024951666+1026973647+1025661560+1022363491+1020231211+1020896124
1104+1023812970+1028096904+1033400178+1038779757+1042260198+1042547897
1095+1040444936+1037874130+1036268332+1035869369+1035739177+1035217222
1087+1035054594+1035777329+1036759483+1038034680+1040744659+1044689233
1078+1047467425+1047935715+1047982922+1049390909+1051416601+1052204803
1070+1051422688+1050773287+1052005878+1055013205+1058263621+1060677588
1061+1062401330+1064066212+1066004541+1067846821+1068528064+1067116664
1053+1064239751+1062132411+1062556016+1064935023+1067167434+1068323424
1044+1069491068+1071527597+1073449151+1073741823+1071882767+1068618917
1035+1065862844+1065299026+1067005028+1069183254+1069473551+1067480369
1027+1064902364+1063121616+1061872992+1060524238+1059041951+1057461316
1018+1055937018+1055216212+1055788863+1056779776+1056893193+1056139654
1010+1055533601+1055457743+1055401257+1055152230+1055323023+1055859452
1001+1055019811+1051856908+1048742102+1048555350+1050142443+1049393506
993+1044829890+1039528842+1037283145+1038735890+1040636512+1038591892
984+1031840475+1024614904+1021863507+1024575935+1029114315+1030603801
975+1027422118+1022017525+1017222845+1013339878+1009281219+1004900644
967+1001031780+998214025+996394829+995317072+994410554+992667290+989434243
957+985217410+981195715+977790093+974328135+970441679+966932810+964550018
947+962592984+959901413+956906334+955489069+956848660+960187256+963254928
937+963827950+961520943+958475984+957140738+957759112+958974112+959858437
927+960261259+960122903+959468010+958337479+956433665+953858554+951907681
917+951743717+952587217+952782208+952529989+953357308+954621148+953240254
907+948310928+943531019+942973584+946293178+949454152+949583824+947788380
897+946867165+947737090+948753388+948094783+945968738+943750430+941922846
887+940241263+939333929+940376948+943190026+946037322+947200513+945983286
877+942982714+939974274+938379684+937696288+936779676+936174662+937479401
867+940622486+943345826+943574292+941372611+938489389+936377447+935187090
857+934600188+934645243+935119916+935112864+934140508+933109291+933138091
847+934001187+934804828+935548866+936593147+937294282+936709458+935340886
837+934908966+936477355+939270689+941255854+941308628+940407009+939778170
827+939059665+937848748+937520225+939377871+942544411+945500597+948124993
817+950702331+952237614+951378081+948657414+946193864+944779272+943063026
807+940611056+939338011+940210831+941263425+940833436+940176687+940851621
797+942178182+942918806+943251411+943611851+943794223+944481553+947089619
787+950944677+953360574+953563062+953359164+953396277+952650977+951387730
777+951060915+951810074+952392003+952118556+951421948+951077764+951731024
767+952986254+952903567+950058794+945907724+943318585+943200047+944146201
757+945050715+946081264+946635136+945219133+942687741+942743039+947384370
747+953569297+956265098+954522206+952200798+952496439+954406042+955533604
737+956218113+958279360+961439220+963734723+964236192+963456303+961835585
727+959528875+957134281+955306251+953976499+952658474+951215601+949773025
717+948413360+947834993+949125407+951519555+952229895+949835598+945995756
707+943291493+942528156+942877610+943304482+942850592+940892519+937596232
697+933802113+930939007+930127572+930230598+928148345+922316064+914917696
687+909557045+907229848+905920878+903669020+900465664+897664387+895793530
677+893447999+890011796+887641400+887231971+884934168+876985639+868271621
667+869216736+878352207+886163048+889165401+888439548+884977887+879183758
657+872807848+869357542+871333949+877157471+882047161+882785929+880271312
647+876703507+873006105+869921064+868979882+870761001+872771329+872394708
637+870868109+870103956+868776207+865262439+862188160+862795549+864770768
627+862643832+855890188+850015450+849096462+850966206+850648743+846326434
617+839598324+832678414+827850852+827153131+830460997+834736618+836395635
607+834921588+833860829+836963981+843894876+851147168+856079537
##END=
