##TITLE=<SNM>
##JCAMP-DX=4.24
##DATA TYPE=INFRARED SPECTRUM
##DATE=2/5/2025
##SAMPLING PROCEDURE=Instrument type and / or accessory
##ORIGIN=Admin
##XUNITS=1/CM
##YUNITS=ABSORBANCE
##RESOLUTION=4
##FIRSTX=4497.3318
##LASTX=599.83466
##DELTAX=-1.4281778
##MAXY=1.7101882
##MINY=0.23812312
##XFACTOR=1
##YFACTOR=1.5927368e-09
##NPOINTS=2730
##FIRSTY=0.26242474
##XYDATA=(X++(Y..Y))
4497+164763401+163563140+162723616+162255083+162110275+162261912+162453498
4487+162498948+162663216+163248302+164004093+164419635+164365316+163991369
4477+163324776+162503813+162079420+162557290+163794450+165025660+165373542
4467+164458349+162738697+161165444+160395208+160467228+161127908+162051241
4457+162759673+162836839+162358875+161749669+161248952+160850924+160636005
4447+160781430+161206908+161442671+160983681+159823724+158618168+158141103
4437+158525098+159220469+159614550+159369374+158366500+156840100+155481709
4427+154941922+155191486+155624608+155690565+155192749+154217707+153199649
4417+152878730+153654775+155063219+156332852+157206244+157730631+157769513
4407+157361455+156976225+156838247+156632319+156218629+155925262+155926759
4397+155929575+155618798+155030324+154421531+154062730+154205002+155000367
4387+156260692+157369407+157624556+156795492+155322334+153870097+152636623
4377+151350776+150084511+149505627+149969473+150982676+151888654+152443568
4367+152613131+152504951+152421713+152426054+152179925+151602678+151135230
4357+151055117+151192805+151489287+152074869+152666093+152685385+152184612
4347+151838666+151838638+151696207+151261401+150999694+151195949+151677383
4337+152236789+152661032+152569440+151802254+150769366+150081779+150023474
4327+150467739+151042815+151326592+151144988+150771172+150630144+150745528
4317+150827119+150903003+151254497+151789689+152198758+152551748+153048760
4307+153500060+153643240+153636475+153883410+154566974+155340756+155439028
4297+154419070+152791703+151587943+151445839+152265903+153380092+153919364
4287+153467362+152578168+152280162+152902587+153667059+153612441+152763552
4277+152060508+152206570+153032060+153977706+154667632+154833022+154233790
4267+153080092+152198047+152377741+153620374+155155990+156105818+156095012
4257+155426894+154782979+154625503+154841424+155066026+155281974+155784132
4247+156563686+157141540+157114671+156546546+155793281+155235850+155107846
4237+155305588+155509018+155618077+155752163+155873413+155893939+155981499
4227+156265304+156475854+156230539+155512929+154792241+154687550+155295390
4217+155955865+156091438+155917001+155881188+155963471+155943309+155804508
4207+155676550+155815726+156433529+157191556+157371559+156838706+156258671
4197+156189205+156451876+156527704+156246883+155943571+156043359+156607330
4187+157313647+157776586+157786746+157389391+156887533+156717035+157194961
4177+158268265+159480071+160308499+160630017+160754317+160976047+161264427
4167+161394789+161199405+160696499+160112329+159768133+159822471+160112554
4157+160340795+160387124+160333123+160230417+160048748+159905082+160055053
4147+160491272+160817917+160741574+160469080+160325545+160236554+159998826
4137+159796256+159943795+160335930+160648747+160889881+161247905+161593055
4127+161621683+161324939+160962818+160757105+160825008+161197908+161750231
4117+162329853+162957228+163647117+164171560+164252318+163932447+163579269
4107+163442451+163325299+162986305+162726123+163011322+163715376+164407024
4097+165045512+165691392+165974290+165536050+164563619+163506239+162773613
4087+162744891+163481465+164458555+165046224+165180309+165247465+165451531
4077+165576168+165313497+164627556+163851688+163540013+164015750+164924824
4067+165527424+165565427+165474939+165670997+166054655+166308980+166374695
4057+166502344+166878929+167353432+167659700+167724142+167561989+167197341
4047+166927242+167127959+167513957+167288672+166359801+165631553+165793856
4037+166528540+167193711+167726069+168495687+169573576+170481752+170682600
4027+170188095+169552226+169273164+169405753+169736047+169987490+169910006
4017+169571143+169366553+169362193+169067264+168298731+167689638+167809035
4007+168349645+168706247+168887335+169365430+170284927+171176206+171479761
3997+171228112+170992423+171151975+171551126+171899121+172086647+172116080
3987+172132153+172421655+173035651+173596562+173731359+173509423+173328297
3977+173530829+174117637+174684424+174748529+174272567+173704022+173407334
3967+173365196+173571807+174252471+175389057+176502741+177240606+177682026
3957+177832971+177479569+176838292+176836907+178303937+180782448+182506553
3947+182385752+181589114+181765394+182549514+182380644+181100092+179941633
3937+179669419+180386908+182202193+184650841+186060164+185124613+182998307
3927+182129593+183299504+184883985+185252898+185050610+185909537+187859676
3917+189045641+187829831+184652094+181357598+179415768+179437604+181852608
3907+187175924+195073535+203310065+208716160+209876191+207261911+201557462
3897+194547651+189741986+189767358+193557182+196407545+195261996+193473505
3887+195149952+198791226+200257189+199924444+200528616+200418425+197032711
3878+193439787+193924842+198272752+203891690+209440572+213265461+212775353
3868+209465439+207738209+208179050+207484370+204103970+200510841+199829858
3858+203878816+213496958+226591527+233274843+225270839+210937034+199966208
3848+195182622+196075249+200562409+206298499+212442085+219182564+224768644
3838+225365088+220493428+214428598+210154056+207245201+204904406+203832431
3828+204551191+206564799+210519227+218007339+226689930+229720595+226159836
3818+221887389+218330316+212764295+206028213+201919023+202560430+207632602
3808+214178371+218618397+221866601+227070445+232288977+232101208+227285775
3798+222491561+218241736+213395280+209205425+207481470+208091723+210027997
3788+213079582+217089901+220811241+223559158+226652937+230786246+233751721
3778+233646357+232537202+233971056+239567334+248378023+257295479+263324271
3768+266629919+268904139+270749007+273475257+279632839+289494229+299375060
3758+306051752+311664346+321035946+336912787+357364936+375028752+385130957
3748+392816811+403546110+414920203+419950724+419676340+422269963+432313115
3738+449678297+470399779+487223602+494474978+493426466+490188609+490089102
3728+494586011+501221594+506439153+509418793+511670297+514163777+517509037
3718+523053410+532078251+544871042+559893819+572605815+578442459+579102447
3708+579721457+582986895+589345325+597541027+604361179+607067071+606011636
3698+603629489+603066650+607121596+616499745+629029454+639666506+641928788
3688+634848023+625233849+618461223+615212177+614624714+616166720+619955590
3678+625729738+630519555+631096090+631263145+635970857+640992246+637012482
3668+624995465+614583025+610468465+611337123+614345690+618410627+624225679
3658+631229689+636488563+639165041+643389699+652836257+665283599+672752213
3648+669986071+661916895+655722527+654009836+655699474+658646743+662138513
3638+666859547+672513605+677438743+681775445+688890938+700154522+707869154
3628+702191743+689387389+681675825+682329901+688574191+695927619+700443725
3618+701586168+702345626+704562776+706503671+706081542+704534110+704222453
3608+705189233+706234452+707880231+711473192+715814909+717688668+716700931
3598+715754508+715771947+715033297+714327353+717495192+726095995+736637245
3588+742610220+740656002+734521435+729493834+727477195+728421671+731705146
3578+735410601+736458214+733401446+728816482+727160598+730711571+738063876
3568+744809632+746813472+744134076+739291119+733682117+727623743+722022226
3558+718369463+717625872+720128334+725066270+729352077+730125830+728840208
3548+729051347+730971585+731584121+729445933+726466705+725085056+726036493
3538+728468899+731040742+732539225+732271578+730627071+729005766+728593741
3528+729183824+729924271+730848913+732811888+736222900+740208052+742862375
3518+742573770+739783228+736887753+735791115+736460684+737480754+736869341
3508+733473972+728659605+725225616+724645338+726484518+729910275+733892433
3498+736315034+735573988+732800361+730539052+730061163+730731705+730799216
3488+729045659+726410646+725025479+725798634+728084567+731045832+734296524
3478+737155400+738357121+737380311+735674431+735439790+736568162+736276040
3468+733010827+728777188+726124586+725563619+726897965+730359498+735278049
3458+739599033+741918423+742587392+742406715+741823069+741064884+739677771
3448+736945234+733460499+730973531+730658880+732380702+735417486+738945257
3438+741816408+742808785+741643290+739746255+738801778+738841521+738873331
3428+738415725+738065073+738789653+740455791+741359551+739886590+736551022
3418+733148768+730871217+730241766+730819274+730777061+729054042+727093237
3408+726765938+728087636+729870158+731334361+732641539+734509460+737003913
3398+738744372+738637642+737787845+737478359+736993435+735132699+732300618
3388+730500731+731634417+735627653+740200717+743245809+745160508+747303860
3378+749103297+748652428+745681508+742335537+740497479+739875812+739401366
3368+738877522+738661443+738740704+739015837+740216285+743288022+747624499
3358+750470951+749390031+745192317+740868264+738179437+736778778+735711929
3348+734815129+735061371+737249631+740304303+742107108+742279328+742679078
3338+744762030+747755404+749806921+750199785+749706702+748858702+747040105
3328+743702816+739632115+736603639+736128669+738253310+741512011+744581652
3318+747608856+750905055+753294499+753554363+752311403+750764195+749367652
3308+748710209+749554691+751098456+751232953+749641886+748568451+749817998
3298+752445377+753861679+752952306+751176370+750434201+750886942+751427402
3288+751845414+753062329+754843803+755089521+752326522+748144152+745962852
3278+747543516+751419394+754586184+755423182+754324824+752240225+750194022
3268+749248124+749552521+749886182+748993649+747262396+746514614+748068034
3258+751170981+753522704+753516716+751832766+750542353+750969497+752573213
3248+753638115+753325560+752752917+753126172+753574422+752503008+750267969
3238+748132700+745801261+742970452+741743583+744146874+748759232+752244566
3228+752972589+751585251+749536429+748500192+749680506+752591176+755279404
3218+756198657+755453120+754006431+752202877+749762612+747039206+745235653
3208+745178171+746694617+749116321+751635398+753481613+754246011+753720745
3198+751732622+748814169+746330120+745344029+745903200+747288218+748638881
3188+749404177+749332475+748404090+747137554+746697686+748026943+750313326
3178+750878036+747824860+742524297+738330850+737492954+739868178+743322675
3168+744920927+743273202+740025952+737792187+737268567+737317291+736801605
3158+735612010+734660873+734956513+736046788+736222001+734936903+733556676
3148+733027293+732398890+730410617+727514693+725520732+725588542+727085678
3138+728269660+727722389+725158779+721591639+719006548+718990232+721138449
3128+723380972+724286005+724282562+724353066+724473493+723994032+722758332
3118+721051179+719019497+716878913+715281185+715026635+716453641+718799376
3108+720216576+719282728+716737829+714767520+714292101+714224890+713876858
3098+714438424+716761930+719206386+719407870+717211302+714183275+711518025
3088+709729216+709266820+710172302+711582991+712479491+712723038+712760985
3078+712353526+710729078+708660721+708443818+710399982+711758504+710620028
3068+708338810+706517892+704909461+703350577+702658331+702938403+703179929
3058+702659603+701611391+700765337+700461763+700136409+699009984+697116840
3048+695257002+694257140+694312975+694523591+693585551+691544662+689990793
3038+689972756+690754069+690836773+689327512+686543556+683852110+682478394
3028+682329302+682348462+681813616+680991512+680730975+681552255+682901646
3018+683437615+682564616+681486691+681896171+683577202+684175667+681859871
3008+677494278+673529110+671436278+670750468+670232612+669495682+669168682
2998+669584374+670126032+670101408+669569630+669146977+669378624+670202449
2988+670826886+670301769+668235957+665072759+662126463+661125927+662745136
2978+665289811+665854595+663637595+660947870+660083254+660682916+660877814
2968+659887233+658368841+656929786+655499562+653906773+652346393+650977243
2958+649440139+647440041+645640979+645085175+645715674+646339662+646022616
2948+644837811+643465068+642564227+642266342+641979384+640972262+639267879
2938+637672246+636893628+636807780+636551733+635241786+632876741+630627482
2928+629776039+630318070+630990483+630761979+629854178+629074736+628513095
2918+627318485+624994305+622588095+621798362+622943237+624531835+624892515
2908+623712612+621811385+619837072+617698734+615294470+613115715+611680813
2898+610941190+610651238+610726982+610964167+610836069+609813753+607972029
2888+606123979+605034827+604478799+603542818+601917883+600176825+598786157
2878+597651573+596632626+595900449+595624830+595586884+595331548+594632154
2868+593591838+592449620+591506191+590926437+590422016+589581687+588568877
2858+587888493+587530694+587009245+586138492+585127628+583971226+582350894
2848+580278608+578407282+577341144+576887917+576370135+575491223+574469881
2838+573407149+572021084+570128763+568011569+566170181+564896721+564158183
2828+563807531+563694253+563505155+562778480+561282654+559212987+556999953
2818+555196212+554331933+554360037+554433985+553688523+552113099+550380574
2808+548973028+547813221+546666325+545506294+544367818+543158949+541932979
2798+541040670+540584299+540049678+538956970+537606905+536696147+536355450
2788+535996453+535118365+533898420+532734796+531575550+530180429+528749419
2778+527678791+526889170+525965538+524788480+523637168+522770531+522146207
2768+521491308+520589232+519555839+518703348+518023825+517101353+515743206
2758+514367582+513509290+513166872+512846158+512061665+510684880+509017695
2748+507579126+506617698+505860186+504911294+503725029+502475220+501220247
2738+499971748+498882184+498077669+497411094+496628172+495743760+495004472
2728+494420003+493605309+492270065+490640826+489195184+488168827+487468310
2718+486881820+486237325+485432061+484401812+483112635+481650152+480247996
2708+479108771+478264551+477667732+477292307+477089513+476911492+476527797
2698+475780539+474720052+473562565+472570188+471913792+471485114+470907755
2688+469955271+468854592+467944395+467211732+466403063+465423259+464473207
2678+463872197+463673670+463407444+462449196+460690812+458597980+456734587
2668+455487249+455008611+455127316+455412029+455442266+455000303+454113346
2658+453029769+452066282+451345482+450660196+449680954+448437919+447500179
2648+447337727+447572891+447320886+446272599+444933013+443809095+442932766
2638+442203021+441654965+441257161+440841131+440338880+439815560+439298228
2628+438773635+438202638+437438053+436419181+435432230+434764046+434210825
2618+433406647+432445255+431697324+431234142+430795210+430156515+429332877
2608+428508229+427844311+427372111+427014424+426590349+425873440+424873242
2598+423938870+423370380+423119386+422993944+422879543+422668666+422216973
2588+421440861+420406458+419386875+418773328+418741781+419011711+419089176
2578+418736205+418073335+417287045+416460937+415662597+414919006+414118346
2568+413201899+412349483+411717150+411195738+410679603+410296506+410117364
2558+409899937+409351731+408481427+407544323+406777941+406313600+406193435
2548+406266110+406156349+405584042+404688403+403873297+403400498+403232619
2538+403180489+403116534+403031247+402917669+402728310+402440865+402016117
2528+401382063+400639333+400122599+400088245+400461051+400889055+400913904
2518+400263945+399168168+398193904+397695020+397576502+397527217+397298301
2508+396845486+396364865+396137334+396223220+396336386+396116752+395540104
2498+394938870+394568759+394349648+394126459+393929053+393792647+393550634
2488+393067843+392543026+392298618+392338548+392370469+392202928+391889400
2478+391546906+391207594+390795120+390213757+389527797+388950626+388584369
2468+388351001+388199738+388148319+388153408+388134622+388035227+387769301
2458+387281944+386692311+386193203+385856286+385678565+385667974+385748059
2448+385763440+385685376+385648627+385731144+385853217+385892099+385730545
2438+385254640+384518346+383854840+383580307+383616457+383621547+383447119
2428+383264496+383273328+383437951+383520168+383339379+383015747+382886039
2418+383106272+383449888+383601226+383514368+383340015+383128651+382827922
2408+382522589+382423307+382563567+382706036+382615173+382289445+381912074
2398+381669499+381589789+381533655+381404733+381278768+381242056+381315817
2388+381635856+382411369+383652645+385270507+387457906+390694827+395431391
2378+401945912+410334303+420404662+431674047+443627258+455935461+468338083
2368+480285269+490652839+498023892+501763738+502831784+502907154+502374104
2358+499522525+492363172+481019429+467981780+456847604+450667980+450776993
2348+457119406+468752914+483056837+495341652+501681146+501862759+498229867
2338+493031319+487280447+481229932+475234091+469892737+465463077+461395820
2328+456746076+451021251+444433157+437579773+431122846+425444351+420363123
2318+415386641+410318024+405422863+401031598+397224354+393950422+391226829
2308+389065851+387318132+385700345+383963254+382084368+380363033+379191849
2298+378617297+378278135+377860908+377379165+376916881+376407931+375800597
2288+375201084+374757137+374537129+374529906+374644682+374739212+374723419
2278+374624212+374553707+374620918+374805749+374926176+374815405+374501727
2268+374147707+373916285+373947944+374289165+374759083+375038819+374989308
2258+374797142+374734946+374857468+375035413+375202880+375369935+375451854
2248+375344638+375135369+375010602+375027629+375138663+375292283+375391641
2238+375342579+375231172+375284349+375611948+376119065+376669591+377214729
2228+377763010+378322743+378892766+379452873+379972301+380471970+381031329
2218+381696743+382432400+383156045+383784186+384325394+384965998+385932067
2208+387254363+388774103+390301701+391690834+392923204+394204485+395792970
2198+397669573+399538242+401189410+402710759+404271176+405830733+407215938
2188+408411221+409587045+410849465+412116114+413264320+414316424+415410479
2178+416561679+417537777+418095901+418266998+418267671+418239043+418226581
2168+418279085+418361191+418244918+417695440+416757325+415696015+414688107
2158+413675484+412456063+410891154+409093289+407303058+405547929+403650744
2148+401533700+399305585+397335051+396391098+397135625+399293535+401877540
2138+404206921+406185838+407896246+409498877+411219988+413105760+415042351
2128+416996794+418969199+420823011+422385674+423705464+425098714+426802798
2118+428649388+430341646+431905394+433508324+435055906+436337636+437375632
2108+438403711+439624928+441059718+442625824+444344914+446303847+448407494
2098+450397039+452070174+453311226+454055266+454349521+454298776+453869574
2088+452824281+450936638+448282165+445155192+441692425+437882149+433928582
2078+430231548+427047692+424426114+422325648+420638367+419223786+417970460
2068+416837897+415884701+415135721+414438198+413665305+412896716+412178760
2058+411415335+410618717+409890694+409194667+408485880+407884346+407476849
2048+407148427+406718813+406136814+405517168+404978317+404512029+404114674
2038+403854399+403699394+403604078+403786888+404527784+405764533+407236707
2028+408855392+410656476+412532443+414186642+415383834+416196732+416796208
2018+416994249+416372282+414919081+413136222+411475661+409979124+408449093
2008+406780037+405058701+403398290+401817140+400334562+399015296+397842915
1998+396788528+396122478+396307047+397244038+397903128+397255752+395455155
1988+393489560+392006683+391026318+390378567+389948504+389663380+389452652
1978+389210041+388873759+388524792+388271253+388193750+388476180+389192227
1968+389869916+389795295+388901303+387842425+387154931+386841852+386721089
1958+386725430+386776662+386652568+386155481+385372634+384691651+384506745
1948+384990996+386221195+388145437+390011861+390420518+388868820+386572408
1938+384909040+384054004+383515565+383066567+382791958+382714606+382683395
1928+382716364+383349483+384992493+386912207+387979056+388397929+388997030
1918+389188859+387758560+385295992+383662824+383703091+384747374+385588039
1908+385501330+384668599+383741187+383091939+382715728+382640284+383037976
1898+383938967+384945265+385452756+385564276+386272390+387858928+388859988
1888+387933213+385879899+384232848+383317786+382754349+382475399+382542311
1878+382792969+383026786+383279390+384174057+386882381+391778404+396712261
1868+397955408+394558542+389552122+385959161+384456412+384260578+384494096
1858+384671967+384677206+384655875+384837862+385441230+386644522+388625085
1848+391799697+396400903+400783148+401374428+397306796+392345059+389747993
1838+389456208+389775012+390030123+391539085+395722915+401317284+404676241
1828+404460124+402987276+401535945+399097327+395759589+393358955+392821002
1818+393349637+393972913+394809948+396583152+399192306+401236189+401452081
1808+400325879+399561594+400612051+403914051+408447072+411908904+412600253
1798+411499761+411471020+414618950+420256692+424225304+422563957+417231884
1788+413249613+412750880+414651732+417321623+420092930+422346044+423309905
1778+423743897+426052808+431984918+440408187+446720924+446903772+442508092
1768+437331810+433643720+433031334+436079793+440645036+443459978+444507666
1758+445833256+447423799+448796167+451919997+458854289+467816072+473715287
1748+474177234+472000837+470802822+472145664+475686345+479662778+482107796
1738+483966997+489138638+499151628+508257227+509116267+504436997+499976389
1728+497511574+497553525+500384447+505221304+511729276+521632541+536506601
1718+553240460+563111692+562125639+556493248+552760475+553428060+558831648
1708+568145019+578952756+588391343+597089895+608896558+624466195+637328929
1698+642406977+642301669+639202464+635043520+634130479+638695385+647336231
1688+658534325+673497076+691772567+704175301+703547646+698142598+696719335
1678+701352725+710511277+720458702+728389712+735909297+744631949+750782009
1668+750284735+747334921+748296687+753663638+758933888+760824412+761862071
1658+766779500+778472248+797087763+816022718+821353294+816392081+816001013
1648+821711280+824784888+818302589+807720024+800707968+799587829+804565059
1638+814831326+825207167+825478333+814164452+802178758+795991051+794587621
1628+794733271+794909233+795334356+794496011+790014108+784111862+781508434
1618+782268191+780627651+772958226+763900191+758107069+755387107+753280054
1608+750042011+746074821+742826973+740821187+739215375+737014691+734354754
1598+732305258+731448351+731073599+730016181+727903366+725188044+722448696
1588+720081705+718341321+717332328+716858555+716689105+717599452+721439852
1578+728588801+734604589+733389920+727958901+726140603+729332392+732447465
1568+731223515+728032998+726739667+729062798+737111915+753427799+773270706
1558+778298906+765494776+751638467+743350518+739815562+739068154+739259983
1548+740516041+745256684+755145879+769247083+785207077+797536163+796000257
1538+782614202+772254678+770931857+774453042+775711495+773997157+774617627
1528+780118402+788340861+796823034+805882266+814845547+819528409+818585505
1518+815397308+811251613+805925602+801905048+802738378+810081776+823657714
1508+839458362+844906370+832354395+816252045+808629548+809940169+816461163
1498+822674767+823311553+818919541+815984547+819100966+826696818+831822018
1488+828929012+821067608+814847418+813099699+814554922+816907692+819695689
1478+824248545+831412014+840262951+847561442+848214844+841474926+834245068
1468+832545625+836152583+840114233+840490557+840164904+844959361+856933978
1458+870877407+874492673+864725252+853069477+846629540+845462398+847336157
1448+849139411+848360793+845362629+842655914+842193742+844765286+850685196
1438+858842989+864762899+864186364+859924807+857317112+857271906+857201251
1428+855897217+855418505+857412017+860783809+864170347+867990090+871492937
1418+870778237+864724728+857775916+853678795+852438753+852260696+852390702
1408+853561062+855724399+856976340+856261191+855633237+857381330+860901242
1398+864019682+865637394+865315633+862700155+859294158+857825463+859011990
1388+860522598+859391457+855931646+853663975+855191199+860143730+866511516
1378+872877131+878881617+883785124+886120306+885860517+885101658+885350968
1368+886337208+887859268+890513890+893817948+895570531+894350249+891169388
1358+887709502+884808562+882781370+881709731+881216275+880558008+879198363
1348+877394361+876080671+876025959+877330293+879768986+883024469+886034308
1338+886921977+884985871+882017197+880355925+880532186+881488188+882223920
1328+882528242+882678832+883082249+883990201+885417955+887363266+889692011
1318+891713215+892480308+891790980+890532601+889832646+889982636+890397430
1308+890561492+890603854+890915062+891691435+892851542+894004912+894780686
1298+895334918+895967138+896321906+895631605+893551348+890241452+886008112
1288+881256092+876467398+871916189+867483909+862895652+858329997+854709044
1278+852855793+852347067+851863640+850836085+850054323+850361639+851394208
1268+852103520+852101873+851830857+851655869+851550935+851609839+852150074
1258+853213704+854493489+855694311+856670072+857468749+858380219+859667712
1248+861319554+863299668+865632604+868002664+869796563+870754436+871305374
1238+872225077+873942184+876068471+877862819+879237732+880808291+882961374
1228+885516377+888239932+891101128+893937551+896196390+897257700+897206356
1218+897111003+898179723+900772223+904287794+907699555+910253959+912089023
1208+914142710+916990359+919936655+921937502+923256206+925174423+928017431
1198+930737244+932626796+934062783+935425496+936692407+938077574+939920346
1188+942153214+944609271+947285300+949909310+951998774+953480342+954699651
1178+955818592+956386670+955819565+954689996+954786846+957201065+961273562
1168+965822750+970170978+973609982+975363539+975838509+976637635+978615579
1158+981164145+983662191+986095495+988046120+988829978+988971211+989982974
1148+992489102+995658737+998243155+999521891+999883096+1000608424+1002304425
1138+1003996533+1004385281+1003403981+1002168430+1001897415+1002943157
1130+1004777697+1007011986+1009876176+1013570404+1017702253+1020829077
1121+1020906168+1018175427+1016604868+1019534099+1025102534+1028629032
1113+1028748935+1027876385+1027642418+1027925484+1029187156+1032250360
1104+1036217250+1039147229+1040670486+1042038813+1043812952+1045117885
1095+1044925532+1043486027+1042284381+1042494997+1043750456+1045217804
1087+1047788000+1052748390+1058521229+1061462136+1060329797+1057504976
1078+1055647384+1055743336+1057554523+1059837014+1060742346+1059484641
1070+1057334028+1056101097+1056535576+1058506634+1061315363+1063729432
1061+1064657892+1064106055+1062757338+1060814796+1059076059+1059004357
1053+1060241255+1061031923+1060697064+1059311673+1056835557+1054513398
1044+1054564144+1057757355+1062657120+1066733060+1068049518+1067093217
1035+1066607993+1068526285+1071761559+1073741823+1073429492+1071867765
1027+1070081351+1067747142+1064569349+1061801485+1060837699+1061300319
1018+1062242924+1063829351+1066226729+1067661220+1065661346+1060729772
1010+1056602787+1056217258+1058587766+1060215807+1058892463+1055033575
1001+1050510657+1047261686+1046138928+1046594663+1047821531+1049695514
993+1051610887+1051958395+1050220855+1048140224+1047380840+1047414746
984+1046567569+1044010619+1040346480+1037079097+1035480919+1035431222
975+1035366031+1033579543+1029614449+1024648820+1020402532+1017309614
967+1014236904+1010331088+1006035551+1002009309+998452273+995356436+992216515
957+988109215+983064848+978511618+975545788+973807799+972491490+971074139
947+968854894+965373751+961301629+958026387+956718461+957768694+960304312
937+962258155+961980478+959961369+958194714+958003334+958855825+959135074
927+958112609+956928178+957008412+958163803+959237837+960086885+961640155
917+964040378+965562961+963901464+958862187+953103644+949570035+948980327
907+949809616+950124416+949583508+949497435+950601557+951764283+951764283
897+950963435+950030410+948652204+946732116+945377187+945737643+947676592
887+949879821+950959019+950489663+948904658+946692298+944131831+941556171
877+939728816+939786971+942195801+945638398+947590445+946246293+942138844
867+937926535+935927635+935852789+935804813+935238382+935250806+936323194
857+937809327+939273905+940742076+941855927+941979872+941193993+940419192
847+940147727+939630320+938299191+937340195+938358319+940994530+943049115
837+942765376+940333120+937285857+935024473+934111432+934545836+936035412
827+938070688+940278782+942548174+944697215+946445308+947760344+949067373
817+951034015+953726284+956064535+957158852+957813676+959075497+960038760
807+959138667+956462114+953200420+950388846+948614632+947543068+946378171
797+945601274+946637362+949462183+952250255+953442620+953044217+951866447
787+950649084+950122920+950803790+952315595+953461481+953397338+952059698
777+949335769+945285127+941388442+939898417+941536337+944757166+946986591
767+946538491+944379495+943724222+946830538+952306240+956279117+956460543
757+954229022+952262006+951319101+950005786+947399364+944810007+943953549
747+944673788+945868398+947281632+948834079+949623325+949510458+950440265
737+954066083+959092936+962514950+962415930+958963828+954084720+950666523
727+950664951+952983742+954178501+952317616+949185105+947556390+948005688
717+949491822+951394920+953275340+953996178+953063752+951783443+951888152
707+953191363+953418070+950845104+946618426+943908492+944897052+947992366
697+948252978+942839847+934545986+926992347+920489539+915277893+913512061
687+915166822+916509177+914591110+910014304+904484863+899535026+896913036
677+897142513+898922715+900782028+901004769+896807953+887421047+878774662
667+879281217+886325457+891557387+892583744+891768751+891647651+892556051
657+892777145+890305221+885616820+881597388+879493928+877093781+872759998
647+868846398+868153927+869124225+867707847+863428328+860192978+860469682
637+862578756+864485072+866104057+866949213+865090573+860605078+856738332
627+855098016+853970543+851392861+847244695+843362381+842175480+844742758
617+850591415+855868252+854551344+846399839+838600182+838071548+844555943
607+851150736+851753841+847342219+843395014+843414025+846690988
##END=
