##TITLE=<SNM>
##JCAMP-DX=4.24
##DATA TYPE=INFRARED SPECTRUM
##DATE=3/5/2025
##SAMPLING PROCEDURE=Instrument type and / or accessory
##ORIGIN=Admin
##XUNITS=1/CM
##YUNITS=ABSORBANCE
##RESOLUTION=4
##FIRSTX=4497.3318
##LASTX=599.83466
##DELTAX=-1.4281778
##MAXY=1.7120771
##MINY=0.18206143
##XFACTOR=1
##YFACTOR=1.5944961e-09
##NPOINTS=2730
##FIRSTY=0.20390873
##XYDATA=(X++(Y..Y))
4497+127882864+127950506+128444231+128964479+128970609+128300480+127259228
4487+126460526+126416519+127104441+128075444+128957470+129593086+129851102
4477+129712538+129429009+129252484+129125883+128862240+128427970+127896415
4467+127305077+126673068+126108962+125876702+126231228+127010847+127569252
4457+127400437+126665339+125860852+125255814+124918997+124885018+125020124
4447+125141800+125348707+125738110+125879795+125236170+124069690+123280510
4437+123375235+124048317+124609937+124470475+123463558+122095162+121262386
4427+121357877+121897208+122349141+122857688+123610832+124020468+123330013
4417+121754560+120271300+119488046+119299475+119458318+119857403+120233358
4407+120178099+119631105+119038197+118918034+119415152+120190136+120643620
4397+120421480+119727942+119009619+118506520+118311286+118531528+119058523
4387+119446459+119279046+118471802+117210747+115855798+114831069+114321148
4377+114181173+114305728+114822854+115737430+116656613+117090023+116967701
4367+116799961+117175673+117948396+118158676+117146142+115527916+114615078
4357+115071918+116475368+117875558+118459288+117983843+116982860+116362486
4347+116480798+116812419+116700545+116119394+115540420+115410930+115884470
4337+116718479+117371992+117492921+117294920+117230549+117450465+117825233
4327+118307323+118908511+119329212+119049047+118011281+116901658+116466883
4317+116783532+117373291+117806037+118040606+118252485+118540537+118966471
4307+119601658+120193089+120169520+119460225+118828188+118904390+119369976
4297+119408778+118637542+117548610+117159749+118018972+119643973+121196053
4287+122293667+122874716+122860296+122293564+121409417+120506196+119973444
4277+120150670+120906982+121660247+121950654+121783653+121440294+121170092
4267+121110038+121424426+122300910+123540302+124397311+124320043+123630233
4257+123026709+122769496+122798766+123163058+123756227+124050924+123638644
4247+122813447+122230698+122157393+122330189+122478061+122707536+123236783
4237+123972937+124578031+124812105+124640804+124178292+123700921+123573908
4227+124036177+125061776+126314878+127229856+127456061+127304609+127387606
4217+127759692+127921441+127697788+127476303+127440015+127254462+126773605
4207+126463778+126771073+127453986+127914386+127965645+127926245+128098462
4197+128469809+128833298+128960049+128755254+128377458+128036605+127694984
4187+127258032+126943336+127080106+127582279+127923497+127722170+127236893
4177+127115992+127644314+128479491+129203430+129785208+130365948+130975790
4167+131595949+132179754+132616379+132893694+133117114+133237725+133063266
4157+132574727+131912336+131176622+130544987+130298204+130465925+130821087
4147+131343456+132150531+132951701+133235417+132997437+132671498+132487918
4137+132463069+132707488+133220960+133714218+134011672+134312051+134826700
4127+135442355+135805918+135579377+134756395+133840614+133425465+133576747
4117+133950385+134363675+134837831+135266503+135440299+135277493+134852559
4107+134393374+134270258+134731051+135633599+136553828+137090570+137076795
4097+136638862+136094344+135790685+135983536+136607013+137117859+136987921
4087+136467832+136387331+137068684+137889235+138098030+137730373+137465787
4077+137788931+138567560+139341927+139723779+139538694+138877144+138048471
4067+137339662+136852385+136604789+136659805+137051610+137615939+138048088
4057+138263125+138507058+138899825+139184457+139242455+139445380+140061259
4047+140718183+140859139+140430046+139869950+139661912+139993262+140606328
4037+140957592+140756863+140328658+140288137+140913361+141925876+142782604
4027+143081207+142844806+142565641+142757156+143347298+143812454+143901768
4017+143775269+143460564+142837975+142190976+142054692+142442180+142851806
4007+143059909+143287562+143603473+143769905+143685152+143522178+143427659
3997+143408996+143474423+143599595+143594866+143295973+142894159+142830658
3987+143327682+144190185+145043848+145560030+145516733+144990158+144553038
3977+144916984+146192880+147711017+148692020+148919607+148639704+148070926
3967+147338268+146747696+146717090+147330072+148159548+148644097+148592491
3957+148282533+148114466+148244423+148630901+149280993+150100947+150669631
3947+150719489+150640726+150879444+151193458+151077744+150539609+149951860
3937+149610231+149856238+151060333+152937922+154215088+153844629+152508623
3927+151860895+152473728+153364622+153642815+153859105+154971036+156640297
3917+157278315+155889807+153364510+151375964+150672510+150975683+152149041
3907+154758363+159067449+163824917+166880237+167349095+165874900+163054896
3897+159615481+157230224+157378796+159592697+161333403+160830230+159838573
3887+160791521+163047569+164185275+164119988+164384013+164371360+162793749
3878+161116478+161477285+163674195+166436426+169205422+170945101+170191135
3868+168214626+167812513+169034327+169286858+167274575+164631105+163525155
3858+165275151+170528372+178119918+182556129+179037054+171705123+165847947
3848+163064578+163360396+166100889+170096616+174244541+177985606+180612834
3838+181044964+179430046+177398717+175762809+174061764+172270798+171315122
3828+171611370+172757225+175103979+179456755+184108695+185175488+182851387
3818+180935754+179910959+177456209+173589057+170862843+171281329+175074803
3808+180067307+183208212+184831485+187371052+190100873+190047287+187730120
3798+185766994+184168057+181925690+179773264+179026718+179825710+181646787
3788+184160076+186899373+189160262+191211814+194413819+198968119+202849607
3778+204555418+205468910+207817552+212547544+219292380+226521494+232406369
3768+236804339+240915799+245362963+250565775+257456399+266117411+274827018
3758+282097214+289115346+298530025+311965382+328271451+342700558+351908816
3748+359096455+367988316+377490878+384026845+388869506+396444678+408372328
3738+423635565+439785342+453741050+463325739+468665499+471570452+473837079
3728+476502566+479673788+482468167+483908401+484120017+484477497+486588205
3718+490850032+496600315+503999907+514352786+527205254+538531397+545297298
3708+549290726+554215887+562332568+572784732+581442884+584668720+583772985
3698+582954442+585348877+591508749+599784338+608035817+614391418+617114772
3688+616488408+615451707+616299183+619575895+624749980+630348344+635240834
3678+639223757+640604181+637412026+633171096+632282762+633022616+630068805
3668+623533922+619219612+620328347+625585082+631833287+637515124+643139245
3658+648210792+650875718+651983108+655127489+661974284+669898114+673208619
3648+669963681+664582091+660695538+658660564+658046386+659169326+662532913
3638+667649093+673072251+677599299+681112113+684042972+685895374+685063337
3628+682191616+681090432+683832514+689425682+695255251+698817633+699981693
3618+701331613+704417455+707261290+707393770+706031738+706568686+709000875
3608+709912834+708584894+708188575+710370907+713236871+714633444+714862368
3598+715503984+717466587+720382642+722917631+724099709+724175070+723494502
3588+721930311+720507198+721067397+723357686+725197977+725445368+724823713
3578+723536594+720346906+715043668+710204036+709273610+713341464+720071778
3568+725466077+727673006+728495025+729792761+731330934+732271527+732611325
3558+732806681+733003532+733300490+733932238+734979592+736315607+737739169
3548+739273305+740667112+740853496+739109275+735942540+732395111+729348519
3538+727397654+726420127+725195734+722697006+719969427+719353979+721835138
3528+726134458+729806367+730765352+729005731+726770392+726124515+727214409
3518+729119071+730853872+731429696+730379874+728802674+728748247+730718625
3508+732784252+732833895+730644460+727592710+725163735+724294242+725204481
3498+726704900+726555299+724209087+722238858+722970339+725216294+726348654
3488+726160775+726412502+728005626+730410079+732554804+733559918+733504070
3478+733139301+732457014+731210117+730662553+732141515+734637851+736320990
3468+737000436+736986455+735439310+732232576+729824759+730632947+733487174
3458+734435168+731332953+726461471+723931492+725424658+728855906+731004444
3448+731229705+731532570+732672780+732449762+729371322+725613285+724119820
3438+725217041+727635774+730155585+731084590+728744658+724125651+720806324
3428+720837650+723234477+726463116+730167099+734155629+737465910+739082286
3418+738659725+736605612+734408553+734215215+735955548+736285776+732818493
3408+727717639+725055703+726523674+730914654+735651487+738090405+737518992
3398+736366969+737261508+738913621+737330589+731813006+726858164+726772261
3388+730795482+734642710+735492392+733906968+731993858+731252433+731585652
3378+731750654+731326673+731472909+732570205+733099901+732292685+731654583
3368+732517199+734177236+735323053+735928708+737037369+739075632+740932595
3358+740949192+738996682+736969708+736788184+738323442+739776984+739769133
3348+738351702+736227985+733957657+732267789+732131272+733567170+734983928
3338+734582376+732680855+731671629+732887350+734660504+734678522+733324340
3328+732765860+733573226+734171554+733380487+732279976+733262959+737207903
3318+741618620+742882488+740847814+738687238+738002708+737004548+733830485
3308+729474345+726706694+727417540+731331831+736320392+739831112+740772602
3298+739573778+736853227+733462502+731094010+731334373+733852241+736329887
3288+736788034+735495158+734114435+733715574+734416328+736256544+739148675
3278+742094487+743679537+743610904+742847873+742021892+740772901+738944199
3268+737303151+736488160+736105448+735506821+734855261+734903484+736002948
3258+737684966+739117948+739843224+740339725+741617798+743480368+743804690
3248+741065000+736861003+734214318+734330126+736193444+738254286+739484436
3238+739742443+739831561+740471681+740998312+740046878+737710460+735662926
3228+735059065+735324100+735121119+734025916+732795466+732377616+733143638
3218+734302688+734233906+732355636+730342343+730392958+732363037+733566796
3208+732060920+729247215+727994711+729116455+730723261+731000407+730468095
3198+730577473+731247274+731453396+731431715+732077443+732755991+731946308
3188+729683681+727470697+726301030+726086834+726292806+726491601+726713647
3178+726893901+726062387+723632365+721070387+720159325+720131738+718997882
3168+717356162+717773489+720619342+723386320+723867719+721788261+718113960
3158+714672769+713109400+713179229+713515886+713636404+713321054+711472614
3148+707918756+704828278+704289910+705574188+706157265+705195065+704727049
3138+706804937+710368664+711920444+709353682+704294470+700207925+699149581
3128+700442831+701782434+701811442+701180741+700808496+700580619+700361563
3118+700521855+700801992+700258091+698964542+698144691+698195231+698229323
3108+697760858+696962763+695306688+692173745+688676856+686823781+687210978
3098+688938826+690865468+692004781+691787595+690676841+689619019+688844774
3088+687997261+686950504+685836461+684726455+683623775+682565954+681720011
3078+681247808+681116973+681222687+681400025+681301488+680772016+680184753
3068+679831423+679270701+677861942+675817099+674428900+675132495+677969227
3058+680890740+681366083+679037889+675828912+673392162+671573552+669716664
3048+668537577+669219864+670943001+671254912+669424939+667444990+666930845
3038+667101978+666586936+665459286+664402735+663190229+661386572+659817745
3028+659745898+660783459+661150919+660027829+658113000+656091857+654265173
3018+653123169+652834359+652728270+652170613+651361229+650833552+650819272
3008+651205872+651590079+651430759+650487250+649116246+647818809+646383734
2998+644140022+641482123+639943650+639913072+639770948+638426186+637119254
2988+637330609+638358451+638317705+636683984+634703886+633765985+634132697
2978+634861935+634606096+632895594+630678647+629089186+628017683+626762973
2968+625635996+625567849+626422278+626976010+626438203+624990978+622991704
2958+620648408+618449366+616957209+616035344+615052734+613876750+612833470
2948+611890185+610802459+609826316+609480163+609778168+610204691+610381730
2938+610475184+610756180+610922229+610344648+608982092+607523167+606637749
2928+606401835+606178966+605037672+602825435+600539930+599147096+598372327
2918+596984801+594367536+591610875+590357511+590673048+591068208+590599406
2908+589596311+588392104+586892358+585286636+584054206+583431991+583269082
2898+583085315+582454054+581610428+581149290+581069929+580778727+579941644
2888+578710335+577279109+575713834+574114280+572711540+571762274+571297173
2878+571037634+570707891+570321815+569949159+569341037+568127746+566336201
2868+564355168+562429872+560578030+558972607+557977998+557709038+557787614
2858+557671993+557127718+556264542+555180143+553803307+552193473+550717577
2848+549732650+549300295+549285866+549453597+549406571+548765142+547497423
2838+545853460+544030701+542182224+540706851+540094953+540229788+540187584
2828+539188415+537512116+536023847+535093683+534413004+533634272+532786198
2818+532111836+531738059+531522143+531188401+530600203+529846181+529120532
2808+528517643+527785713+526398262+524195034+521777610+519979560+519240267
2798+519553897+520420139+520783300+519821736+517889374+515946920+514308863
2788+512756858+511433179+510663083+510228411+509642980+508826605+507912665
2778+506841274+505584022+504305949+503119685+502187540+501869236+502069639
2768+501804454+500258505+497974870+496210389+495404967+494911531+494031683
2758+492799925+491669060+490760391+489763688+488499932+487188888+486045052
2748+484923832+483584901+482128444+480908162+480052986+479312496+478401696
2738+477293409+476145835+475138702+474338664+473554213+472469963+471063447
2728+469671547+468556793+467625882+466633142+465539808+464532078+463633539
2718+462545176+461141315+459828140+458988290+458418895+457761168+457052415
2708+456417154+455651842+454502212+453045829+451591726+450350997+449280653
2698+448266231+447391205+446796391+446336075+445723654+444947016+444181817
2688+443419272+442495314+441384111+440252162+439277029+438454449+437573778
2678+436462688+435227566+434146008+433378865+432836945+432242392+431380637
2668+430429465+429847547+429740935+429644827+429135093+428274870+427309717
2658+426368115+425527854+424741048+423751149+422462534+421197096+420275081
2648+419627559+419022689+418383877+417771269+417259554+416876767+416547324
2638+416054075+415170975+414023886+413157682+412908236+412935449+412714113
2628+412119972+411246740+410162341+409071025+408230390+407611801+406953625
2618+406095159+405138193+404372396+403989946+403824159+403512547+402863417
2608+401952206+401021519+400324952+399874767+399410526+398765583+398119407
2598+397773104+397767684+397778076+397420485+396640370+395663368+394658964
2588+393702933+392953509+392581637+392570909+392704286+392717108+392494352
2578+392136274+391806009+391612821+391614877+391712144+391604224+391110713
2568+390435715+389915963+389618967+389306607+388745100+387998891+387376190
2558+387103305+387154817+387355555+387528183+387602460+387608478+387492484
2548+387081325+386370179+385653800+385230828+385131057+385187503+385257220
2538+385331422+385433511+385452314+385233370+384851294+384569213+384477666
2528+384410006+384275657+384209641+384276442+384303581+384187324+384084525
2518+384094842+384028677+383693814+383190472+382776135+382585004+382518091
2508+382358023+382039570+381720295+381506361+381320612+381125369+380985749
2498+380827775+380445549+379836791+379278274+379013987+379022772+379085760
2488+378988942+378694600+378361157+378161128+378093244+378022593+377859609
2478+377634274+377427479+377274514+377142894+377013517+376929259+376879130
2468+376745828+376503782+376305212+376229328+376150303+375970274+375773012
2458+375652456+375543153+375290192+374856118+374435165+374277191+374367692
2448+374408512+374163813+373707759+373304749+373128645+373093768+372923757
2438+372435629+371789901+371386443+371443637+371748857+371920924+371822461
2428+371559445+371220207+370843514+370525211+370336098+370221038+370102912
2418+369962171+369766815+369498341+369285454+369322985+369595757+369847297
2408+369892492+369808047+369723976+369591832+369313340+369003298+368943600
2398+369273192+369850849+370429439+370825384+370912894+370647448+370135359
2388+369515985+368776243+367795390+366468085+364683979+362355299+359562228
2378+356528795+353402169+350147624+346676304+343060056+339624547+336760788
2368+334624361+333098374+331986050+331188628+330834924+331254606+332793341
2358+335708836+340052752+345608053+352191570+359553556+366629648+371816068
2348+374201868+374099480+372638050+370852224+368966664+366602509+363398018
2338+359379545+354962174+350593585+346481584+342768742+339820725+338096915
2328+337672523+338000508+338307634+338305691+338379594+338977324+340059331
2318+341308658+342583591+343925250+345295955+346515227+347434887+348113174
2308+348798788+349681028+350650144+351398671+351776897+351969598+352324872
2298+353040952+353976461+354767341+355162202+355193789+355043890+354885616
2288+354851338+354992042+355233975+355443722+355539157+355533363+355485029
2278+355400472+355225863+354968603+354719829+354486943+354145014+353652513
2268+353195749+353022149+353195562+353528967+353701969+353500071+353032018
2258+352647960+352566057+352693566+352866941+353049624+353187300+353145994
2248+352962899+352923462+353230962+353761144+354217721+354409862+354363883
2238+354265943+354318203+354608059+355057384+355444470+355549960+355400061
2228+355283056+355406789+355671039+355877123+355974801+356004930+356006613
2218+356059358+356241144+356534365+356892479+357324348+357837371+358409719
2208+359026850+359615011+360019703+360206124+360372098+360713615+361185744
2198+361616565+361963989+362349841+362870827+363463585+363978067+364334050
2188+364572806+364808496+365155546+365650627+366227797+366789491+367282553
2178+367730832+368237837+368883939+369596841+370259690+370943285+371837339
2168+372975306+374209718+375418822+376618132+377948689+379616988+381755060
2158+384322533+387190964+390262452+393456514+396649865+399688457+402453866
2148+404901008+407051714+409029345+411073514+413340739+415690054+417890964
2138+420024588+422448142+425398589+428789127+432302390+435603998+438595601
2128+441489378+444530474+447646072+450420713+452434866+453624756+454221888
2118+454312538+453658100+452056640+449663776+446834894+443860897+440922973
2108+438069008+435172279+432071783+428756643+425323826+421845141+418377671
2098+415004141+411779726+408711901+405798874+403008719+400290598+397684884
2088+395293291+393089876+390948926+388879786+387024804+385424091+383983483
2078+382692177+381726650+381239420+381064399+380769609+380111545+379305488
2068+378704319+378369941+378104159+377745409+377293952+376835506+376432870
2058+376057298+375626028+375131470+374687229+374415278+374365187+374575234
2048+375073342+375726098+376222711+376351677+376224169+376139575+376317959
2038+376828702+377670048+378786296+380026465+381205141+382234777+383116830
2028+383820985+384290833+384506562+384411277+383913355+383101616+382238889
2018+381391002+380312770+378855265+377241805+375809122+374687864+373802409
2008+373031565+372321840+371699177+371152659+370533547+369674707+368597223
1998+367547588+366905972+366978156+367607585+368073433+367757186+366803958
1988+365753463+364885203+364263998+363946703+363836428+363691799+363439997
1978+363209428+363045809+362821932+362423183+361959728+361788034+362159606
1968+362786569+363030707+362648295+361994006+361420051+360944820+360558557
1958+360385518+360412620+360398527+360169229+359803974+359492848+359349079
1948+359426832+359861056+360749165+361695739+361817827+360733129+359192338
1938+358197991+357983122+358104724+358102967+357873594+357584560+357406288
1928+357457800+357952843+358970180+360051963+360668795+361034760+361546699
1918+361708935+360797836+359295997+358394580+358537041+359216188+359703231
1908+359648991+359195329+358669782+358222326+357836586+357586953+357688929
1898+358267109+359082586+359631982+359796236+360084448+360719559+361001976
1888+360311241+359147443+358358208+358109209+358077211+358015718+357911798
1878+357883089+357966524+358114256+358652587+360341707+363330058+366127502
1868+366541203+364304706+361369848+359428290+358711537+358660512+358752956
1858+358751311+358669820+358650232+358777404+359101613+359759677+360947437
1848+362930114+365799031+368551468+369083407+366845489+363977880+362385503
1838+362088582+362210109+362434547+363460071+365978201+369211737+371163051
1828+371152659+370415347+369563946+368094367+366262898+365171172+365164630
1818+365612684+366043431+366766539+368267256+370280811+371746165+371922045
1808+371287382+370952930+371710989+373753813+376539482+378819790+379616353
1798+379444622+379933534+382244309+385875809+388469785+387990181+385647445
1788+384217940+384841911+386835055+389218724+391608896+393684391+395042648
1778+396147645+398422907+402903976+408841428+413387616+414206906+412403436
1768+410295718+409040821+409323350+411472300+414502033+416831834+418418641
1758+420095725+421651617+422957241+425399448+430190672+436142740+440243191
1748+441093844+440150186+439447937+440121327+442273193+444973034+446970626
1738+448683633+452254762+458353216+463547823+464001522+461538755+459342368
1728+458320133+458740937+460726118+463782055+467807780+473904552+482778097
1718+492180402+497159056+496112299+492859362+491018959+491836866+495288411
1708+500739418+506787893+511927961+516633057+522951539+531035847+537753077
1698+541211202+542501088+541651668+539452291+539113166+542374402+548199971
1688+555455121+564944861+576565272+584929681+585531635+582888726+582528181
1678+586355934+593892791+602567764+609568047+615214409+621130330+626247819
1668+628461177+629431002+632592131+638578254+644775358+648777420+651742296
1658+656545594+665200755+678449205+693304461+700938360+700911221+702324989
1648+707747623+712912923+713512148+711720080+711572871+714350391+720132037
1638+728533154+736682843+738745479+733701070+727915462+725658816+726641202
1628+728666307+730042245+730402976+729354350+726514404+723399479+722128358
1618+722276239+720654406+715462939+709051863+703731505+699656474+696204741
1608+692926534+689830225+687278489+685433862+683911763+682299125+680847826
1598+680123372+680022966+679744324+678836627+677628980+676444211+675134887
1588+673576153+671992599+670589073+669339634+668509092+669106598+672192515
1578+677370300+681668125+681884415+680028274+680480964+683999459+687822390
1568+689784694+691400023+694799048+700517968+709254546+722613645+739075034
1558+749403466+750321181+750186309+753180193+758467282+764694216+771529796
1548+779402189+788929311+800124844+812078100+823375235+830809816+829724033
1538+823132704+819281663+820458956+823736041+825518391+825946035+827926357
1528+832722029+838989186+845117957+851295846+857593955+861944264+863080736
1518+862526966+861517367+860371400+860193165+862527938+868135013+876617920
1508+885518005+889071864+884648138+878829036+876777240+878415073+881826508
1498+884799383+885761284+885120266+885053802+887150380+890833280+893514953
1488+893073478+890459315+888145999+887424835+887987202+889308788+892063505
1478+897234188+903884206+909126736+910511496+907850307+903398919+900377298
1468+900657809+903728026+906813793+907434924+907060511+909230806+915192481
1458+922147084+924367470+920513288+915166165+911078424+908593003+907667960
1448+907511706+906746282+905344103+904731794+905728609+908053588+911444538
1438+915465142+918238998+918021139+916146980+914791303+914272597+913988274
1428+913912539+914419432+915335353+916224136+917415035+919504810+921486104
1418+921021527+918033998+914969688+913311145+912671772+912045782+911138458
1408+910510673+910416323+910164147+909309382+908622310+908852356+909619424
1398+910120112+909990697+908924951+906496574+903107344+899990998+897749080
1388+895411616+891578143+887073599+884738153+886026618+889743834+894032089
1378+898269954+902549462+906446857+909387135+911727815+914245608+916820819
1368+918779983+920231955+921902758+923708658+924591759+924064979+923141805
1358+923325722+925168106+927685974+929136526+928858258+928087825+928525338
1348+930503717+932975456+935041531+936835020+938715982+940400990+941515632
1338+942363892+943323475+944134056+944594745+945246529+946604000+948219180
1328+949072001+948680169+947569340+946698725+946663063+947490316+948950960
1318+950718357+952233504+952930669+952769704+952112687+951195719+950265742
1308+949862097+950369812+951565197+952810300+953430683+953103894+952329574
1298+951960993+951934228+951313919+949809762+948256786+947226776+946035503
1288+943662750+940158160+936530884+933506348+930941304+928482798+926214489
1278+924287174+922414137+920213788+917776290+915595454+914006890+912755133
1268+911269294+909392070+907508192+905898022+904333606+902343490+899616809
1258+896218233+892587967+889323292+886953978+885783563+885682633+886065270
1248+886359089+886637132+887480534+888979681+890140526+889765066+887999464
1238+886466000+886674962+888714347+891485363+893773783+895129011+895985197
1228+896849009+897482924+897390592+896822543+896605207+897302297+898987230
1218+901284622+903448263+905114356+906901341+909468552+912312387+914362836
1208+915445255+916365213+917849558+919923184+922157476+924253606+926203723
1198+927978896+929455465+930803292+932511252+934828307+937526951+940177449
1188+942542202+944775298+946993815+948666337+949133008+948851301+949129195
1178+950567411+952665036+954974464+957654643+960528308+962617036+963371619
1168+963849205+965651890+968776609+971646162+973366682+974737836+976845853
1158+979581580+981966295+983558971+984886313+986525566+988582445+990989813
1148+993258945+994220247+993224404+991392935+990657342+991798076+994110944
1138+996694753+999497692+1002705622+1005481871+1006592550+1006320113+1006378503
1128+1007908752+1010636330+1013559339+1015783463+1017180185+1018439044
1120+1019884960+1020866075+1021281533+1022378605+1024952021+1027993604
1111+1030058483+1030746676+1030150815+1028472087+1026811302+1026633291
1103+1027958690+1029455295+1030517827+1031938922+1034024585+1035270884
1094+1033991689+1031101128+1029970412+1032853348+1038230675+1042282755
1085+1043090494+1042292175+1042378975+1044507776+1048697194+1053931202
1077+1058471633+1061396809+1062952403+1062881527+1060543539+1057168888
1068+1055176304+1055522008+1057482518+1059822974+1060987108+1059848916
1060+1057551225+1056947813+1059362807+1063597682+1068182148+1072171202
1051+1073741823+1071180518+1066330942+1063564412+1064554349+1067442294
1043+1070300857+1071961118+1070878475+1067052181+1063779506+1064538350
1034+1068894041+1072734766+1072499337+1068980467+1065984266+1065679532
1025+1066861161+1067207388+1065956678+1064181357+1063223568+1063552077
1017+1064876652+1066663114+1068071649+1068005857+1066590220+1065530455
1008+1065922287+1067238041+1068445314+1068354851+1065560584+1060372556
1000+1055327999+1052213298+1050730299+1050227069+1050543018+1051003408
991+1050309458+1047842579+1044244834+1040719535+1038440984+1038231498
983+1039845930+1041470978+1040363439+1035487098+1029342702+1025216832
974+1023067321+1019576114+1013244736+1006815493+1003124145+1001848539
965+1001201615+1000288385+998543342+994827099+988924037+982588024+977720430
955+974454334+971675768+968683977+965726279+963243251+961208950+959254645
945+957132573+955060666+953911634+954599902+956840324+959205601+960593277
935+960705047+959526932+957633559+956213586+955723515+955385661+954664048
925+954099438+954184145+954648423+954999286+954719149+953206170+950517319
915+947770677+946049334+945436053+945643221+946868512+949253451+951966824
905+953365341+952076277+948323400+944226537+942200834+942791537+944182652
895+944016229+941767284+939172560+938169539+939009651+940664156+941907315
885+941680858+939932002+938220378+937831835+937889178+936933408+935173413
875+933617221+932222219+930437327+928423885+926875843+926485804+927549382
865+929542040+931371715+932276422+932225957+931642731+931039094+930781611
855+930839178+930742210+929943443+928308526+926573202+926190565+928024651
845+931078719+933212828+933405418+932492861+931526698+930730323+930131920
835+929753694+929271847+928648847+928500816+929066398+929725808+929940976
825+930072633+930939435+932779876+935218943+937895010+940396504+942220946
815+943467319+944925123+946908136+948305008+947450766+944193044+940455268
805+938288786+937609938+936711063+935296473+935309407+937978221+941716894
795+944054807+944575232+944685433+944990391+944674592+943657591+943479057
785+945330787+948141501+949354830+947772247+944719749+941744930+938738112
776+935504388+933379176+933388521+934446044+935123695+935764713+937272384
766+939331954+941240354+942719166+943238545+942551996+941793825+942423628
756+944309973+946047839+946681380+946126414+944473629+941875840+939065648
746+937207265+936792106+937237469+937957960+939410754+942451515+946540900
736+949602220+950473060+950334300+950524796+950299684+948301120+945317928
726+943666413+944045237+944450004+943118849+941363265+941946715+945491751
716+949453218+950518366+947984050+944621510+943908421+946412682+949237900
706+949139961+946054418+942942259+941916660+941428159+938529448+933767046
696+930740865+930451233+929496211+924993909+919168003+916410595+917522470
686+918770339+916207015+910283992+904405603+900692798+899340186+899889395
676+901537769+902560452+899820837+889976870+874025888+862223504+866136075
666+880040944+890496248+892546100+888397427+882964401+879798413+878615587
656+877083245+874657934+872989972+872738319+872511713+871540093+871130691
646+872388429+874025962+872954011+867467006+859835798+853798463+850973917
636+850778561+852068821+853128063+851066474+844098414+834906529+829316126
626+830601975+836098027+840062110+839500041+836110587+832567494+829516117
616+826541223+824108511+823822094+826673479+831065506+833196026+830515998
606+825742830+824331005+827974355+833151916+835244084
##END=
