##TITLE=<SNM>
##JCAMP-DX=4.24
##DATA TYPE=INFRARED SPECTRUM
##DATE=3/5/2025
##SAMPLING PROCEDURE=Instrument type and / or accessory
##ORIGIN=Admin
##XUNITS=1/CM
##YUNITS=ABSORBANCE
##RESOLUTION=4
##FIRSTX=4497.3318
##LASTX=599.83466
##DELTAX=-1.4281778
##MAXY=1.7155645
##MINY=0.18129599
##XFACTOR=1
##YFACTOR=1.5977439e-09
##NPOINTS=2730
##FIRSTY=0.20360799
##XYDATA=(X++(Y..Y))
4497+127434682+128236574+128990993+129103591+128574403+127657881+126497074
4487+125281894+124567027+125038000+126722968+128536333+129070193+128107981
4477+126842560+126392842+126823310+127722858+128733259+129201378+128321089
4467+126127227+123805426+122692537+123161728+124499728+125672631+126136535
4457+126019265+125684336+125282509+124800345+124388641+124294995+124454168
4447+124611887+124812525+125139825+125245371+124866637+124417469+124439237
4437+124909753+125390732+125453284+124956496+124185196+123554863+123102730
4427+122584193+121955483+121327156+120578126+119433118+117952686+116675821
4417+116139657+116398865+117155663+118169207+119298091+120268248+120659257
4407+120237434+119275250+118340150+117750425+117516715+117630199+117905131
4397+117858285+117360405+116986716+117169131+117564672+117726969+117798129
4387+118159974+118881612+119686254+120120127+119767067+118645739+117308737
4377+116343728+115934645+115918417+115974235+115822635+115467599+115153216
4367+115060204+115178733+115370865+115381759+114946198+114133330+113469991
4357+113496637+114221334+115177642+116030417+116861463+117767893+118560542
4347+119010353+119020043+118529476+117651053+116818263+116468365+116714694
4337+117325077+117715675+117261219+116031136+114813736+114189997+114167007
4327+114697781+115740031+116770932+117046713+116522906+115945463+115883079
4317+116188490+116553748+116935990+117165764+116909736+116467666+116767173
4307+118045316+119345739+119774743+119504073+119204510+119193952+119380349
4297+119503420+119365903+119136670+119247915+119789199+120331220+120531653
4287+120534861+120624786+120796224+120758303+120240437+119356222+118673345
4277+118755557+119627731+120839414+121983397+122893698+123387007+123241292
4267+122613142+122122472+122194341+122487767+122301286+121512816+120812619
4257+120932725+121907956+123187852+124213921+124756781+124897442+124796913
4247+124460314+123826811+123109277+122742415+122854061+123104968+123219282
4237+123331506+123645077+124060828+124341067+124451324+124538432+124703742
4227+125013023+125560780+126223494+126510513+126075699+125255957+124704815
4217+124650740+124901014+125339493+125987275+126677875+127027372+126789213
4207+126180005+125833120+126267421+127252753+127914702+127698180+127003925
4197+126627354+126839790+127339162+127797851+128051352+127976153+127610727
4187+127351818+127601168+128116674+128146136+127431474+126643358+126548089
4177+127180389+128087090+128986535+129869016+130695892+131315285+131631300
4167+131725217+131760909+131731577+131394251+130644877+129880506+129686750
4157+130110989+130546363+130506371+130239142+130346582+131016906+131843606
4147+132284827+132177676+131867453+131880165+132395634+133036337+133247887
4137+132829459+132009233+131168040+130687042+130874409+131687659+132579932
4127+132958238+132785327+132456628+132217677+132045764+131997071+132280929
4117+132928440+133657782+134201164+134609035+135050695+135457362+135614530
4107+135513507+135378731+135429094+135739280+136182143+136465021+136426055
4097+136236562+136119814+136052674+135948759+135867555+135836516+135774114
4087+135757382+136013260+136503725+136906466+137097181+137227545+137313992
4077+137238019+137104857+137098496+137105528+136934380+136713373+136716339
4067+136966230+137168687+136966043+136383452+136030841+136540462+137800176
4057+139070213+139793157+139977343+139878363+139632202+139291687+139053025
4047+139169064+139551650+139724934+139374841+138737691+138319459+138424231
4037+138965432+139607338+140134325+140618084+141095790+141304832+141013821
4027+140467911+140247184+140685794+141520253+142193216+142535028+142947990
4017+143721193+144425810+144393541+143639065+142873323+142642234+142845894
4007+143108814+143258400+143388708+143713937+144316086+144860905+144794463
3997+144021643+143102118+142644566+142833863+143515090+144272830+144560409
3987+144273110+143965283+144057288+144259036+144198797+144105403+144420690
3977+145124170+145790418+146099960+146132687+146224337+146539428+146853961
3967+146916932+146864397+146992327+147264713+147367200+147202366+147043659
3957+147126132+147257084+147048509+146616800+146733660+147844142+149158713
3947+149478319+148829931+148281745+148349492+148561144+148446766+148155606
3937+148176235+149052691+151039452+153505047+155036690+154808147+153572085
3927+152666382+152460624+152195064+151328112+150578831+151001493+152467581
3917+153665340+153554300+152322295+150822026+149750481+149468321+150208453
3907+152275877+155733491+159708300+162600875+163523478+162641053+160299797
3897+157332872+155383687+155630761+157487969+158842812+158457446+157911032
3887+159086939+161243421+162375979+162677165+163358326+163290300+161014981
3878+158305687+157767089+159563200+162443427+165614004+168024816+168193791
3868+166737478+165739481+165477913+164491966+162320786+160329884+160043135
3858+162404518+167936775+175485171+179739267+176348849+169521905+164308927
3848+162058659+162414031+164557195+167515801+170625215+173726328+176309828
3838+177048962+175534023+173382278+172100778+171711029+171673350+171830705
3828+172050770+172262777+173509304+177042676+181358923+182624997+180672781
3818+178778967+177414033+174834973+171504879+169575681+170189822+173147832
3808+176872488+179389975+181066709+183489310+185730885+185533577+183858727
3798+182855955+181955233+180050861+178208603+178026142+179438286+181400724
3788+183475395+185743719+187936219+189972727+192637198+196298136+199775718
3778+201958426+203630253+206303939+210794869+217039102+223796957+229305562
3768+233393164+237328055+241836108+247270476+254385624+263248834+272355686
3758+280346283+288035003+297293223+309192429+323157931+336331624+345941560
3748+353443510+361997961+371892538+380179284+386032928+392698564+402846072
3738+416926400+433518583+449666794+462009880+468746620+471199606+472458592
3728+474385123+476759581+478976796+481306040+483800025+485894506+488007825
3718+491560540+497454773+506162101+518010218+531148396+540881664+545183361
3708+547349692+551538951+559562694+569566911+576888900+579302566+580077663
3698+582999392+588864713+596764639+605443392+613484817+618838605+619115822
3688+615127080+611390934+610635945+612285967+614707542+616883386+618971599
3678+621356726+622909680+622162786+621438388+623791134+627662737+628606268
3668+626070538+623844332+624112372+626134032+628420188+631218698+635817870
3658+641216872+644393137+645537297+648889793+656729471+665698535+669305380
3648+666512914+662728494+661362143+662318283+664483345+666730480+668496522
3638+670237123+672652132+675632991+678702935+681852863+684773063+686045256
3628+685782700+686370560+688322981+690412164+691670329+692479336+694074893
3618+696930629+699875675+700979172+699591034+698030694+699922008+705688022
3608+710914001+711315035+708286798+705740399+705310341+706394887+709065812
3598+714421017+720632309+722944056+720063474+716396045+716180419+719161427
3588+721708946+721668805+720958508+721871896+724052254+725175746+723630776
3578+720500770+718009433+716949509+716990993+718022043+719784056+721006707
3568+720392584+718718163+718376445+720589109+724266163+726668713+725524553
3558+721773410+718627138+718043381+719690196+722334484+725383165+728830716
3548+732161277+734473696+735429687+735060437+732927606+728843027+724541180
3538+722544589+723217506+724782248+725805239+726108832+725429946+723551688
3528+722166759+723769030+727857863+730695394+730292569+729462895+731477989
3518+735133630+736973388+736695537+736373740+735955396+734371329+732711085
3508+732220816+731705777+730012032+728257703+727605752+727525023+727139135
3498+726333336+725505154+725344442+726426227+728204356+729214366+728675823
3488+727065792+725227228+723741872+722948981+722943236+723499461+724116718
3478+724816345+726919331+731322574+735943831+737216844+734828844+732097559
3468+731239085+731419569+731475303+731742634+732773908+734255011+735368058
3458+735169294+732640056+727702150+722726267+721312239+724515588+729269727
3448+731480153+730382252+728468106+727750125+727924565+727699165+726887845
3438+726891203+728843624+732056523+734664700+735134749+733269399+730482753
3428+728741780+728485565+728302246+727108544+725581929+725286171+727032367
3418+729959580+732022575+732048465+731088669+730811265+731405318+731873204
3408+731503879+730496034+730053292+731487689+734117055+735185112+733227841
3398+730394563+729746864+731426284+732892465+732368919+730844691+730558558
3388+732655351+736291444+739079881+739133974+737164169+735378877+734788405
3378+734899501+735090057+734765723+733664689+732889331+733551354+734875103
3368+735634195+736611525+739256038+742724181+744656756+744032784+741637770
3358+739015119+737620266+737477983+736755450+734391847+732218578+732426370
3348+734551515+736843938+738587374+739066302+736624134+731115230+725581481
3338+723386649+725199622+729319791+733577692+736419849+737073293+736031574
3328+734691635+734197560+735393724+738800463+743334574+745654305+743128946
3318+737019050+730810892+727260079+727731546+731970720+738017196+743078211
3308+744872680+743022252+739666771+737654139+737319285+736901314+736201985
3298+736951005+739479423+741295380+739499493+734171372+728866007+727414375
3288+730520804+735531531+739142256+740014086+738995645+737745463+737465896
3278+738486201+740766612+744084265+747230537+748210329+746312150+742933764
3268+739497703+736347701+733979920+733058773+733148679+733279472+733639172
3258+734869507+736265554+736594961+735930774+735061407+734248893+733841741
3248+734469741+735971139+737113956+736528558+734025955+731029950+729460507
3238+729966743+731384427+731914389+730778959+729029554+728222785+728417445
3228+728418117+727558598+726398397+725835979+726299836+727730129+729475579
3218+730559826+731119259+732563206+735133033+736830061+736080518+733839502
3208+731959529+731204465+731535962+732459646+732669303+731088594+728373947
3198+726354302+726169490+727671932+730081495+732113078+732298486+730082241
3188+726521057+723354790+721255236+719734515+718454786+717880132+718505597
3178+719918580+721433706+722968380+724630862+725995348+726335425+725414725
3168+723714788+721909799+720297231+718705479+716889298+714908227+713215154
3158+712580885+713607608+715887347+717797538+717862972+716315987+714699540
3148+713889637+712950658+710556166+707185838+704865883+704757772+705981094
3138+706941114+707215160+707226949+706685422+704901025+702140343+699508663
3128+697803205+697116634+697162744+697578850+698245126+699336013+700777424
3118+702084683+702883096+702843179+701311489+698033380+693944920+690287936
3108+687486815+685699434+685522009+687019601+688675816+688745055+687472266
3098+686715934+687612535+689569208+691196475+691382629+689709477+686576262
3088+683060741+680297373+678758595+678060385+677567057+677179976+677227055
3078+677622046+677929592+678344131+679446882+680746680+680747949+679078975
3068+677204970+676237191+675580838+674485623+673235888+672140300+670981740
3058+669971880+669866380+670639500+670967639+669542419+666645871+664072761
3048+663437821+664687108+666424948+667440403+667345424+666026301+663546455
3038+660824645+659404350+659794118+660602454+660165382+658554381+656940545
3028+655839063+655128691+654880684+655139286+655456159+655282689+654510614
3018+653479117+652501862+651421345+649991649+648448395+647129347+645996080
3008+645245642+645637872+647180231+648312603+647412048+644660021+641737358
2998+639947738+639076804+638148942+637046191+636650529+637192652+637655987
2988+637360229+636673285+635695358+633944313+631734931+630213314+629677980
2978+629262546+628418472+627582456+627253869+627212460+626845523+625871513
2968+624480540+622991230+621773056+621349303+622061390+623538725+624728734
2958+624657144+623270275+621327964+619386846+617404469+615574000+614519933
2948+614083272+613145039+611298491+609434484+608151174+606903119+605273614
2938+603857758+603260833+603143358+602731431+601786445+600801318+600454862
2928+600932932+601602566+601397647+599858869+597753235+596350100+596199572
2918+596740390+596898939+595909336+593733828+591085995+588992037+587913050
2908+587380215+586768181+586007858+585260927+584634717+584402863+584603231
2898+584495306+583340514+581447857+579728707+578653189+578004409+577215883
2888+575806294+573853799+571972146+570633401+569771495+569063921+568331912
2878+567658362+567173763+566653277+565521465+563656339+561880597+561113894
2868+561279717+561447965+560899537+559753325+558722350+558444387+558793939
2858+558752978+557408711+555094502+552928283+551527760+550757513+550339243
2848+550008269+549279879+547868015+546215791+544955089+544091467+543278319
2838+542499753+541959345+541670824+541466539+541062670+540152043+538800278
2828+537491787+536554262+535914473+535400105+534897749+534294071+533495248
2818+532470242+531348279+530452835+529920336+529399999+528457065+527052961
2808+525486316+524190696+523495843+523194564+522624984+521446316+519918656
2798+518383572+516975624+515793749+514948145+514393673+513813199+512771406
2788+511131307+509229211+507543636+506393508+505950244+506181314+506746567
2778+507125255+506862289+505755695+503911460+501603667+499119568+496768687
2768+494860585+493577425+492933308+492760994+492700559+492439831+491945794
2758+491232625+490183333+488934718+488003684+487603732+487265259+486427116
2748+484926614+482837618+480441075+478342939+477044521+476398203+475840112
2738+475030172+474017701+472952965+471839433+470573881+469238232+468193566
2728+467644578+467286184+466686684+465804446+464858491+463960174+463056224
2718+462021370+460802450+459600578+458687078+457935708+456894735+455435456
2708+453979235+452974225+452450904+452141193+451754261+451078210+450080885
2698+448951722+447836511+446631021+445228035+443736412+442297949+440987071
2688+439976129+439445570+439211702+438765267+437848037+436755023+435886550
2678+435232286+434521952+433646243+432658132+431615891+430658072+429947924
2668+429416321+428820030+428028966+427069170+426039240+425072617+424216605
2658+423421326+422723079+422174987+421624357+420917306+420209360+419700624
2648+419222405+418414741+417234059+416059458+415275408+414847887+414400892
2638+413641800+412601573+411558735+410840492+410564618+410501572+410300607
2628+409805265+409065459+408206351+407369775+406609936+405841928+405060265
2618+404463676+404152287+403916329+403550959+403103853+402599408+401877360
2608+400945282+400104863+399502678+398937126+398254659+397546974+396898903
2598+396310558+395860952+395654727+395634246+395611341+395431006+395052728
2588+394541008+393969264+393337682+392684910+392215980+392090298+392106936
2578+391866987+391269278+390603823+390140936+389863047+389624665+389377068
2568+389156145+388894149+388339751+387352760+386287799+385763098+385933323
2558+386286046+386262767+385806745+385239888+384903989+384967744+385338859
2548+385723740+385881132+385787794+385544114+385249848+384994791+384829453
2538+384691348+384436066+383979521+383414044+382964289+382774815+382763660
2528+382770151+382770189+382803353+382800257+382661518+382419965+382181098
2518+381984386+381808527+381647965+381535973+381510233+381567720+381655463
2508+381675720+381506092+381118823+380669478+380306757+379936873+379404486
2498+378848634+378608573+378807859+379214750+379438061+379179422+378475281
2488+377753046+377421922+377376820+377154031+376590644+376035127+375835953
2478+375883966+375816219+375535868+375323674+375411118+375627527+375616075
2468+375303417+374975278+374898056+374989902+374915813+374502431+373978065
2458+373692304+373708383+373843839+373950757+373917257+373571882+372860205
2448+372023032+371446588+371376267+371746188+372205382+372380046+372156735
2438+371673815+371134005+370701522+370424342+370176559+369812681+369380124
2428+369038368+368820392+368623009+368391416+368194368+368128226+368211902
2418+368385261+368573243+368745632+368931450+369148084+369288054+369177033
2408+368826771+368505384+368459909+368690867+369023483+369259179+369282570
2398+369151889+369032101+368986066+368920669+368715004+368311619+367757036
2388+367203385+366740237+366182482+365124573+363222216+360391512+356808392
2378+352836923+348956031+345540115+342482258+339176206+335235924+331132393
2368+327746882+325491353+324144811+323287307+322800246+323145621+325020073
2358+328654002+333723820+339921906+347222668+355351538+363156484+368941187
2348+371452780+370658210+368002357+365382540+363307832+360932591+357642170
2338+353640446+349430595+345315350+341469152+338318366+336430148+335844750
2328+335844974+335569995+334730360+333790672+333534868+334356522+335970806
2318+337783592+339348633+340528755+341480493+342512400+343842939+345463378
2308+347173388+348674039+349721167+350305558+350657013+351023092+351471056
2298+351928608+352355906+352770407+353112797+353267540+353262616+353286678
2288+353467647+353756839+354007047+354066736+353876180+353551547+353294848
2278+353199420+353225161+353310889+353406205+353461865+353463767+353396132
2268+353167450+352728737+352259247+352026647+352038921+352035078+351843030
2258+351581070+351494298+351703731+352094208+352398882+352453683+352362285
2248+352330165+352405298+352494682+352559221+352665877+352876355+353149431
2238+353361103+353441123+353484584+353639812+353882745+354052374+354134408
2228+354307469+354634228+354934015+355073201+355164525+355359036+355625547
2218+355835987+355926192+355921640+355915634+356049188+356443395+357088967
2208+357783969+358258718+358462407+358649046+359050752+359594852+360091165
2198+360513277+360929457+361359328+361843479+362458572+363168309+363823506
2188+364319557+364636878+364819750+364998070+365285360+365634353+365963723
2178+366361288+366969964+367762781+368585181+369341513+370064158+370878910
2168+371910967+373145145+374416479+375622678+376904047+378530082+380646685
2158+383205320+386085977+389173865+392335880+395424291+398306328+400880221
2148+403139442+405233214+407372684+409672643+412142156+414759883+417461212
2138+420113596+422637538+425154353+427881311+430843853+433848178+436779644
2128+439720400+442740094+445778478+448705505+451287419+453169072+454059256
2118+453887240+452764643+450877768+448408628+445561584+442672832+440085099
2108+437752460+435197182+432053895+428486817+424971482+421829239+419006779
2098+416179619+413073413+409721551+406343202+403036628+399804554+396804818
2088+394249988+392069369+389981268+387894361+385973538+384349107+382970519
2078+381709295+380501604+379436531+378689936+378308338+378125280+377931702
2068+377646091+377319183+377049240+376875397+376732666+376539237+376283806
2058+375966448+375516544+374865525+374107179+373501785+373238147+373234305
2048+373259076+373191739+373080904+373043002+373195619+373615940+374312546
2038+375268649+376467685+377833812+379225084+380547527+381809162+383007153
2028+384017461+384680492+384963976+384927753+384559174+383801388+382720050
2018+381463153+380090609+378618571+377171490+375901574+374806359+373770348
2008+372755227+371838445+371071779+370378606+369628914+368779729+367881450
1998+367016708+366357893+366145289+366352185+366485552+366051130+365127147
1988+364166941+363460486+363062138+362952870+363002113+362961525+362692814
1978+362313155+362031424+361903243+361804420+361645461+361532911+361604836
1968+361757826+361712462+361349815+360793889+360187898+359608655+359163787
1958+358953049+358926151+358920817+358824046+358626849+358385893+358187838
1948+358157807+358493184+359300624+360213079+360456908+359698338+358479007
1938+357479071+356878340+356559900+356429592+356435897+356544008+356731506
1928+357017229+357549429+358402904+359236496+359661032+359902660+360320668
1918+360498429+359779142+358480761+357570507+357490934+357898086+358182690
1908+358040519+357648475+357331714+357173986+357061436+356938589+356884906
1898+357018348+357311196+357548534+357708015+358141243+358902537+359283762
1888+358701013+357598747+356758888+356398741+356350803+356470255+356624924
1878+356694648+356685993+356736467+357174956+358501540+360791128+362940970
1868+363248442+361469976+359193706+357827019+357486495+357560956+357578602
1858+357501379+357488584+357575767+357676230+357864549+358399845+359487450
1848+361307697+363895618+366323311+366718973+364656090+362101708+360799708
1838+360776691+361117216+361357612+362153003+364323064+367249084+369020312
1828+368929100+368173626+367475566+366411575+365030638+364154965+364127658
1818+364488924+364805014+365287971+366445710+368218617+369703376+370102918
1808+369777539+369782314+370748490+372604961+374846052+376729831+377684926
1798+377955130+378606260+380647394+383899949+386408184+386195170+384209025
1788+383061582+383911849+386072360+388440215+390560548+392296224+393509175
1778+394620133+396739011+400742302+406085831+410377456+411554408+410458708
1768+408970554+408062687+408501885+410753757+413855971+416115528+417391488
1758+418649989+419985116+421324981+423662133+427818526+432759491+436203088
1748+437291065+437218879+437370452+438438023+440513328+442956317+444852593
1738+446696604+450343814+456124600+460716908+460902540+458731882+457160500
1728+456877687+457825769+459788561+462284374+465532452+470850799+479005857
1718+488013496+493338633+493218845+490788130+489206600+489685155+492519814
1708+497534084+503590521+509040408+513962310+520176884+527852268+533903594
1698+536484688+537082135+536477749+535463785+536188407+539584551+544673358
1688+550911771+559559262+570707602+579362218+581217234+580191519+581034474
1678+584984568+591195748+597715668+603249231+608806632+615441192+621555416
1668+625024343+627337955+631358817+637268159+642698497+646132096+649141979
1658+654151436+662523165+674630144+687950075+695300229+696337621+698459931
1648+703690760+708351635+708940390+707720724+708427290+712029510+718041740
1638+725421664+731330558+731662353+727299026+723759032+723397020+724964821
1628+726496287+727239785+727463544+726633347+723835882+720401388+718854701
1618+719177245+717914230+712607671+705819486+700634991+697421570+695017677
1608+692254608+688955085+685924386+683974054+683042088+682275833+681019085
1598+679531267+678430680+677723218+676892574+675743788+674502559+673226711
1588+671752398+670159229+668833093+668046245+667857181+668571059+670856692
1578+674779366+678390390+679011303+677933323+678799408+682282846+685760764
1568+687243434+688416841+691523942+697101414+705699139+718757931+734926435
1558+745502322+747009390+747169953+750252208+755986736+763417247+771939242
1548+781236893+791463824+802622497+813747820+823554169+830155975+830293856
1538+825289695+821131176+820110796+820482433+820206969+820074610+822287348
1528+827318667+833728201+840205555+846737824+852607621+855670254+856006153
1518+856179101+857007283+857656101+858284848+860131023+864318193+871568816
1508+880899743+886545708+883171649+876402490+873279572+875080980+879938604
1498+884761236+886900334+886274646+885342158+886426629+889778379+893037463
1488+893234286+890642375+888165214+887782908+889360035+891701179+894048964
1478+896560669+899750364+903722878+907178711+907459323+904183975+900997562
1468+900964062+903782343+906605176+907063736+906561380+908185661+912577713
1458+916771449+916717430+913169080+909648186+906954356+904944186+904075714
1448+904241052+904226876+903027728+900840879+898946505+899133928+902316685
1438+907104846+910156511+909805840+908382858+908172157+908797248+908937144
1428+908577369+908791876+910090630+912331571+915483514+919059992+921046585
1418+919571600+915995420+912840792+910603431+908689957+907103951+906537131
1408+907384265+908868576+909290725+907826111+905611955+904091606+903567464
1398+903784060+904415642+904523380+903051305+900398809+897878896+895761138
1388+893286962+890418915+888620043+889266697+892093335+895555584+898397518
1378+900781563+903671994+907289882+910670208+912870711+913997113+914661151
1368+915284451+916219253+917838983+920067017+922055251+923022061+923447866
1358+924411915+925873395+926725453+926525048+926013142+925913312+926343146
1348+927272426+928778823+930953211+933713446+936429137+937986045+937963886
1338+937409377+937695659+939079469+940693604+941655415+942178736+943381018
1328+945721938+948188802+949574403+950096009+950962690+952435288+953212959
1318+952245179+950400273+949282824+949215748+949428613+949481140+949425853
1308+949033548+948065246+946931010+946319349+946670319+948078751+949864789
1298+950531215+949289464+947358979+946533856+946833419+946704864+945094087
1288+942295428+939066039+935721750+932082001+928095983+924428255+922023169
1278+920992567+920444027+919487663+917901806+915846272+913495727+911112353
1268+909097184+907614663+906299421+904603363+902265576+899321500+896012577
1258+892765879+889886341+887428580+885587329+884607165+884194342+883742647
1248+883070551+882215285+881031283+879879662+879875931+881517597+883743915
1238+885029463+884947316+884258134+883964764+884619102+886141615+888044046
1228+889999004+892139594+894569227+896828672+898298733+898919272+899143479
1218+899490718+900335539+901708754+903284464+904901136+906851542+909290501
1208+911643136+913099244+913753359+914808433+917225308+920457979+923123010
1198+924720282+925952931+927602878+929867248+932543470+935291767+937868085
1188+940325996+942838894+945242488+947099705+948586106+950785564+954329512
1178+958164518+960548191+960900056+959974954+958983001+959229441+961609831
1168+965511987+968787709+969750862+969112565+969166807+971224429+974560437
1158+977641126+979645550+980740989+981762936+983676186+986352110+988330645
1148+988717951+988564924+989356323+991185412+993277803+995222240+997012606
1138+998476176+998875419+997548612+995249846+994249984+996375130+1000845374
1128+1005235709+1008209704+1009868755+1010557862+1010937035+1011945030
1120+1013572744+1014799647+1015482636+1017104829+1020726820+1025061123
1111+1027502321+1026902224+1024568019+1022687150+1022530542+1023892715
1103+1025527964+1026220354+1025990403+1026048376+1027337281+1029748485
1094+1032879760+1036534581+1040388911+1044177210+1047666319+1049446538
1085+1047501131+1043087069+1040911859+1043280460+1047289608+1049246058
1077+1049051697+1048305960+1047441069+1046624153+1046752857+1048494352
1068+1051588769+1055365280+1059276539+1062693723+1064640100+1064304649
1060+1062134290+1059428447+1056788635+1054624468+1054308266+1057077976
1051+1062182339+1067276331+1070790435+1072795532+1073741823+1073390480
1043+1071313235+1067951262+1064658902+1062843318+1063486987+1066643033
1034+1070181460+1070787152+1067872996+1064434547+1062878087+1062414902
1025+1061424067+1059797398+1058198335+1056995531+1056844071+1058761126
1017+1062321787+1065184985+1065649662+1064623238+1063774165+1063189513
1008+1062310670+1061588659+1061449286+1060841952+1058352780+1053668328
1000+1047979014+1044458195+1046356001+1052576172+1057006424+1054867998
991+1047942082+1041232761+1037676577+1037101773+1037595698+1037346274
983+1036190698+1035296112+1035323495+1035491220+1034212910+1030291057
974+1024113936+1017780357+1012892888+1008804876+1004261364+999549231+995967903
964+994151274+993164543+991028728+986672565+981259387+976858232+974243862
954+972610926+970508686+966502522+960355844+954161115+950919416+951847502
944+955552834+959342477+961109191+960650333+959291219+958019325+956595747
934+954630717+952495275+950997534+950653801+951136161+951625012+951773339
924+951891747+952035522+951473328+949723625+947750910+947245943+948630723
914+950414747+950922251+950164800+949272453+948299600+946110289+942894554
904+940892219+941532605+943161662+942922459+940328383+937284478+935150976
894+933913254+933625628+934655186+936349751+936966859+935748386+934029796
884+933387843+933645848+933517965+932651059+932023581+932350825+932886457
874+932327621+930684835+929518292+929986775+931430349+932264724+931657017
864+929981477+928069197+926688297+926593615+928339364+931441540+933912508
854+933857370+931705290+929463080+928033981+927020390+926621818+927555650
844+929174261+929709222+928695034+927480367+927077692+927247655+927776871
834+928818292+929966108+930725648+931507496+932791701+934411357+936381386
824+938613076+939844382+939141247+937621272+936554931+935737568+935223050
814+936130171+938696864+941611394+943885463+945470798+945884217+944342456
804+941337646+938600765+937674096+939115805+941951844+943769965+942958720
794+940881176+940340321+941983181+943821671+944422588+944627470+945392232
784+945794759+944572407+942446515+941225879+941164026+940805297+939419845
774+938039317+937604186+937511668+936763842+935785319+935917529+937399826
764+939184373+940485812+941394500+941642582+940273171+937190393+933571386
754+930813913+929684302+930121373+931771023+934728752+939101181+944104596
744+948229988+949988569+948792331+945900706+943633278+943078843+943251568
734+942953646+942559551+943313644+945566375+948269681+950180692+950644400
724+949404663+947118060+945615021+945748649+945683141+944136007+943219336
714+944457655+945494226+943695429+940256010+938090724+937462947+936572465
704+935269160+934656976+934609748+934080532+932066109+928164849+923505764
694+920384189+919987631+920356881+918294036+913617045+908983179+905535404
684+901675030+896119494+890692812+888806720+891419672+895787848+898747966
674+900079697+899886679+895100756+883322065+869664519+864340203+867386048
664+871280743+873047606+872949716+870797860+866588755+861851926+858762284
654+858299173+859180031+859694921+860484082+862957959+865378863+863992739
644+858191360+851322223+846671271+844725341+843948193+843851497+846341117
634+852507493+859310675+862096053+859714544+854275252+847362467+838720050
624+829062923+822252580+821901684+826834815+832490628+836178053+838470029
614+839041027+835928479+829528794+822646227+817638485+814771632+812634623
604+810959382+812692820+820818407+833034393
##END=
