##TITLE=<SNM>
##JCAMP-DX=4.24
##DATA TYPE=INFRARED SPECTRUM
##DATE=3/5/2025
##SAMPLING PROCEDURE=Instrument type and / or accessory
##ORIGIN=Admin
##XUNITS=1/CM
##YUNITS=ABSORBANCE
##RESOLUTION=4
##FIRSTX=4497.3318
##LASTX=599.83466
##DELTAX=-1.4281778
##MAXY=1.7773123
##MINY=0.21387987
##XFACTOR=1
##YFACTOR=1.655251e-09
##NPOINTS=2730
##FIRSTY=0.23364638
##XYDATA=(X++(Y..Y))
4497+141154647+141815798+141780383+141192205+140846299+140982045+140974411
4487+140376682+139691341+139768023+140722417+141776710+142069917+141376231
4477+140145591+139153099+139033899+139847667+140980866+141536230+140986186
4467+139644070+138509170+138429985+139372091+140559798+141287549+141525715
4457+141635562+141622896+141146833+140307075+139820885+140200235+141157060
4447+141951374+142062526+141510853+140731005+140112030+139701775+139450582
4437+139486691+139841275+140127262+139918939+139392049+139160247+139399305
4427+139591136+139336585+138938429+138829680+138802844+138264062+137140586
4417+136150264+136052588+136844562+137828996+138288459+137979570+137208887
4407+136607818+136621951+137030496+137165046+136726982+136137102+135937331
4397+136096349+136176407+136048492+136034097+136329690+136690846+136747147
4387+136384568+135842275+135520702+135520945+135405814+134687534+133487016
4377+132493948+132328007+133009314+133981605+134627542+134678829+134167693
4367+133362576+132785732+132783040+132964429+132577507+131579668+130764091
4357+130654838+130900359+131044937+131290278+132005876+132963312+133524447
4347+133330474+132573357+131777387+131382039+131419255+131655774+131968480
4337+132249993+132131684+131336451+130206719+129407453+129212948+129476330
4327+130103498+131026662+131797228+131830987+131182709+130556820+130474035
4317+130907048+131634700+132345490+132554047+132094864+131513258+131391276
4307+131521549+131249651+130512862+130101193+130761264+132249552+133529984
4297+133843419+133271103+132359470+131630666+131369454+131529597+131842978
4287+132064049+132020207+131660860+131276712+131282851+131660887+132085340
4277+132491103+132953734+133311578+133444488+133510629+133585276+133636932
4267+133936503+134748678+135596421+135557855+134410225+132960612+132166487
4257+132284688+132938466+133679351+134242808+134556811+134800721+135185391
4247+135498394+135247363+134443354+133794041+133885100+134518812+135067055
4237+135269986+135527967+136349567+137531243+138165433+137690675+136637300
4227+135988293+136064723+136378366+136384991+136111824+136089444+136734958
4217+137790547+138550112+138691116+138626839+138889249+139374008+139438123
4207+138760452+137838782+137379743+137484170+137764089+137969145+138135680
4197+138337999+138528633+138521233+138149255+137491678+136783994+136183510
4187+135864457+136086077+136828835+137620772+138025635+138113858+138216575
4177+138367418+138327880+138186885+138449313+139271903+140084024+140317005
4167+140088264+139821452+139619439+139360658+139149804+139323496+139931650
4157+140431398+140216944+139385423+138656970+138565785+138954633+139286586
4147+139270049+139038409+138849162+138851871+139091073+139478597+139817023
4137+140045080+140293941+140536842+140500743+140187884+140121447+140695095
4127+141525715+141833731+141363448+140567568+139939464+139600003+139543648
4117+139795390+140193781+140459071+140597581+140824576+141052867+140972296
4107+140676649+140670419+141216791+142073950+142771966+142936160+142584825
4097+142108438+141706222+141168682+140498826+140155512+140389042+140961619
4087+141635481+142329617+142823981+142840375+142379607+141716871+141168628
4077+140930417+140951851+140912781+140486294+139715467+139018937+138704305
4067+138629117+138553371+138624661+139158897+140053083+140776008+140994972
4057+140977814+141160220+141451563+141312819+140545818+139639731+139205781
4047+139390185+139909666+140404859+140664244+140608249+140228152+139654323
4037+139145204+138863025+138839421+139200470+140045638+141032044+141580702
4027+141636318+141767420+142358406+143073608+143311288+142907253+142219959
4017+141724145+141610608+141659013+141495540+141079937+140830058+141093971
4007+141673939+142107466+142257688+142354418+142533052+142598508+142342256
3997+141946909+141837359+142124327+142484917+142668322+142785037+143009592
3987+143328681+143663217+143944037+144037256+143846829+143535951+143477634
3977+143913429+144740736+145644591+146334325+146605025+146313178+145531035
3967+144714566+144438419+144881551+145690233+146373008+146723073+146803815
3957+146695148+146410295+146042531+145916201+146406091+147410655+148206491
3947+148250818+147886151+147716195+147716330+147517756+147164162+147004289
3937+147220832+147913293+149165107+150626973+151416065+151050227+150255076
3927+150143528+150883027+151655042+151846144+151808550+152182094+152961914
3917+153422889+152873313+151523625+150381154+150203898+150826744+151742203
3907+153066647+155277734+158067295+160196190+160823060+160149396+158626287
3897+156700899+155223018+155065765+156149126+157126584+156846989+156170678
3887+156599604+157881684+158632103+158896412+159679617+160456502+160043978
3878+159124586+159205067+160474381+162280650+164264211+165758675+165678356
3868+164493519+163906566+164317829+164584173+163954386+163075450+163006168
3858+164503296+168005501+172826497+175598899+173436929+168970428+165566294
3848+164216589+164729165+166479223+168651024+170638834+172259583+173318566
3838+173401352+172650807+171855845+171325300+170765138+170190337+170000369
3828+170130543+170302939+171206343+173811409+177016698+178109819+177234015
3818+176911731+177180487+175986487+173416944+171740777+172475963+175506049
3808+179120531+181307996+182451295+184305205+186494560+187003697+186192063
3798+186075987+186746050+187269753+188039239+190135347+193519099+197226558
3788+200783948+204557556+208987022+214375923+221257739+229901730+239509478
3778+249098410+258981702+269984185+282022587+294170944+305069036+313401474
3768+318906307+322174811+323835890+324974112+326948185+330033041+333225889
3758+335964370+339353001+345183144+354529607+366787396+379303266+389974084
3748+400182901+412038177+424404103+433502929+439713872+447358637+458503484
3738+472395201+487108005+500363544+510475712+518192857+526197645+536196455
3728+547351708+556850563+562661549+565812482+567728111+567583029+564915163
3718+561512164+559049371+557538739+556060732+553371296+548887366+543813061
3708+539976761+538534331+539543783+541643133+543142422+544173480+546026993
3698+548759749+551507340+553882018+556160982+558766121+561628330+563695163
3688+564196523+564216868+565177311+567430313+570183954+571963252+572390720
3678+572833888+573858140+574093354+573748528+574321006+574436992+571128374
3668+565074720+559621200+556292093+554448734+553238205+553090386+554840913
3658+557419188+558107148+556661261+556341930+559488794+564939613+568739544
3648+568088962+563880324+558425147+554263826+553456854+555737584+558406278
3638+559256893+558696118+558432241+559293515+560660145+561239428+560495077
3628+559918638+560930395+562800293+564785889+567616230+572332817+578265118
3618+583237264+586016040+587000069+587398118+588712786+591348676+593721481
3608+594427086+594798091+597121060+601218032+604552073+605577118+606104584
3598+608721245+612842452+615523570+615838076+615962813+617776608+620549622
3588+622000298+621047272+619134668+618187188+618758657+620268316+621907754
3578+623239670+624283368+625000676+624907627+624280847+624968267+628075449
3568+631718739+633277155+632557110+630062089+625990503+622359168+621637755
3558+622777021+622006636+617708190+611856082+607502470+606606771+609040937
3548+612565900+614317902+613118068+610248333+607853130+607177881+607986437
3538+609081627+609482988+609149541+608620851+608224315+607670202+606407927
3528+604455568+602404435+600595321+599196679+598917786+600097491+601191997
3518+599975059+596416859+592649265+590085825+588419057+587204135+586427015
3508+585773048+585108314+585220844+586576923+588170484+588851386+588651462
3498+587883381+586142037+583156279+579680289+576782970+575180767+575388037
3488+577405069+580081074+581881761+582297166+581531930+579576690+576765326
3478+574124862+572167642+570454853+568731406+567378064+566553808+565774420
3468+564599252+563200358+561792533+560233181+558864210+558682543+559832252
3458+561100792+561838265+562960211+565008859+566519131+565434779+561458041
3448+556482367+553103458+552423312+553164530+553283865+552267787+551244723
3438+551081925+551297693+550817543+549262404+547364491+546108086+545530603
3428+544621905+542613515+540272434+539212245+539930597+541310154+542013454
3418+541721814+540953228+540234228+539634383+538786397+537435539+536016120
3408+535267880+535260066+535256609+534618522+533360496+531754836+530041579
3398+528716360+528328791+528644125+528650571+527688543+526093722+524555255
3388+523431941+522946606+523349119+524377836+525195754+525226218+524486009
3378+523247932+522082091+521723905+522125843+522217451+521309293+520111115
3368+519714687+520195125+520693532+520607073+520270277+520135205+519924694
3358+519333203+518846788+519048693+519790811+520570631+521155605+521662077
3348+522200310+522424685+521832906+520489718+518931266+517442924+516085189
3338+515245809+515301696+516098548+517296762+518685682+519744755+519467158
3328+517314479+514124836+511377352+509687250+508703364+508229840+508416765
3318+508925110+508975127+508327498+507523803+507165509+507339687+507707991
3308+507954188+508052782+508167868+508500883+509111387+509613142+509403639
3298+508484391+507501729+506778228+506020013+505052800+504170389+503793622
3288+504232541+505526108+507125107+507976154+507396006+506070355+505684730
3278+507039332+508912831+509499857+508680714+507832836+507703742+507615987
3268+506656588+504922518+503458303+503204868+504137909+505369467+505959734
3258+505608930+504696127+503745694+502917801+502068483+501137711+500262358
3248+499523516+498802716+497988795+497245956+496947690+497199792+497469755
3238+497054890+496071581+495396152+495334612+495042611+493768345+491995781
3228+490830372+490829904+491635111+492268517+491897692+490544637+488710209
3218+486563471+484267294+482601606+482150335+482338485+482261893+481908892
3208+481751135+481787036+481650092+481163641+480488464+479970649+479718475
3198+479257122+478072520+476461422+475230836+474633583+474100932+473005525
3188+471376278+469793448+468700670+468024917+467548260+467187373+466634197
3178+465360975+463455572+461821788+461094578+460877189+460266325+458798905
3168+456821915+455097784+454003133+453196810+452301328+451586180+451426767
3158+451372752+450532761+448891919+447435878+446728796+446153042+444971896
3148+443427884+442188152+441323817+440526064+439859818+439626369+439748729
3138+439738538+439114063+437795073+436302446+435390328+435230374+435219283
3128+434774818+433924780+432920693+431783839+430513607+429309343+428321461
3118+427455794+426563480+425658707+424856453+424221355+423797020+423626587
3108+423566092+423229511+422336550+421048168+419841708+419161346+419185869
3098+419692773+420137238+420048727+419351296+418301549+417317771+416797795
3088+416787605+416894949+416752279+416392077+415942751+415238551+414084305
3078+412732367+411710527+411223032+410960199+410457219+409540239+408481670
3068+407713949+407295807+406794880+405886938+404888001+404371229+404313578
3058+403998388+402989152+401864469+401505455+401894465+402099071+401318170
3048+399691156+398160683+397536424+397637250+397631453+397161818+396507310
3038+395764292+394727652+393541214+392708208+392411886+392234576+391574451
3028+390295576+388958510+388213583+388012794+387717841+386937589+385924391
3018+385096499+384490568+383886402+383221380+382572886+381917226+381231535
3008+380664818+380324025+380051470+379597067+378887393+378078585+377412555
2998+376930892+376344659+375399483+374280454+373398367+372889986+372547861
2988+372142359+371616333+371005793+370353950+369730987+369193294+368686282
2978+368115568+367493937+366855850+366106422+365176407+364309228+363920002
2968+364043766+364170555+363800558+362946487+361905022+360861757+359965698
2958+359369022+358953941+358429032+357786156+357246338+356804466+356227343
2948+355416447+354495326+353662248+353096071+352850775+352772275+352623700
2938+352278045+351761706+351201759+350693558+350154209+349451845+348707710
2928+348188094+347868151+347414324+346630795+345673304+344818656+344219855
2918+343871572+343685151+343582380+343510650+343374210+343022902+342357772
2908+341460381+340610558+340108947+340020184+340145028+340254749+340193497
2898+339775644+338862805+337594805+336315210+335230209+334339156+333678887
2888+333330460+333136837+332769937+332152448+331475650+330851391+330336024
2878+330129654+330299186+330472932+330217877+329553395+328825644+328279850
2868+327923500+327663188+327462652+327343136+327251600+327048003+326627449
2858+325959294+325106843+324298647+323777447+323503955+323207273+322741023
2848+322230698+321881550+321736576+321636614+321435213+321174793+320926832
2838+320603396+320099516+319439463+318657914+317762504+316891436+316278051
2828+315979749+315792716+315484043+315026651+314558961+314167178+313803951
2818+313405867+312973358+312533575+312096672+311629846+311060537+310366275
2808+309640181+308993055+308434621+307928509+307486349+307101696+306680278
2798+306181043+305738811+305453653+305128271+304479346+303581090+302806528
2788+302324325+301928546+301396236+300784580+300287488+299914232+299439016
2778+298716811+297933912+297368996+296959172+296345932+295377854+294329890
2768+293531273+292982237+292474126+291926585+291420220+290986216+290572648
2758+290185457+289894213+289705757+289534838+289258952+288741893+287892322
2748+286777795+285628644+284690562+284097523+283827416+283687663+283387867
2738+282754587+281908276+281168192+280754317+280611918+280532121+280366406
2728+280075306+279659937+279146136+278594112+278056023+277519626+276878298
2718+275988938+274884348+273895781+273351859+273154005+272891533+272392406
2708+271903668+271669499+271590566+271421232+271128025+270875365+270698324
2698+270373177+269717067+268908782+268329012+268107410+268007844+267754517
2688+267292282+266722073+266141655+265585742+265055215+264583869+264227232
2678+263950769+263631762+263229969+262829004+262473159+262114631+261751584
2668+261468748+261303320+261177485+261006747+260782336+260493468+260090253
2658+259619555+259256886+259073220+258911034+258609257+258211263+257846577
2648+257518441+257105395+256549157+255975275+255574328+255389564+255295003
2638+255157339+254957883+254778484+254683905+254610410+254417165+254038976
2628+253523393+252990994+252605225+252441166+252372910+252251828+252120628
2618+252055559+251951564+251681655+251327718+251070125+250958784+250909379
2608+250831886+250674255+250406993+250050374+249698094+249453283+249358165
2598+249416176+249624796+249930498+250187552+250223417+249990274+249658681
2588+249480777+249497305+249472963+249213893+248825081+248518677+248314161
2578+248125292+248001077+248017443+248034188+247845805+247514788+247294320
2568+247275307+247334453+247402078+247588499+247997224+248515760+248895101
2558+249024321+249008405+248969875+248911738+248788171+248583548+248303646
2548+247959882+247553084+247062041+246492300+245926088+245479103+245219619
2538+245130712+245114723+245054390+244922361+244799695+244737525+244652974
2528+244438592+244128083+243867267+243750182+243747355+243757996+243686553
2518+243511530+243311821+243201128+243246986+243455517+243758968+243995964
2508+244005291+243800361+243564067+243420246+243313928+243173635+243031020
2498+242879762+242606667+242206584+241884552+241798075+241857040+241880807
2488+241798543+241621881+241362883+241053148+240754702+240491833+240219674
2478+239909614+239626796+239449648+239321490+239079813+238662356+238193423
2468+237836228+237651517+237609746+237626203+237566931+237322589+236897840
2458+236394428+235951386+235693054+235619793+235553590+235313227+234920058
2448+234542823+234288399+234136385+234042940+234012260+234034640+234022451
2438+233886299+233654147+233466519+233451503+233573701+233613258+233409120
2428+233089033+232863163+232688734+232420265+232163014+232173277+232499720
2418+232936245+233256674+233396769+233450765+233517671+233588573+233632181
2408+233686555+233779855+233868259+233903386+233874002+233807277+233797464
2398+233945409+234210906+234437730+234569758+234749103+235193766+236064114
2388+237432022+239275146+241492193+243991769+246762875+249829546+253223471
2378+257084978+261677530+267121976+273142356+279203247+284819224+289625366
2368+293364423+295987980+297583234+298150869+297662095+296217414+293975323
2358+291127013+287988107+284992933+282801147+282232378+283470473+285699690
2348+288027682+290492329+293953988+298603561+302910199+305121394+305081783
2338+303844931+302342150+300904456+299548665+298198995+296651418+294626788
2328+292038106+289082434+285984741+282842810+279804659+277170713+275125215
2318+273444619+271647533+269461580+267031916+264653980+262466893+260457945
2308+258566802+256700955+254786838+252844003+250945496+249162399+247589795
2298+246312109+245279683+244318303+243316214+242338018+241512772+240860173
2288+240278801+239701210+239193711+238837254+238546352+238123799+237520191
2278+236922326+236519759+236270718+235970291+235506418+234980068+234562682
2268+234299057+234121315+234004842+233980302+234006121+233970633+233836912
2258+233669613+233504743+233300804+233045443+232800399+232595289+232390414
2248+232191011+232067157+232024954+231992906+231939882+231885201+231818998
2238+231721989+231654921+231760861+232133864+232677661+233173835+233517527
2228+233787003+234082209+234429700+234831421+235295150+235835994+236480329
2218+237237229+238093011+239040563+240044380+241011197+241887486+242749876
2208+243738713+244934802+246310921+247761759+249161931+250430651+251591541
2198+252740260+253906696+255032764+256114164+257215530+258345776+259481297
2188+260644294+261820542+262900410+263749909+264279572+264534500+264727871
2178+265026443+265374960+265644599+265771388+265690133+265344658+264776034
2168+264076766+263295902+262426256+261463652+260469108+259496799+258505316
2158+257480253+256518027+255662119+254855760+254081971+253377825+252823334
2148+252547376+252603388+253153432+254916850+258760875+264650235+271654915
2138+278983176+286403855+293918482+301624284+309670717+318083960+326811529
2128+335870961+345294845+355009072+364780015+374332956+383586839+392494744
2118+400635863+407427890+412677128+416593298+419591587+422322794+425578983
2108+430020818+435977317+443351760+451682109+460199312+467817322+473570369
2098+477251469+479216467+479747462+478945856+476848847+473442535+468613275
2088+461934318+452862679+441363644+427779699+412399568+395831341+379071185
2078+362863881+347728614+334242471+322614018+312587553+304011475+296849848
2068+290870896+285855539+281680048+278093779+274938759+272311619+270195507
2058+268429082+267004045+265933593+265183606+264931756+265422925+266727186
2048+268977038+272397987+277056347+283102384+291033245+301343338+314258930
2038+329761926+347350299+365965625+384416929+401538332+416225461+427990030
2028+437139810+444219443+449723233+453986605+456942799+458338812+458090527
2018+456176050+452606688+447539009+441104664+433380857+424572267+414885731
2008+404374218+393116771+381372367+369514535+357918634+346856790+336479521
1998+326932341+318396342+310938357+304372578+298356680+292691641+287457725
1988+282801435+278795638+275527495+272996806+270900391+268840850+266738493
1978+264803455+263201755+261915787+260832335+259895028+259179196+258737630
1968+258389725+257833146+256996250+256126713+255502921+255184850+255066073
1958+255055684+255112525+255172787+255173075+255123886+255088147+255119709
1948+255285280+255705493+256420064+257120069+257234309+256566568+255605458
1938+254944397+254744365+254845335+255056170+255266682+255461871+255674128
1928+255959935+256460592+257261694+258141332+258830103+259475104+260280400
1918+260878517+260783092+260273649+260083267+260524436+261358793+262176477
1908+262729042+263067224+263404650+263828121+264234146+264543215+264846702
1898+265288628+265821711+266205464+266403876+266749746+267378471+267813429
1888+267581528+266926571+266414805+266280760+266421070+266620527+266687954
1878+266610282+266552865+266659471+267056403+267982889+269499534+270964668
1868+271316264+270330704+268927507+268001740+267730877+267854768+268103197
1858+268335314+268506646+268612100+268687936+268889247+269439489+270476830
1848+272080006+274204958+276179968+276738402+275588783+274052873+273347106
1838+273540152+274017961+274412103+275077089+276510930+278385563+279663610
1828+280012109+280091690+280160882+279793766+278991242+278421140+278528286
1818+279129734+279844233+280611288+281643948+282931988+284025738+284504663
1808+284523478+284649205+285352415+286763805+288613357+290273158+291185007
1798+291501745+292075160+293655739+296050204+297875234+297865584+296714290
1788+296133260+296842844+298338658+299894139+301330069+302686760+303821453
1778+304835047+306401637+309157150+312707644+315343930+315720193+314588128
1768+313375799+312831589+313449438+315395424+317838664+319539965+320458674
1758+321365463+322392488+323525813+325493836+328871701+332830361+335651052
1748+336762591+337106697+337703301+339044508+341135144+343358150+344905223
1738+346143875+348540915+352449666+355540283+355436000+353477771+351770780
1728+350840549+350670836+351200139+352239335+353971857+357115372+361910495
1718+366882713+369260236+368278331+366031775+364456182+364307175+365770418
1708+368632376+372004551+374825061+377354723+380889949+385432755+388905864
1698+390223665+390311168+389389435+387810061+387129735+388215347+390662188
1688+394190536+399342333+405664148+409719854+409282267+407350758+406993328
1678+408893834+412353512+415912143+418604712+421160338+424404355+427324035
1668+428517964+429062391+431014570+434602297+438191933+440520483+442450012
1658+445697919+451384852+459835760+469161050+474190271+474785507+476371650
1648+480557350+484843589+486623139+487129179+488777295+492300169+497654159
1638+504726771+512463072+518084432+520191740+521344798+524287453+529654262
1628+536564471+543982738+551790986+560029763+567910571+575068273+582750453
1618+592152767+601895082+608698631+612177718+614560462+617019186+619429369
1608+621600809+623738689+626096010+628710007+631666813+635442834+640558405
1598+646904419+653829176+660843741+667879911+674894908+681526332+687295187
1588+692158692+696606937+701053958+705467129+709650921+713632267+717838024
1578+722799836+728206795+732843729+737025793+742908509+751812704+762885532
1568+773952237+784330947+795035542+806662986+819370354+834037930+850787356
1558+865007047+872619513+876213758+878073069+878583250+877941418+876235940
1548+874117217+873137328+873879987+874630783+872680513+866352288+857132506
1538+849787590+846378362+844979395+842998877+839472761+835742545+833251845
1528+832204330+832576812+834720021+838200188+840756498+840051145+836935969
1518+834033465+832338934+831670527+831859648+832848323+834792040+837859683
1508+840901760+840590998+835879092+831029415+828898953+829214107+830759128
1498+832160903+832418514+831807938+831535923+832203610+833290879+833625838
1488+832368749+829913771+827503515+826013877+825292753+824820741+824785308
1478+825780104+827749460+829966272+831585544+831877365+830898916+829769229
1468+829318391+829347342+829131790+828360540+827759614+828407568+830417614
1458+832079594+830927652+827623067+825013247+823981217+824021980+824487150
1448+824589056+823773155+822421865+821187029+820014707+818782392+818062419
1438+818169655+818054281+816684411+814934496+813835128+812925602+811488394
1428+810162023+810097134+811132621+812103507+812517471+812684555+812269366
1418+810401989+807564879+805183935+803813128+803084730+802353090+801266325
1408+800137070+799480834+799244828+798984336+798621361+798351794+798094975
1398+797715940+797542446+797975496+798835185+799701644+800510343+801057471
1388+800395113+798024829+795777624+796458851+800634072+806247366+811133485
1378+815072052+819012420+823205574+826935503+829691376+831701639+833280220
1368+834564748+835924176+837793282+839947150+841465019+841717733+841019222
1358+840020825+839179861+838798377+838792471+838539109+837715357+837087713
1348+837603224+839054692+840490460+841462138+842172964+842928298+843953631
1338+845351733+847140177+849452631+852331440+855407438+858282287+860969814
1328+863603904+866226471+869053787+872329205+875960756+879842932+884179043
1318+888913851+893371098+897052774+900269209+903626224+907344701+911258710
1308+914998361+918049512+920124375+921578508+923164075+925347111+927945407
1298+930290990+931689452+931766152+930487673+928174499+925550348+923243224
1288+921131199+918757386+916201868+913833744+911723160+909957905+908948849
1278+908927100+909512685+910019482+910149836+910373454+911301561+912639095
1268+913512972+913925208+914800093+916565636+918847121+921464358+924362973
1258+926677731+927458560+927304295+927784157+929105487+929800541+929212003
1248+928630019+929009630+929229648+927659709+924272158+920341440+916968941
1238+914457356+912378819+909964963+906915325+903829245+901457664+899726546
1228+898021428+896338851+895471024+895865688+896932071+897820423+898406657
1218+899052522+899823628+900460851+900893036+901423815+902449003+904129779
1208+906376768+908994725+911621397+913770728+915412038+916973478+918467366
1198+919661294+921152373+923900180+927451286+930111879+931085862+930967391
1188+930532901+930639417+932525735+936666963+941761721+945678034+947410664
1178+947898520+948775638+950692852+953267238+956036291+958486372+959984364
1168+960991044+962825292+965071272+965474506+963441630+961155247+960827561
1158+962967386+966829469+971102420+974561990+976868105+978694648+980948838
1148+983862721+986671888+988415321+989287469+990392815+992190189+993953211
1138+994705088+994261380+993478751+993834452+996320183+1000169087+1003415841
1128+1005463121+1007617349+1010246397+1011775286+1011779823+1012528747
1120+1015748638+1020238798+1024071713+1026891035+1028859959+1029469671
1111+1028166345+1025064925+1021284800+1018699251+1018669651+1021098559
1103+1024774041+1028143587+1029948380+1029910714+1029233161+1029632937
1094+1031232980+1032338182+1032021803+1031972110+1034679803+1040652255
1085+1048195078+1054200658+1055339276+1051268627+1045900557+1044015463
1077+1046857255+1051241331+1053452886+1052981091+1051744455+1051539057
1068+1053055486+1056112039+1060025327+1063238089+1063458610+1060396369
1060+1057068665+1056501517+1058152333+1059350511+1059881794+1061800736
1051+1065250368+1067582986+1066443072+1062642925+1059398547+1058883468
1043+1060567701+1062900176+1065542764+1068950913+1072275519+1073741823
1034+1072912454+1070874752+1068671911+1066545267+1064956099+1065021564
1025+1067141223+1070016071+1071461634+1069924896+1065385187+1059262864
1017+1053393111+1049230205+1047978157+1049809236+1052588012+1053648994
1008+1053303591+1054311567+1057403625+1059571032+1058196337+1054713072
1000+1052282076+1051636211+1051203594+1050263459+1049580144+1049560339
991+1049864547+1050167242+1049871461+1048387152+1046478868+1045594477
983+1045709347+1045069819+1042506020+1039050915+1036290145+1033969121
974+1030806917+1027218289+1025000396+1024145245+1022314597+1018145930
965+1013303022+1010544987+1010765005+1011990046+1010926183+1006096311+999333668
955+993587499+989881265+986917833+983272166+978928853+974450072+970022425
945+965864272+962686872+961171811+961315345+962667787+964686044+966643300
935+968024190+968894682+969324706+969063350+968143741+966958599+965696252
925+964447589+963728193+964000136+964757270+965143723+965289202+965723259
915+966130454+966163871+966473192+967563701+968454574+967626502+965014450
905+962188142+960579888+960131139+959670722+958420043+956791624+955496725
895+954609453+953846773+953273287+953374474+954205283+954733182+953878678
885+952130636+950998284+951104007+952027649+953359710+954470457+954060165
875+951431405+947702845+944672795+942872540+941698849+941151505+942054262
865+944212739+945748901+945402778+944324584+944247308+945187658+945942416
855+945706626+944634481+943068359+940651766+937095907+933477320+931706448
845+932658826+935590497+939284128+942561490+944021673+942778339+939695428
835+937238577+937552867+940586517+944412159+947501264+949688765+950718274
825+949914616+947667267+945573031+944801493+945323630+946621842+947954911
815+948444351+948014110+948059842+950070825+953438282+955824339+956046085
805+955029971+953648145+951733524+949626180+948694760+949766401+952066323
795+953912815+954115836+952943153+952107878+953088775+955203897+956344243
785+955816705+954963210+954627602+954297539+953997941+954480107+955353624
776+955373141+954681328+954771640+956421736+959155283+961941765+963607057
766+963396834+961401119+958398149+955560462+954210109+954718562+955485563
756+954621984+953025254+953803562+958169561+963473678+965865929+964486263
746+962064845+961476523+963100332+965559560+967730857+968916287+968334015
736+966201104+964186449+963070445+961542709+959165222+957336231+956328903
726+955169688+954383242+955387041+957838058+960288140+962477945+964817334
716+966705308+967289021+967300976+968610639+971193668+972454070+970998785
706+968164554+965259386+962123036+957848429+951737845+944822234+940000500
696+939075346+940434774+940533944+936884820+929837415+922725481+919427017
686+921108657+925675013+930027905+932181196+931683762+929642892+926786408
676+922165894+915834572+909211862+902329308+893824745+885792338+884965273
666+890579287+895194256+896778959+897540774+897727735+895267571+890417029
656+885845776+882946729+881382335+880658258+881132718+883615064+887350322
646+889703898+889105133+886675433+884290601+883027534+883428175+885214819
636+886435610+884632186+880186894+875784886+872199499+868014483+863559756
626+861734439+863368978+865095198+863421264+858925703+854616959+852025576
616+850275734+849032329+850239725+854832295+860755558+865369374+867599510
606+868453582+869809121+871845238+872649256+870653110
##END=
