##TITLE=<SNM>
##JCAMP-DX=4.24
##DATA TYPE=INFRARED SPECTRUM
##DATE=2/5/2025
##SAMPLING PROCEDURE=Instrument type and / or accessory
##ORIGIN=Admin
##XUNITS=1/CM
##YUNITS=ABSORBANCE
##RESOLUTION=4
##FIRSTX=4497.3318
##LASTX=599.83466
##DELTAX=-1.4281778
##MAXY=1.7164135
##MINY=0.27397686
##XFACTOR=1
##YFACTOR=1.5985346e-09
##NPOINTS=2730
##FIRSTY=0.29812503
##XYDATA=(X++(Y..Y))
4497+186498948+185544045+184602081+184169570+184467736+185106221+185692709
4487+186295305+186829871+186847060+186447156+186415257+187038026+187758561
4477+188103056+187948221+187185179+186236112+186207345+187427358+188666090
4467+188625895+187428682+186082526+185330241+185400117+186111144+186893948
4457+187170842+186919322+186575592+186319840+185868349+185096526+184403751
4447+184303468+184939529+185938878+186516939+186002956+184498684+182733422
4437+181304209+180467637+180410364+181123274+182080265+182501254+182111753
4427+181426063+181041335+180851992+180335827+179478188+178885006+178971046
4417+179493848+179881633+179771674+179247250+178697192+178447872+178455460
4407+178455143+178360434+178291285+178236454+178010830+177583819+177170156
4397+177001171+177203976+177772137+178461798+178889947+178852790+178358532
4387+177442072+176276591+175275732+174724312+174489646+174340983+174280410
4377+174358675+174460637+174440856+174214747+173735497+173217151+173245825
4367+174243141+175915839+177505441+178294529+177761492+175991084+174174104
4357+173799351+175025890+176578840+177337072+177263020+176794806+176189637
4347+175615659+175272115+175131785+174877767+174334364+173715045+173240772
4337+172843889+172478420+172330707+172494528+172750019+172870269+172996318
4327+173547402+174615751+175487541+175286694+174182941+173193324+172765866
4317+172497306+172158068+171962292+171963747+172039048+172232903+172561160
4307+172818664+172889174+172883637+172961977+173258614+173801681+174321295
4297+174334942+173659077+172662841+171954593+171956550+172663886+173683929
4287+174548746+175000609+175016307+174749276+174401462+173960524+173294055
4277+172667241+172656931+173329087+174040766+174223920+173859737+173177664
4267+172383226+171704024+171392509+171575943+172106966+172666962+173084800
4257+173329310+173217058+172639090+172029595+171975119+172474411+173110137
4247+173662675+174110530+174398330+174515393+174494866+174280596+173887479
4237+173515317+173232961+172892418+172620185+172910111+173887143+174921486
4227+175337199+175122072+174656580+174234901+174125352+174580049+175417199
4217+175945426+175705111+175077402+174814472+175116124+175526133+175630928
4207+175477044+175321595+175275638+175225823+174964012+174440054+173923535
4197+173805522+174185216+174706041+174853735+174467106+173897956+173564181
4187+173500570+173484126+173394880+173304142+173364155+173667485+174157791
4177+174760425+175532565+176470241+177330136+177885005+178163931+178311047
4167+178475203+178807095+179216488+179264290+178700603+177919346+177480254
4157+177382208+177208655+176882524+176860040+177491049+178486072+179150006
4147+178994854+178131267+177174799+176684642+176647000+176629662+176444849
4137+176464145+177139786+178296654+179152467+179237835+178967821+178873746
4127+178757988+178218668+177436069+176808136+176388004+176211506+176594724
4117+177596832+178626421+179002703+178697900+178231625+177990024+177988533
4107+178231309+178828740+179634327+180187760+180180750+179681514+178934486
4097+178242252+177894103+177914499+177995226+177823202+177368057+176842496
4087+176536444+176656714+177165346+177754761+178039821+177858830+177502906
4077+177524607+178094801+178743744+178984004+178872366+178671184+178368674
4067+177870295+177308435+176885731+176661673+176574104+176511704+176415485
4057+176414758+176712532+177287834+177901840+178382862+178727487+178972631
4047+179157109+179327100+179373541+179046963+178380457+177814831+177654925
4037+177720420+177735633+177758099+178093085+178922424+179938776+180437714
4027+180122154+179636937+179825871+180633657+181235284+181147249+180753386
4017+180647379+180798373+180667663+180003488+179207614+178954621+179588073
4007+180748595+181600306+181665390+181321063+181263417+181720705+182406377
3997+183013578+183465050+183705644+183556291+182988111+182322071+181970585
3987+182168933+182911766+183800521+184123856+183532483+182494151+181882382
3977+182291440+183592254+184874277+185157099+184399389+183449725+183047882
3967+183315417+184049972+184976089+185720488+186022941+186067239+186218810
3957+186427953+186360128+186113512+186339937+187564071+189497163+191045489
3947+191420149+191239661+191586654+192170998+191708546+190018324+188226550
3937+187298065+187810576+190206381+193835940+196344948+195785344+193319011
3927+191948824+192927385+194601014+195005392+194784168+195929440+198491359
3917+199956274+198102697+193750963+189571681+187235218+186900679+188815779
3907+194033897+202781738+212587170+219442488+221451346+219046909+212749946
3897+204295984+197555957+195730495+198543840+201956967+202231474+201245586
3887+203042374+207338570+210468986+211740810+213118231+212984389+208701318
3878+203591967+202931781+207262392+213570933+219406245+222692725+221268211
3868+217292926+215648660+216932006+216870128+212807145+207628122+205633787
3858+209203183+219321286+234367451+244364091+238459966+223689874+211045742
3848+204398448+203875087+208030170+214701271+222262563+229878630+235663642
3838+236481906+232197419+226523224+221807065+217742217+214254684+212421056
3828+212465875+213536554+216385192+223174977+232267537+236723060+234637949
3818+231771228+229575822+224120801+215654272+209270636+208425879+213015039
3808+219572992+223978010+227107456+232584719+238828921+239934613+235859250
3798+231304133+227062059+221954460+217395615+215582793+216575710+219263416
3788+223092573+227521492+231280642+234133866+237860595+243248835+247880707
3778+249426852+249542572+251815666+258498755+269565216+282079851+291714396
3768+297566581+302183687+307167512+313467588+323074224+336572920+350731336
3758+361967044+371784874+384901564+404434573+429054169+451371850+465127938
3748+474524872+485934598+498108224+503672198+502571969+503109686+510886944
3738+526149691+543746532+555273563+556619626+551478152+546152144+544353192
3728+545769280+547469682+547394958+546531427+545974396+544541343+541663901
3718+539650512+541639963+549218668+560990899+570862124+571671961+564982813
3708+558650465+557737454+562970394+571245509+576582592+575913289+573183541
3698+573003594+575368003+578761274+584215773+593842284+605418198+610283935
3688+603338140+591653198+583679697+581998089+585650915+592616360+601620325
3678+611836381+618831097+616369144+608596211+604145479+602084102+595450735
3668+584002491+573927194+567994824+565265337+564775125+566920733+572284327
3658+579344183+584404185+586836531+591635188+603056511+618137110+625934168
3648+619559238+606153573+594784080+588482121+586282184+585854502+585797378
3638+586781943+590063241+595433881+602096742+611082810+623603429+634770528
3628+635686970+628452610+622164745+621357332+626604515+635725226+643136475
3618+644939379+644562630+646216609+649012393+651261324+654459360+658767506
3608+659784995+655276021+649966568+649344247+653797067+659516379+663529062
3598+666332750+669000564+670970439+672358264+675889049+683896145+693913908
3588+698595969+694083937+686528537+682804380+682898344+683403658+682761799
3578+681636252+680494969+679313119+678822869+680680808+686185123+694422056
3568+701146180+701636206+696386115+689668181+683974970+679934321+678331127
3558+679506117+681972357+683438409+683019452+681389933+679696803+679053601
3548+679667272+680464692+680739722+680821828+680549856+679443997+677877120
3538+676409875+675253007+675367329+678249991+683601876+688595060+690408553
3528+688872028+685989962+683251154+680724359+678640983+677900835+678225381
3518+677923729+676284068+674403980+673600668+674342009+676303830+678493251
3508+679869442+680266251+680042454+678809520+675774056+671843851+669565762
3498+669847875+670540669+669794182+669090874+670459607+672961717+674382130
3488+673990019+672588697+671576951+671989644+673343611+674054974+673666592
3478+673089164+672611368+671861824+671378733+671930581+672522401+671145167
3468+667807453+665072001+665029046+666947092+668148630+667156869+665826691
3458+666930014+670198672+672734639+672967907+672046842+671555250+671947062
3448+672638960+672296292+670038189+666819645+664383010+663225098+662653413
3438+662162790+662035716+662748495+664030499+664820015+664553785+663755619
3428+662603971+660558552+658389788+658412011+661352468+664748274+665699765
3418+664106341+662056522+661083554+660921504+660397248+659018895+657352910
3408+656003193+655265133+655742706+657987759+661385504+663992391+664151383
3398+662175766+660149066+659870084+660702406+660404780+658472118+657052823
3388+657965088+660533197+662627685+662572053+659901480+655685358+652284481
3378+651716673+653887153+656521632+657523983+657171098+657230459+658702925
3368+661133146+663267680+663912746+662877359+661033142+659186687+657694608
3358+656947898+657147756+657958302+658924932+659587821+659298772+658025792
3348+656872429+656748039+657426067+658367117+659258576+659813035+660061217
3338+660629099+662044292+663924231+665282896+665516239+664779446+663578207
3328+662269133+660757068+658971391+657485875+656976012+657576930+659412423
3318+662631638+666337821+668780720+669159258+668359302+667555244+667041801
3308+666451398+665504083+664542897+664137662+663960474+662690700+659920272
3298+657480431+657829214+661338075+665659495+667986058+667658603+666253478
3288+665568962+666214401+667804247+669662857+670986771+670890123+669212728
3278+666831278+664753047+663527645+663303849+663462319+662864160+661485210
3268+660707477+661314211+662762291+664478242+665907305+665933108+664486668
3258+663502216+664339385+665757262+665771207+664179498+662095301+660511570
3248+660202983+661395945+662797267+662280394+659410036+656237728+655015533
3238+656024521+657917734+659448517+660375547+660830822+660589873+659563584
3228+658419618+657931903+658139890+658622907+659073707+659366112+659467533
3218+659232699+658287398+656674211+655454775+655593781+656403283+656219682
3208+654757731+653522560+653672230+654759371+655435759+654584868+652118702
3198+649390632+648321240+649472813+651532848+653025747+653613018+653235151
3188+651434261+648314006+644966225+642471871+641099185+640513480+640371939
3178+640559194+640974050+641378092+641688693+641925615+641542305+639790261
3168+637121253+635154436+634729885+634896111+634470293+633811133+634148804
3158+635590023+636580666+635412835+631947675+627790690+624934651+624151064
3148+624590492+624956986+624806906+624605407+624980999+625984282+626705339
3138+626043867+624189917+622310873+620573073+618158289+615547785+614661845
3128+616067753+617775053+617583956+615588950+613640963+613025279+613253513
3118+613165627+612608671+612161338+611716802+610764304+609688162+609219613
3108+609034893+608348662+607375955+606864041+606596432+605606460+603678981
3098+601636135+600198719+599295403+598625429+598324635+598717938+599718537
3088+600757540+601208080+600832413+599967689+599222731+598815705+598447384
3078+597972235+597680948+597706303+597647166+597064631+596038715+595110938
3068+594901310+595563342+596243346+595562596+593276602+590866068+589816848
3058+590054888+590522021+590367652+589130468+586878815+584584729+583241500
3048+582636816+582017739+581464213+581379086+581383784+580936936+580280796
3038+579872689+579603999+579105807+578085446+576234256+573604885+570982673
3028+569354944+569086701+569692131+570267321+570086553+568987256+567411245
3018+566209669+566152434+567129466+567951012+567583250+566406396+565510388
3008+565226186+565170815+565061787+564541670+562963198+560396655+558161707
2998+557432782+557806249+557842902+556727945+554971687+553535838+552673276
2988+551937565+551087122+550516444+550743783+551612385+552183772+551685095
2978+550435643+549302750+548506634+547751609+547078988+546662864+546268889
2968+545681656+545121567+544719687+544193306+543376234+542523517+541869502
2958+541253706+540327981+539061638+537893434+537160035+536520973+535328682
2948+533526598+531840292+531001370+530912180+530671007+529515108+527657803
2938+526009939+525225718+525231721+525431318+525111284+523885546+522053783
2928+520445070+519799668+520253601+521219746+521759028+521365128+520377282
2918+519376647+518389174+517030918+515286630+513776877+513113802+513144116
2908+513171559+512918567+512687387+512494725+511865841+510674035+509353291
2898+508156003+506915687+505630887+504673430+504216701+503863928+503114570
2888+501977725+500851246+499938086+499092640+498249393+497697917+497655075
2878+497710408+497135815+495818128+494379295+493276493+492455843+491956755
2868+492038004+492608384+493153968+493225708+492735868+491960260+491301324
2858+490817263+490088860+488783180+487146278+485722062+484745178+483961554
2848+482990375+481799166+480771273+480258278+480161630+480049396+479583196
2838+478678351+477361969+475799381+474408648+473534379+473016536+472433851
2828+471690310+471062471+470749744+470593586+470270084+469719130+469190400
2818+468740904+468005492+466733071+465208180+463864727+462829713+462058170
2808+461549201+461177375+460576233+459513440+458244152+457172671+456327933
2798+455531556+454835779+454348624+453850581+452990331+451764445+450610001
2788+449954009+449623833+448958818+447786849+446818168+446618272+446779875
2778+446520618+445521437+443964590+442292602+440979202+440153443+439563450
2768+439020103+438536155+438011414+437216603+436160671+435149148+434375852
2758+433654012+432709866+431614261+430690586+430113643+429848346+429783616
2748+429623692+428904648+427492028+425845506+424551459+423826375+423544485
2738+423427031+423129368+422418528+421348390+420172356+419125000+418272842
2728+417484966+416625201+415791053+415177420+414727663+414154188+413281224
2718+412218580+411248744+410564266+410045416+409391364+408542263+407780974
2708+407314252+406951971+406368577+405594386+404982207+404614110+404107677
2698+403237434+402299852+401560934+400850653+400031904+399355778+398982124
2688+398582071+397781146+396730023+395939091+395684644+395744228+395615961
2678+394946696+393856460+392809961+392063213+391403792+390572626+389680235
2668+388990089+388518110+388068353+387548460+387059365+386669641+386252436
2658+385666135+384986988+384365152+383754912+383013571+382175955+381424472
2648+380835150+380303474+379718402+379101115+378531556+378037689+377605084
2638+377177141+376631407+375905839+375108306+374376846+373750945+373268451
2628+372978358+372774658+372431207+371864220+371189064+370502833+369797660
2618+369142788+368750043+368660181+368499474+367851090+366819730+365904221
2608+365349240+364964326+364557524+364166868+363816071+363396629+362885908
2598+362404980+362015405+361657151+361234204+360650699+359959695+359496627
2588+359548270+359938330+360228684+360129724+359502071+358341251+356988141
2578+355974269+355498821+355331253+355233114+355174312+355111036+354827953
2568+354146606+353196942+352346425+351840290+351594345+351371219+351065652
2558+350727794+350403471+350106219+349873137+349687000+349430130+349054202
2548+348661495+348356412+348191305+348196301+348257601+348111175+347651836
2538+347075937+346615218+346338026+346210803+346148981+346040886+345834539
2528+345543178+345172172+344731924+344275419+343851577+343468378+343102815
2518+342723755+342356179+342102888+342013101+341996434+341981295+342041402
2508+342223699+342368372+342249501+341829985+341262215+340681133+340109448
2498+339572701+339185139+339031144+339040167+339073987+339066977+339004185
2488+338874613+338726546+338635043+338552490+338329103+337922749+337465647
2478+337106461+336862976+336623966+336293939+335974836+335897204+336043556
2468+336028716+335591115+335002054+334700924+334722103+334758570+334610428
2458+334317576+333970694+333601739+333242031+332981282+332910288+332998472
2448+333096648+333093591+333007122+332911071+332831500+332716134+332513367
2438+332305380+332253402+332344606+332348782+332114992+331747901+331425816
2428+331213764+331099628+331061484+331060626+331077182+331151979+331262386
2418+331195978+330769936+330177594+329860207+330003911+330390429+330741859
2408+330986201+331159474+331233228+331130390+330855100+330532194+330287293
2398+330135833+330031354+329969719+329974268+329992166+329894921+329641332
2388+329345124+329032882+328419584+327133367+325125273+322661643+319934580
2378+316851015+313252405+309282023+305448952+302232981+299623017+297173836
2368+294615926+292299430+290824653+290310408+290421617+291189935+293308903
2358+297317634+302865276+309244140+316340593+324163827+331616315+336883335
2348+338897731+338046505+335931546+334113727+332663522+330647933+327676304
2338+324101445+320254988+316278584+312547679+309640874+307772625+306632256
2328+305855921+305281551+304794340+304422066+304538532+305482286+306981263
2318+308348095+309229206+309884060+310756484+311965833+313241330+314284920
2308+315132045+316053371+317133987+318174445+319028728+319741470+320299434
2298+320580914+320632966+320713357+320981489+321355142+321705305+322042193
2288+322456117+322941445+323346308+323516784+323455410+323299699+323147046
2278+322947523+322620441+322239293+321985219+321930556+322001439+322107259
2268+322151034+322001327+321638897+321259389+321100994+321232505+321548214
2258+321873022+322066169+322106663+322087609+322111547+322205100+322320541
2248+322393549+322411857+322437436+322562646+322840696+323208234+323490422
2238+323589047+323643038+323840175+324112035+324236574+324212934+324274383
2228+324505935+324691252+324641101+324499746+324560412+324865793+325173448
2218+325299441+325328003+325450901+325725818+326038470+326246607+326340085
2208+326459404+326731450+327107080+327420739+327589873+327681897+327801589
2198+327997047+328265589+328556689+328765795+328837796+328897418+329152722
2188+329624068+330085383+330323349+330341508+330274951+330230616+330259066
2178+330381815+330602182+330918861+331309219+331710838+332081359+332431186
2168+332729408+332898505+332991126+333194639+333572916+333976064+334252584
2158+334393902+334487716+334631570+334827588+334954998+334962828+335000749
2148+335209631+335524930+335818081+336080694+336382383+336757081+337151056
2138+337437607+337537499+337520011+337517550+337599843+337784638+338050010
2128+338295955+338434365+338524413+338686537+338920215+339153184+339402336
2118+339711372+339993672+340135810+340211242+340383806+340628223+340746796
2108+340648954+340444920+340276755+340205500+340273176+340545147+341008103
2098+341487950+341774166+341835764+341838561+341952025+342210126+342536425
2088+342820329+342980924+343002886+342910862+342715254+342429896+342135179
2078+341960601+341973577+342117729+342289883+342451187+342645713+342963436
2068+343455700+343962319+344096292+343639040+342896804+342403049+342360617
2058+342585681+342843297+343020411+343085701+343069555+343055051+343101771
2048+343187308+343282315+343481987+343922795+344486090+344801054+344704667
2038+344457678+344346488+344339962+344273815+344148270+344111989+344254650
2028+344501788+344735578+344964260+345280416+345749562+346473528+347539714
2018+348671152+349239295+348971760+348336463+347947634+347973847+348277848
2008+348712727+349128552+349398958+349532781+349617572+349704786+349793306
1998+349883503+350184447+351152717+352815347+354175168+354100631+352739356
1988+351148877+349934214+349069713+348491205+348175197+347966688+347715298
1978+347431805+347230716+347178812+347187687+347204018+347530280+348507350
1968+349715972+350098724+349239071+347884582+346887377+346368043+346123178
1958+346131232+346323522+346373337+346039693+345482550+345117099+345255099
1948+345957176+347279599+349331580+351530248+352285423+350659782+347833125
1938+345653772+344708135+344481318+344408272+344264083+344038870+343787629
1928+343699222+344312482+346003114+348022954+349179486+349632822+350225463
1918+350297091+348532295+345683229+343906799+344056245+345143685+345678344
1908+344988533+343563758+342339438+341753322+341621363+341703619+342064632
1898+342880398+343955943+344689678+345023024+345897555+347703963+348979329
1888+348154913+345891700+343918731+342849040+342313262+342006576+341875661
1878+341904782+342056503+342370311+343450144+346596985+352350004+358361982
1868+360182634+356416791+350594791+346467524+344905010+344801576+344873764
1858+344563834+344076157+343871339+344092041+344679946+345814069+347895991
1848+351452207+356708861+361908540+362992960+358612253+352835072+349584834
1838+349086381+349453397+349691102+351066808+355246239+361167907+364999861
1828+364981590+363301808+361405053+358483091+354785035+352194405+351519249
1818+351806732+352108720+352792602+354805841+357959506+360442488+360656255
1808+359183789+358031246+358798986+361959064+366542612+370205245+371023547
1798+369802246+369508462+372523083+378325134+382457808+380331886+373935852
1788+368980962+367950087+369514279+371768206+374187129+376323789+377196083
1778+377308689+379209434+385056641+393964368+400955541+401190636+396021942
1768+389621694+384508745+382551063+384710990+388829606+391074137+391078350
1758+391161240+391640565+392182271+394879877+401803785+410826655+416294875
1748+415658423+411934565+408874454+408155336+409716023+412075323+413324701
1738+414306991+418794338+427985261+435447072+433639470+425945473+418475460
1728+413107504+410623440+411377384+414266124+418731584+426749755+440266833
1718+455984668+464099897+459901412+450294179+442650818+439809470+442331380
1708+449689346+459424100+467790234+474476660+483400868+495839270+505899876
1698+508656060+506015242+499308084+490900078+486366196+488383910+495198193
1688+504935558+518950046+536991311+548806609+545603502+536318243+531161071
1678+532888953+540153440+549005945+556137542+562980200+571371018+577277622
1668+575860118+571549511+571759101+577252715+582512091+583196755+582244854
1658+585409183+596293572+615718933+636924005+642723707+635239301+632622869
1648+637532604+639665200+630603849+617062087+608141905+606170800+610928255
1638+621231525+631287470+630011880+616261683+602405143+595696569+595053181
1628+596472438+597614204+598704366+598643812+595071973+590184722+589261345
1618+593026555+595091362+589811665+581498479+576323409+575080818+575305324
1608+574830734+573623678+572644333+571959184+570801048+568965294+567317393
1598+566808052+567405279+568117275+568018091+567134873+566120702+565310790
1588+564503563+563523697+562504455+561583539+561092842+562413363+567597568
1578+576794158+584915428+584678506+578854827+576548959+580190860+584369955
1568+583477341+579584721+577457532+579498961+588261008+607091268+631625216
1558+640268579+627093572+611488083+601818469+597451782+596640751+597718310
1548+600530947+607256226+619816109+637490693+657498031+673277688+673026000
1538+658898682+647920180+647197184+652323259+655280570+654945807+657166549
1528+664841790+675429673+685877505+696492159+707038503+713673958+715100784
1518+714601138+713142543+709895214+707213231+709356714+718807416+735455712
1508+754391718+760798528+746093782+727271577+717981358+718839930+726094424
1498+733940366+736202124+732500340+729469947+732577599+741157946+748782403
1488+749129545+743451696+737450345+734635173+735103275+737339827+740739809
1478+746447637+755603323+767374025+777668757+779932230+772801752+764003872
1468+760644234+763293405+767308773+768082628+767680898+772093447+783869668
1458+797860292+801470797+791401354+778937262+770913088+767324955+766190609
1448+764949770+761942346+758075007+755284444+754317516+755485272+759718993
1438+766522314+771257099+769461504+764314250+761159616+760412756+759273338
1428+756940511+755826598+757432924+760571226+764279498+769282675+774204193
1418+774041472+767562847+759722871+754331835+751502717+749743290+748299610
1408+748119588+750160010+753004788+754264196+754528039+756463312+760632377
1398+765123677+768213655+768910923+766528728+762647518+760841184+762783094
1388+766129756+766811736+764577869+763730633+767333009+774261764+781736849
1378+788729812+795849401+802652126+807060648+808408799+808924703+810676299
1368+813615190+817256942+821726914+825936995+826992293+823570759+817994629
1358+813160288+809885516+807665743+806235337+805637700+805339180+804407376
1348+802600148+800458976+798686946+798259711+800289544+804586578+808796734
1338+810321849+809145666+807427702+806920822+807916759+809872092+812134969
1328+814206861+815837126+817157982+818789291+821601779+825884420+830666261
1318+834416145+836633159+838200035+840182886+842918936+846120327+849336261
1308+852257180+854696424+856416252+857373858+858241901+859997151+862639312
1298+864951109+865829816+865141422+863115542+860040330+856800383+854350176
1288+852379556+849597792+845417541+840560082+836183253+832989692+830933460
1278+829434968+827966231+826547682+825773976+826359457+828396225+830950761
1268+832653885+832859485+832128958+831578675+831767944+832260282+832337094
1258+832014039+832114863+833329153+835469654+837776976+839755726+841445724
1248+842961965+844244714+845330588+846465158+847907123+849853134+852343014
1238+855027906+857386610+859250441+860771230+861997751+862932910+863928101
1228+865437854+867345534+869050820+870372050+871918866+874339541+877446000
1218+880312107+882290707+883673236+885218635+887390532+890155292+893158018
1208+896018010+898639812+901131407+903409795+905254908+906806944+908719993
1198+911754115+916008494+920285393+922942170+924009102+925261499+927651674
1188+930319190+932540454+934780063+937326023+939642221+941496953+943482489
1178+946215257+949797424+953653502+956540638+957618980+957510623+957463940
1168+957844865+958242419+958544593+959173775+960744306+963713697+967627794
1158+970939108+972497185+973017115+974220816+976805629+980083534+983308864
1148+986400632+989080676+990271624+989537442+988502130+989177026+991459888
1138+993732981+995219392+996381779+997658562+998847646+999465567+999517173
1128+999863196+1001335737+1003741423+1006158444+1007673641+1007786397
1120+1007052513+1007080926+1008953780+1012235040+1015983657+1019660160
1111+1022600319+1023946978+1023846601+1023763302+1024775049+1026167422
1103+1026421421+1025125995+1023349565+1022933516+1025639587+1031748101
1094+1039345710+1045504189+1048223310+1047545954+1045234156+1043122441
1085+1042032690+1042279978+1043921428+1046213016+1048079755+1049244901
1077+1050062308+1050919313+1052184612+1053721808+1054657340+1054504612
1068+1053721659+1052697607+1051866106+1052307883+1054274253+1056298418
1060+1057006126+1056377168+1054619606+1052342411+1051767444+1055097402
1051+1062017581+1069465818+1073741823+1073044108+1068927841+1065000619
1043+1063536580+1063547841+1062847590+1061450221+1061133728+1062473079
1034+1064302531+1065598778+1066458991+1067583419+1069399522+1071092354
1025+1070830599+1068092536+1064847444+1063069001+1062532440+1062384560
1017+1063259761+1065595348+1067117554+1065271323+1061467224+1059460211
1008+1060217735+1060876597+1058730354+1054728931+1052185507+1052887697
1000+1054847057+1053880800+1048489391+1042080417+1038770968+1039053454
991+1040533825+1041080975+1040152229+1038165948+1035653397+1032597201
983+1028391371+1022747528+1016695765+1012126535+1010088723+1009839496
974+1009526882+1007905268+1005223732+1002081403+998229054+993305448+987979813
964+983067766+978385705+973506247+968683241+964404179+960801952+957604289
954+954210346+950313626+946703120+944717287+944617805+945027067+944143812
944+941288369+937415885+934226947+932782894+932906538+933558018+933661676
934+932850682+931768090+931541608+932672003+934447612+935650567+935789424
924+935474199+935783682+937314539+939584053+941234825+940882313+938221658
914+934596835+932159007+932160051+933866009+935116691+934275943+931768910
904+929351069+928188384+928251399+928993933+929874653+930392794+930315834
894+929731247+928651862+927251658+926500399+927243008+928527621+928398757
884+926350952+923783888+922255492+922230882+923400353+925245391+926802499
874+926581908+924006865+920688615+918845069+918755356+919059693+918897196
864+918320142+917474770+916638421+916268832+916396130+916708819+917125688
854+917543079+917657476+917580143+917791635+918286658+918688911+919116369
844+919871432+920447368+919974046+918494720+916983923+916339677+916631262
834+916845439+915805577+914390385+915449113+919870015+924589587+926459980
824+926048256+925329362+924596597+923703497+923548458+924873863+927236222
814+929721851+931592468+932128208+930983794+929177908+928642764+929961085
804+931359275+930968506+929390593+928544923+928906831+929414680+929666070
794+930904671+934100246+937670257+938414954+935258904+930774017+928274517
784+928881475+931614766+934709069+936513389+936255587+934531806+932849340
774+932396004+933212665+934546572+935581213+935758103+935246748+935035480
764+935529906+935748557+935121016+934887450+936148573+937774885+937883912
754+936286311+934065942+932134174+931254498+931850569+932965079+933301035
744+933639005+935745947+939224382+942116515+943433493+943540955+943924564
734+946514299+951219105+955196813+955748512+952629897+947658116+943455120
724+942203990+943540656+944870835+945037508+945242139+946042394+946167604
714+944454860+941526932+939434084+939626187+941161668+941785182+940773435
704+938788496+935453468+930229626+924688174+921093851+920118123+921200417
694+923013165+922970285+919113685+913652399+911096521+911933988+911720483
684+907373633+901461845+898354789+898956006+900642947+900655401+899185023
674+898498345+898281781+894282298+883815002+872636045+869936463+873097062
664+874506811+873065517+870863941+868588088+866071063+863691627+861424052
654+859579313+860008114+862964977+865400940+865969642+866689282+867718107
644+866260556+861612725+856574722+853172055+851208891+850368441+850001089
634+848001012+843560869+839512763+838702441+840606318+842653153+843458554
624+844316231+845898096+846420936+845256908+844338901+844349267+842795143
614+838176545+833163077+830896620+830844642+830423224+829610590+831029437
604+835970866+840920797+840938695+837723507
##END=
