##TITLE=<SNM>
##JCAMP-DX=4.24
##DATA TYPE=INFRARED SPECTRUM
##DATE=2/5/2025
##SAMPLING PROCEDURE=Instrument type and / or accessory
##ORIGIN=Admin
##XUNITS=1/CM
##YUNITS=ABSORBANCE
##RESOLUTION=4
##FIRSTX=4497.3318
##LASTX=599.83466
##DELTAX=-1.4281778
##MAXY=1.7667542
##MINY=0.19290468
##XFACTOR=1
##YFACTOR=1.645418e-09
##NPOINTS=2730
##FIRSTY=0.21018487
##XYDATA=(X++(Y..Y))
4497+127739498+127697966+127916319+128392736+129085632+129305878+128504707
4487+127278730+126695604+127043088+127849150+128589862+128859654+128400842
4477+127470005+126800710+126899639+127625445+128480717+129013599+129041565
4467+128836171+128948005+129553808+130155499+130226164+129885797+129541347
4457+129196977+128594272+127860823+127504871+127757818+128292186+128648745
4447+128720651+128689552+128586384+128153690+127284516+126429163+126209605
4437+126613908+126987647+126957535+126892847+127170029+127464471+127238774
4427+126591413+126082285+125975015+126064915+126013730+125630736+125043833
4417+124703721+124982442+125721451+126390103+126658790+126551285+126127973
4407+125406016+124579072+123968678+123720032+123759327+123935043+123990503
4397+123660687+123033086+122526594+122383579+122495060+122696170+122881830
4387+122923253+122752345+122387011+121777197+120876055+119873249+119080400
4377+118653357+118608502+118885802+119259033+119488244+119658681+120098367
4367+120860189+121459208+121311765+120475148+119693982+119513728+119654570
4357+119546140+119146782+118829454+118725725+118598812+118328885+118232962
4347+118630355+119198447+119302285+118967144+118771196+118806651+118692525
4337+118517117+118718272+119110023+118994204+118222946+117424818+117237491
4327+117777256+118675210+119300583+119177401+118493082+117974019+118042583
4317+118443273+118842432+119234735+119567839+119600287+119407599+119448361
4307+119885592+120294088+120187153+119574079+118972324+118984152+119768668
4297+120822587+121404654+121289740+121004815+121183602+121741063+121915729
4287+121188329+119899240+118787153+118244762+118289427+118862029+119728993
4277+120408015+120616234+120555467+120524124+120611090+120872722+121331018
4267+121750617+121896158+121952542+122227722+122614846+122836450+122946591
4257+123120279+123294483+123369314+123349988+123124843+122584155+121987598
4247+121773076+122088149+122801049+123662598+124278597+124342652+123988411
4237+123555219+123099459+122475290+121733573+121156361+121042335+121602141
4227+122859027+124451534+125665756+125940148+125408045+124780109+124591098
4217+124723553+124837869+124964991+125304452+125660820+125565061+124916422
4207+124159989+123863844+124289863+125253194+126288511+127025058+127397392
4197+127532592+127525935+127284996+126668508+125909022+125610251+126037855
4187+126758897+127219774+127243691+126848861+126192851+125785850+126162504
4177+127279744+128622545+129777921+130590584+130998428+131064049+131029753
4167+131140836+131466984+131890495+132174451+132132793+131828705+131501877
4157+131277131+131117670+131074880+131318427+131791149+132064283+131759788
4147+131013932+130318944+129993312+129987824+130063398+129978795+129711874
4137+129607656+130012384+130712117+131104530+130982588+130794012+131059991
4127+131787463+132478258+132543806+131745298+130439681+129418219+129263594
4117+129797600+130408736+130839800+131209907+131418887+131210423+130749293
4107+130508807+130688064+131232484+132131289+133145561+133600868+133076915
4097+132087141+131563948+131813962+132369339+132709262+132759515+132766379
4087+132983138+133462798+134003831+134318641+134316784+134170355+134084530
4077+134139682+134359737+134725869+135087237+135239144+135084909+134643476
4067+134090462+133785296+133881237+133975648+133584793+132795839+132031771
4057+131495330+131229169+131331957+131779014+132305367+132641930+132738133
4047+132758238+132934942+133334952+133725308+133753618+133279764+132511548
4037+131816733+131442306+131459160+131844472+132449776+132978185+133147145
4027+132863624+132319105+132033691+132501279+133534559+134350917+134572403
4017+134658102+135021108+135296633+134943823+134162820+133722175+134028898
4007+134729174+135220815+135308931+135253716+135362915+135704984+136109423
3997+136338408+136330022+136301703+136508663+136908239+137191009+137173784
3987+137052467+137133122+137340046+137203914+136486811+135681619+135613635
3977+136515809+137749049+138509684+138591697+138285001+137792509+137107918
3967+136391685+136169058+136935933+138547947+140186703+141038471+140871340
3957+140004167+139071275+138789864+139626453+141540997+143804674+145115072
3947+144770051+143782504+143641762+144246342+144247130+143146191+141754795
3937+141077104+141914572+144612781+148175554+150344721+149792594+147799072
3927+146663421+147195054+148267719+148658592+148792387+149758933+151229634
3917+151433307+149327805+146002729+143422884+142566715+143179609+145047803
3907+148942629+155538616+163389778+169074399+170398445+167805106+162589884
3897+156668843+152936203+153375825+156916963+159543574+158601154+156834009
3887+157966843+161257977+163400880+164270760+165617628+165676801+162191485
3878+158211939+158079139+161831086+166715995+170901551+173235485+172597732
3868+170657523+170344162+171258834+170369574+166831443+163274239+162418777
3858+165687632+173937826+185881192+193375541+188155229+176290941+166592143
3848+161994333+162438320+166622988+172616171+178883664+184588462+188256404
3838+187842882+183904885+179672129+176869992+174826923+172943007+171798726
3828+171661290+172232461+174610082+180539075+187982927+190943674+188470329
3818+185504384+183082931+178540345+172665635+169211074+170323804+175570325
3808+181848124+185634992+187958203+192023077+196502976+196969893+193983191
3798+191195054+188724571+185473901+182727295+182331215+184352586+187918320
3788+192524516+197663884+202397518+206716997+212161938+219354952+226248244
3778+231037102+235418054+242454705+253629873+268372950+283988606+297014255
3768+306683874+314308505+319956539+323854852+328206371+334515287+341560613
3758+347857467+354878161+365920077+382933261+403812698+421601051+432280722
3748+441122319+453428982+466830715+473734331+474417636+477313142+487779957
3738+506000579+527077006+542502174+547774015+547065136+546661919+549289436
3728+554832274+561503292+566260055+566904419+563720565+558364320+552721429
3718+548578021+547193842+549189130+554034065+558669403+558695159+553558870
3708+546970553+542745024+542497102+544988596+547441799+548563277+549031698
3698+549460054+550920631+555772303+565642897+579078971+590830419+593705676
3688+586168745+575688708+569427102+569408808+574265660+581221548+588607966
3678+596179673+600819503+597834848+591083846+587860181+587320036+583088312
3668+574161370+565392729+559424361+555808962+553625741+552921751+554330056
3658+557358145+560077273+562000837+565542735+572855871+582066234+585958425
3648+579664035+568557022+560482989+558118354+559434214+561133185+562059122
3638+563489451+566391080+570165903+574465367+580613663+589266240+596236364
3628+595537664+589597731+585386655+586751128+594201953+604711259+612270722
3618+613524456+611577093+610588523+611501238+613597412+616564571+619695827
3608+620787203+618505124+614963660+613625088+615683951+619595485+623737263
3598+627776888+631000880+632294606+632875431+636231932+644162009+653953959
3588+659438439+656609876+648397464+640733928+637241005+638219360+641140151
3578+642869587+642812787+642870311+644395296+647182780+650943838+655152269
3568+657558164+655897337+651618920+648041521+645952012+643815919+640843327
3558+638061493+636442470+635505701+634279425+633208046+634477357+639632410
3548+646947393+651685138+650226663+643838378+636754219+632074940+630609074
3538+631418984+632236284+630923069+627673358+624970350+624772780+626691744
3528+629051705+630438818+630061068+628116530+625932041+624579486+623897956
3518+623450654+623220411+623226641+623630618+624853924+626470846+626506129
3508+623654744+619632144+617334562+617506121+618567358+619407334+620325339
3498+621194947+620788942+618300600+614550917+611498630+610862671+612472493
3488+614135783+614021313+612581022+611192822+610085580+608715927+607207136
3478+606183428+605676754+605099913+604184010+603325305+602884669+602752123
3468+602812039+603391705+604777260+606304491+606542015+604954363+602860109
3458+601839226+601832235+601528238+600154781+598302653+597111225+596919198
3448+596851676+596047272+594860734+594080565+593732953+593525784+593500427
3438+593348465+592231479+590229271+588721711+588583478+589055702+588887511
3428+587927161+587067623+586957101+587376909+587699525+587216180+585187311
3418+581726773+578388240+576733716+576687856+577083900+577207100+577021811
3408+576541835+575838207+575296975+575236806+575488278+575685484+575759202
3398+575702619+575059233+573357835+570844571+568033540+565279853+563589649
3388+564396914+567480137+570404406+571122631+570088817+568990776+568642114
3378+568691343+568569484+568184054+567778084+567482202+567305933+567382077
3368+567809745+568299864+568271898+567405876+566158083+565558602+566200466
3358+567552369+568535903+568564304+567754973+566468130+565119741+564242960
3348+564083427+564189021+563996741+563681659+563799172+564313888+564596911
3338+564224413+563497674+563249101+563926864+564621145+563745922+561220196
3328+559027230+559028136+560775720+561894518+560823754+558746272+557869346
3318+558512551+559260372+559337893+559202050+559178540+559065483+558859075
3308+558845491+559025310+558956918+558366240+557822472+558227970+559376544
3298+559860433+558999591+557996060+558281583+559495071+560053329+559300581
3288+558111580+557543941+557895102+559015892+560650564+562367213+563695751
3278+564383222+564420134+564112913+563951062+564107733+564206880+563665322
3268+562200072+560127553+558348562+557793890+558525157+559576794+560098682
3258+560312117+560684144+560654513+559220199+556525485+553833235+552107168
3248+551333592+551019705+550877705+551117186+552119304+553693300+555015969
3238+555505328+555262115+554502594+553243245+551739090+550624313+550414247
3228+551000651+551563654+551246290+550193458+549396589+549231549+548861768
3218+547383297+544903033+542331157+540593064+540013216+540143951+540307360
3208+540321886+540403899+540597664+540626644+540187457+539311074+538396149
3198+537585478+536344133+534342397+532483422+532098644+533136117+533930305
3188+533047620+530793579+528445318+526679947+525353329+524204719+523207202
3178+522595259+522605547+522850607+522480898+521310046+519959990+518802505
3168+517701784+516683220+515944491+515471543+515145630+514832975+514205854
3158+512931979+511206673+509683754+508751730+508170144+507500133+506683558
3148+505960660+505339081+504593253+503830724+503484707+503499957+503081237
3138+501781679+500465203+500356240+501247438+501563099+500362144+498353851
3128+496610397+495276642+493948104+492604605+491758036+491747531+492167447
3118+492273331+491801469+491081324+490559363+490463694+490562986+490225916
3108+489178119+487993936+487321534+486962548+486247655+484981967+483506466
3098+482106529+480849969+479787284+478969803+478354926+477851947+477506944
3088+477490571+477741788+477849883+477578524+477230405+477132092+477051202
3078+476533335+475573491+474477189+473255115+471751468+470292883+469531152
3068+469523834+469590741+469195241+468356750+467223607+465968243+464994235
3058+464547550+464291876+463799366+463165761+462740086+462592905+462499880
3048+462232362+461782162+461281429+460669994+459731848+458633409+457965934
3038+457936158+457954234+457362251+456164629+454718651+453218662+451915191
3028+451304770+451489081+451701792+451082423+449646370+448049807+446782452
3018+445912083+445356796+445189148+445482024+445824311+445487567+444365183
3008+443183826+442512185+442152293+441660327+440917396+440043767+439122212
2998+438175011+437312865+436709290+436310747+435781940+434917222+433935426
2988+433237994+432937402+432660102+431895183+430576462+429138671+428078521
2978+427744747+428211755+428971168+429219451+428763456+428111920+427569529
2968+426857316+425689253+424244616+422940602+421969311+421173383+420274506
2958+419149405+417914218+416856423+416263245+416183913+416336926+416289326
2948+415821015+415138506+414607671+414306608+414035829+413619355+412947026
2938+411944038+410709793+409489711+408497121+407895937+407738976+407880034
2928+408101186+408124949+407538979+406218230+404666150+403353695+402137273
2918+400883864+400048090+400084713+400804351+401610893+401974588+401604155
2908+400525965+399078429+397671501+396528288+395681647+395128750+394816530
2898+394507136+393933338+393105279+392201837+391266916+390346376+389738853
2888+389691616+389953302+389978189+389534582+388852979+388222671+387709006
2878+387258625+386807955+386246401+385530023+384853165+384456071+384234014
2868+383765231+382843605+381781390+381055811+380792059+380699469+380420177
2858+379770127+378756055+377666563+377016403+376965870+376925588+376251665
2848+375186154+374528460+374548311+374729760+374437500+373491639+372203890
2838+371048143+370246710+369665450+369114183+368608307+368267034+368043239
2828+367659620+366928064+366089609+365571995+365410940+365232933+364780089
2818+364117359+363376457+362579986+361691940+360725865+359819525+359121477
2808+358539782+357822389+357001358+356462191+356383692+356399414+356080927
2798+355526980+355134885+354959594+354662407+354009567+353125614+352284079
2788+351627037+351090333+350528562+349846996+348977134+347868624+346656295
2778+345681345+345161051+344945949+344717408+344297528+343685079+342946024
2768+342188930+341550941+341062634+340569218+339916523+339147836+338402515
2758+337718123+337023226+336222698+335284951+334348871+333631805+333150307
2748+332752452+332430306+332272041+332111349+331594822+330618496+329438080
2738+328381988+327614967+327088370+326622449+326098895+325544115+324953255
2728+324177794+323148798+322122011+321547633+321677788+322294802+322801114
2718+322678493+321931252+320954926+319995662+319021328+318105715+317514710
2708+317294899+317123556+316710487+316108217+315509279+314926895+314240765
2698+313468818+312783376+312253265+311782236+311324429+310925017+310525640
2688+309953038+309151024+308313185+307744495+307557721+307517548+307294730
2678+306826780+306250483+305617313+304940492+304362782+304006947+303787951
2668+303558975+303321831+303163964+303085356+302978892+302733144+302305622
2658+301729795+301091245+300461571+299853305+299299213+298921753+298784009
2648+298705745+298376898+297653221+296677312+295752588+295123239+294811834
2638+294634949+294393621+294056406+293734134+293475472+293166494+292703851
2628+292166024+291696154+291310906+290916927+290420360+289802838+289193649
2618+288790904+288622350+288513441+288330181+288084976+287826876+287603261
2608+287463126+287368218+287217288+287007221+286794474+286518207+286110282
2598+285729217+285572907+285497234+285156614+284523009+283951964+283721721
2588+283762256+283838382+283801125+283647895+283454564+283258444+282984278
2578+282533354+281950771+281424699+281107444+281019128+281108440+281260475
2568+281238523+280813191+280033674+279246875+278818646+278912304+279452667
2558+280154175+280642429+280712505+280460128+280077741+279621166+279111178
2548+278726255+278652719+278803323+278876261+278631093+278013698+277184825
2538+276488914+276173940+276114152+276000569+275746979+275535789+275551746
2528+275791336+276063003+276152822+276048495+275937593+275943262+275950145
2518+275756850+275365534+275033463+274985737+275174105+275396524+275497880
2508+275365932+274964473+274474879+274154816+273989197+273735951+273339436
2498+273030477+272974346+273032378+272939535+272607355+272193978+271921460
2488+271868898+271939137+271978640+271881105+271594786+271129408+270608480
2478+270228375+270076232+270036077+269932565+269697793+269356014+268954011
2468+268579974+268345329+268267736+268247867+268193693+268073373+267855264
2458+267529659+267170075+266851770+266559383+266270165+266037911+265913860
2448+265877545+265882435+265874701+265751519+265406806+264873507+264363573
2438+264097050+264118097+264335716+264659166+264959903+265016630+264712688
2428+264228709+263859924+263706150+263673657+263689904+263778274+263956010
2418+264154647+264270947+264286487+264304617+264412132+264501915+264351818
2408+263959523+263663768+263765993+264124164+264320339+264202464+264058580
2398+264204293+264566050+264818029+264849526+264901074+265275057+266163556
2388+267774809+270364562+274069544+278864126+284680840+291481705+299302836
2378+308330356+318785470+330537027+342919689+355142274+366753896+377472689
2368+386804731+394188431+399286938+401946405+402202767+400334591+396547125
2358+390793786+383121158+373803750+363496795+353966061+347682719+346171609
2348+349586903+357246816+367472194+377333007+384087631+386967053+386923040
2338+385314341+383111522+380865595+378677882+376074889+372581930+368479600
2328+364376075+360258242+355604573+350185841+344343715+338665868+333578917
2318+329074711+324733118+320152732+315370538+310748168+306517494+302600164
2308+298808189+295050591+291366021+287875544+284700546+281876819+279370111
2298+277155302+275206634+273459684+271854861+270358114+268917261+267497021
2288+266148197+264958109+263980371+263245663+262740348+262373682+262056155
2278+261760997+261464969+261131685+260764802+260380440+259981064+259622875
2268+259402140+259342315+259386274+259469373+259523293+259483229+259336247
2258+259097563+258776758+258437841+258189014+258025170+257804562+257466079
2248+257137214+256961452+256964006+257135131+257476457+257896264+258203250
2238+258296257+258294319+258412574+258727384+259114100+259432732+259710883
2228+260080881+260593224+261170590+261720951+262238202+262790736+263432999
2218+264154213+264913807+265689267+266492222+267378910+268443244+269759448
2208+271301367+272901064+274339526+275559426+276742051+278097087+279634895
2198+281191630+282616055+283910904+285199232+286539072+287848810+289079904
2188+290321702+291624140+292843207+293768420+294357595+294791929+295283750
2178+295856607+296366885+296691493+296807829+296750105+296566682+296284763
2168+295887379+295320174+294513887+293444101+292182778+290840601+289485311
2158+288120531+286670079+285041039+283267410+281470433+279717161+278075190
2148+276609270+275268977+274222411+274233732+276036577+279416026+283521942
2138+287868371+292446185+297186648+301906209+306579475+311315808+316183201
2128+321189191+326376049+331859587+337705082+343791543+349937919+356132619
2118+362460698+368891366+375394047+382223294+389892445+399017029+410382721
2108+424923211+443406861+466265611+493475047+523945568+555142936+584092748
2098+608872055+629044315+645327210+658748939+669549817+677389405+682178010
2088+683563530+680610281+672812569+660277256+643213069+622182213+597977356
2078+571319657+543371565+515585397+488872817+463829179+441215416+421546207
2068+404813548+390699566+378600868+367901057+358518083+350612675+343973318
2058+338320937+333700342+330097042+327271196+325110252+323653262+322966334
2048+323287900+324984806+328395391+333974634+342318396+353978196+369617959
2038+390077444+415700314+445747442+478654214+512459465+545016851+574529774
2028+600123991+621818808+640133976+655550378+668254208+678474622+686395281
2018+691590833+693521026+692526008+689494369+684795239+677974070+668390412
2008+656008692+641254186+624327000+605421153+585278597+564657080+543657341
1998+522318648+501488440+482319783+465014956+448694569+432613046+416989295
1988+402510024+389651587+378539323+368941102+360412957+352662120+345620778
1978+339225828+333429164+328283964+323768673+319774293+316374323+313686093
1968+311361668+308709374+305511609+302278091+299557386+297427252+295707271
1958+294279477+293066677+291930292+290739643+289502772+288390132+287592177
1948+287220240+287441808+288372817+289420705+289258908+287320727+284719292
1938+282859665+282027350+281702234+281450364+281205395+281077142+281129813
1928+281424446+282234827+283707774+285235783+286056959+286474375+287123647
1918+287344038+286040404+283876545+282672764+283147959+284439475+285270921
1908+285113108+284361284+283680008+283376989+283380394+283576967+284051328
1898+284989438+286223755+287136507+287598788+288455880+290081388+291226828
1888+290622131+288906207+287517572+286939282+286897479+287113088+287389373
1878+287619273+287871034+288326957+289470333+292154939+296573854+300831787
1868+301780799+298744198+294461343+291556853+290490907+290452835+290693855
1858+290876283+290901984+290851469+290930167+291388263+292445895+294286016
1848+297243865+301466152+305486107+306181765+302769931+298509770+296271016
1838+296048778+296412854+296795657+298276574+301976919+306780703+309640673
1828+309447342+308145755+306902526+304988345+302418697+300574972+300207401
1818+300741370+301418861+302357676+304219368+306920167+309104910+309492441
1808+308462467+307551599+308051317+310437143+314099525+317278199+318325308
1798+317654066+317616972+320279337+325272865+328956220+327685388+323097685
1788+319676016+319277798+320753916+322560836+324322330+325847459+326608104
1778+327104309+329223956+334489640+342017804+347729413+347897423+343859971
1768+339084009+335575400+334692606+337004136+340677349+342769465+343132110
1758+343548766+344194252+344893822+347409260+353312352+360760822+365278286
1748+365030147+362546587+360827077+361102384+363091550+365380693+366481088
1738+367399310+371313779+378864511+384513705+382631691+376531863+371013150
1728+367170986+365323168+365719683+367723665+371256037+378014464+389176574
1718+401448280+407005934+403070455+395554860+389943159+388122401+390383071
1708+396156986+403321383+409167095+414149357+421623257+432029613+439962298
1698+441676736+439218823+433695112+426823012+422921765+423989015+428609972
1688+435589406+446192208+459882543+468257856+464830790+456934982+452591577
1678+453874110+459363951+465574807+470170879+474882325+481265538+486084536
1668+485677045+483401813+484828918+490647715+496822455+499837322+501427148
1658+505821774+515881460+532108605+548813155+553011407+547248867+545490089
1648+549553405+551762165+546224435+537880311+533202154+533737228+539287347
1638+549227637+559832974+563104674+557050235+550156907+548579071+552210227
1628+558012542+563678472+569146795+573937791+576361726+577568332+581488198
1618+589218423+595892085+596195068+593117569+592190871+594453026+597788807
1608+600164019+601343818+602150831+603089773+604118262+605234162+606783199
1598+609119180+612112275+615114282+617554518+619472684+621179660+622661175
1588+623779356+624816830+626309284+628396692+630826929+633909789+638963776
1578+646622458+653868324+655679048+653764649+654482838+659541100+665175187
1568+667873197+669482802+673357822+680923841+693864942+715474161+744407055
1558+763933720+765306054+763905537+768477157+777359434+786647717+793926547
1548+799377339+805550014+814661738+826438145+838926873+847055316+841765362
1538+825833846+813024458+808213466+807190555+803901939+798379568+795608746
1528+798018481+803838038+810258273+816166074+820293942+820424351+817518846
1518+814577697+811748916+808203757+805418953+805841115+810946106+821014595
1508+832950390+836433967+825400092+811526207+804530508+804803570+809344688
1498+813673675+813549932+809561094+807101442+809925586+816794426+822177985
1488+821175867+815009132+808292001+804042635+802655087+803067831+804663308
1478+808020751+813749167+821272876+828042896+829596642+824449413+817812338
1468+815191777+817045028+819264873+818172918+816336909+819205102+828548809
1458+839565658+842114929+834403939+825857537+821700906+821393866+822770764
1448+823530105+822400331+820290030+819138232+819865984+822355992+826406195
1438+831008533+833075945+830679686+827011726+825679239+826115746+825249832
1428+822086119+819011953+818063737+818921464+820853902+823996968+827025708
1418+826231447+820723131+814198932+809754316+807727838+806958790+806599296
1408+806856419+807638508+807453835+805582906+804191663+805639561+809388158
1398+813108281+815359207+815454115+812794214+808723798+806293343+806836423
1388+808300042+807506144+804758144+803892593+807197510+813211159+819337684
1378+825011764+831243631+837630104+841616551+841917650+840681883+840333620
1368+841083759+842542525+845135918+848593703+850951636+850712698+848682091
1358+846386609+844471776+843078867+842368429+842234253+842023136+841080644
1348+839557833+838346627+838404369+840428456+844615805+849947417+853880107
1338+854071155+851099505+848174222+847778214+849586113+851688227+853144602
1328+854567288+856547760+858733844+860692292+862891344+866097367+869933627
1318+872977582+874567843+875464185+876634530+878581024+881546879+885283738
1308+888974447+891931391+893862960+894595349+894449002+894535579+895721718
1298+897517590+898550209+897980250+896180901+894142252+892528300+891290287
1288+889803991+887434756+884271260+881088637+878375848+875894896+873539064
1278+872056028+872340826+874182413+876115794+876777907+876292208+875984008
1268+876855066+878744035+880833616+882458507+883420416+883831638+883901117
1258+883974798+884408044+885186801+885803634+885662720+884566998+882769967
1248+880755588+879020429+877828783+876937948+875775572+874245227+873009243
1238+872704086+873314833+874431856+875673998+876839272+877961438+879175180
1228+880559251+882091480+883428168+883952338+883721370+883951686+885659387
1218+888359208+890831829+892488525+893486441+894062703+894200139+894106752
1208+894826173+897506867+901736744+905680373+908428011+910963227+914307267
1198+918125632+921575230+924432193+926899235+928795087+929621733+929545154
1188+929617386+930772589+932972148+935460779+937832768+940699657+944776883
1178+949305178+952429841+953446956+953442247+953575698+953852672+953979675
1168+954799583+957610324+961879396+965158231+965997628+965519101+965603287
1158+967140877+970070145+973617767+976593837+978359860+979332925+980392206
1148+982131567+984394881+986502502+988352711+990625661+993347000+995029126
1138+994021647+990815478+988165357+988591576+992083485+996385738+999546409
1128+1001563251+1003321739+1005098412+1006504434+1007156260+1007241678
1120+1007619645+1009285833+1012526415+1016503951+1019683169+1020867279
1111+1019952607+1017988726+1016979870+1018913975+1023808211+1029365285
1103+1033417734+1035707492+1036748370+1036264192+1033623779+1029283128
1094+1025406731+1024826413+1028945152+1036207899+1042819472+1046046361
1085+1046450556+1046203649+1046706809+1048330613+1050781571+1052749438
1077+1052507167+1049989121+1047262060+1046625303+1047814050+1048895573
1068+1049836616+1052106958+1055237562+1056385448+1054205523+1050933497
1060+1049484730+1050303769+1051971695+1053588617+1055587202+1058877629
1051+1063048387+1065932809+1066243326+1064798978+1062748665+1060958009
1043+1060660967+1062640426+1065651778+1067282031+1067171401+1067701367
1034+1070471392+1073589680+1073741823+1070585934+1066784740+1063936760
1025+1061203177+1057917170+1054992756+1053107916+1051625315+1050282396
1017+1049985861+1051102014+1052840072+1054304416+1054944215+1054503289
1008+1053234703+1051697330+1050225668+1049398878+1049882983+1051089625
1000+1051237712+1048860000+1044203397+1039636052+1037795986+1039195344
991+1042246109+1044854426+1045161756+1042181339+1037271092+1033449322
983+1032247171+1032785397+1033719050+1034678278+1035890209+1036847988
974+1035511589+1029883660+1021338417+1014121965+1010765899+1010260420
965+1010472624+1010080601+1008131934+1003846851+997942165+992930924+990685649
955+990320360+989328023+986509530+982702395+979183607+976827268+976174138
945+976735113+976745690+975129927+972893129+971289393+969775711+967077049
935+963522400+960819753+959959491+960549083+961748407+962735311+962443993
925+960312898+957536716+956228934+957189684+959317156+960752448+959984341
915+956815773+953085144+951647462+953607721+956920680+958889923+959669331
905+961463537+964540456+966137093+963767930+958181369+952314212+948488240
895+947347309+948259010+949865138+950834798+950612017+949652861+948899389
885+948588292+947834168+946042136+943951034+942714325+942763735+943668119
875+944400364+944113610+943008904+941848484+940951418+940485569+940811228
865+941671563+942083654+941495656+940109630+938347230+936954176+936795294
855+937657948+937937094+936162740+932580922+929014536+927455138+928694890
845+931918011+935466938+938152051+939935752+941268673+941994180+941524998
835+939987915+938171323+936932658+937458350+940408121+943801933+944190623
825+941294247+938554145+938383164+939944591+941571583+942788006+943725572
815+944591340+945812472+947610952+949547375+951034251+952018691+952389197
805+951649925+950060678+948794700+948326823+948042025+947635440+947451853
795+947647611+947810984+947580089+947340716+947906110+949717341+952180978
785+953548457+952359058+949703214+948834402+951392947+955202039+956848375
776+955311002+952104182+949152672+947379042+946838281+947627760+949824494
766+952686239+955435832+958281566+960853369+960994573+957309297+952206987
756+949693216+951289562+955435977+959227826+960535390+959174503+956832437
746+955932037+957681107+960438670+961088685+958897892+955777213+952976760
736+951163863+952078824+956094324+959871103+960154017+958242733+957293648
726+957592429+957095572+954564268+951086270+949665685+952018402+955909216
716+957687193+956525469+954175578+951677818+949467536+948870482+950368153
706+952109108+951841988+949242509+945368213+941275121+937533987+934256745
696+931636401+930417153+931049128+932198607+931125272+926705433+921507562
686+918547141+917057802+914472886+910735664+907735324+906295395+906094348
676+907004963+908710418+910231635+910297056+907989331+904708104+903546453
666+903464296+901220978+897095863+894229263+894361411+895874441+896260885
656+894309247+890400321+886438144+884233876+883568068+883153585+882054241
646+879408177+875143742+871073616+869405400+869831546+869523637+867302488
636+865357950+865936313+867766670+867066304+862339860+856353886+853242553
626+854787606+858718195+859787618+854878457+847498488+843819733+844580812
616+844033965+837817965+829275330+825669531+831019763+842704521+852656077
606+854827308+850905776+846732554+845776152+845592348
##END=
