##TITLE=<SNM>
##JCAMP-DX=4.24
##DATA TYPE=INFRARED SPECTRUM
##DATE=2/5/2025
##SAMPLING PROCEDURE=Instrument type and / or accessory
##ORIGIN=Admin
##XUNITS=1/CM
##YUNITS=ABSORBANCE
##RESOLUTION=4
##FIRSTX=4497.3318
##LASTX=599.83466
##DELTAX=-1.4281778
##MAXY=1.8480794
##MINY=0.38969937
##XFACTOR=1
##YFACTOR=1.7211581e-09
##NPOINTS=2730
##FIRSTY=0.41302082
##XYDATA=(X++(Y..Y))
4497+239966809+239152143+238872259+238867463+238460104+237277055+235885115
4487+235233091+235434450+235769622+235912508+236189690+236543476+236480137
4477+236215369+236660475+238015205+239341053+239718179+239090016+237917962
4467+236712352+235993058+236152947+237097946+238248667+239097098+239601423
4457+239985146+240376766+240644044+240449784+239709522+238996323+239038434
4447+239810816+240535443+240456416+239354264+237701106+236511910+236580825
4437+237718248+238972999+239548230+239352533+238773822+238077644+237225369
4427+236276907+235506257+235010642+234757406+234888500+235334022+235523676
4417+235172713+234866682+235167882+235728481+235984175+236082111+236435775
4407+236874319+236864242+236284474+235527329+235124974+235467557+236437160
4397+237272172+237243671+236399171+235367180+234762566+234911425+235639723
4387+236257653+236110975+235152973+233904923+232985863+232695936+232863894
4377+233141752+233394676+233627065+233858466+234291971+235100698+235933165
4367+236167458+235602270+234458648+232956773+231245003+229610233+228567940
4357+228524288+229230024+229925284+230224146+230429990+230900117+231559777
4347+231977750+231609610+230317597+228775048+227845201+227680117+227909544
4337+228380468+229136158+229943846+230410493+230418042+230038284+229270075
4327+228278463+227590718+227592796+228032621+228306445+228034058+227281225
4317+226528218+226416950+227170096+228238483+228752002+228381766+227655945
4307+227416596+227991826+228869538+229258993+228959144+228429851+228111319
4297+228047166+228180736+228698082+229825375+231405481+232880499+233626701
4287+233314922+232159665+230824190+229867573+229317640+228929674+228581931
4277+228240179+227940781+227914254+228300610+228863598+229425722+230159958
4267+230950903+231088109+230206588+228855253+227673329+226854559+226541395
4257+226863252+227532366+227994995+227970477+227678801+227761655+228795463
4247+230511268+231897234+232430926+232562608+232732817+232835878+232865816
4237+233055436+233192642+232749509+231807870+231005740+230610415+230461435
4227+230675711+231571794+232881833+233742523+233687408+233124749+232585897
4217+232072205+231549769+231461946+232084949+232784071+232590243+231363751
4207+230017073+229658889+230577984+231958617+232687538+232504827+232126090
4197+232222675+232610675+232607559+231935085+230989066+230305441+230061331
4187+230128064+230346461+230664785+231051314+231264500+230902333+229951967
4177+229142253+229355491+230656301+232141501+232847012+232652942+232097901
4167+231667478+231670543+232278586+233133787+233458570+232997464+232239523
4157+231522134+230716004+229881615+229400701+229377776+229545162+229739111
4147+230021453+230373404+230650154+230817419+230911562+230945396+231072508
4137+231498342+232115026+232640146+233040700+233326731+233276690+232934073
4127+232796624+232977171+232911996+232329441+231769136+231774330+232154626
4117+232339414+232129449+231933787+232347726+233434398+234437471+234436000
4107+233321519+231881339+230991888+231008597+231685261+232380261+232580374
4097+232356141+232071443+231806797+231481044+231242405+231258907+231415021
4087+231513961+231518948+231495416+231482655+231381066+231021826+230580719
4077+230713337+231849323+233443125+234359276+234102282+233301745+232822562
4067+232815048+232894144+232788573+232424173+231810260+231256742+231312948
4057+232175941+233401118+234287919+234384435+233720394+232760349+232050059
4047+231824476+231995949+232393577+232806321+232897226+232410857+231572954
4037+231025272+231138289+231602113+231932419+232125450+232444587+232806182
4027+232888412+232702793+232557396+232553483+232630467+232981378+233796408
4017+234658968+234831879+234195594+233392547+233032406+233162877+233514585
4007+233883694+234124204+234060206+233677192+233237073+233022190+233205317
3997+234013957+235520472+237173856+238081297+237880648+236964255+236036156
3987+235791612+236618521+238170298+239438988+239549408+238492847+237088855
3977+236279487+236464293+237414296+238560809+239260848+239105634+238267783
3967+237473376+237511712+238641827+240268026+241372585+241572143+241427699
3957+241515539+241821518+242213778+242903151+244165330+245734544+246685707
3947+246431293+245710182+245640817+246045890+245758006+244402498+242777823
3937+241881030+242507497+244995840+248395157+250414811+249635727+247535125
3927+246782897+248175513+250041528+250654038+250482409+251027944+252465043
3917+253285804+251974241+248808161+245617025+244010428+244434479+246826913
3907+251382925+257869451+264510897+268877428+270177753+268839127+264801240
3897+258869304+253983298+253068982+256212726+259806372+260118030+258668932
3887+259397143+262360167+264315356+264599067+265032831+264696171+261847289
3878+258957127+259486369+263246068+268025863+272689836+275902546+275473560
3868+272685767+271420869+272247656+272040080+268974446+265016538+263092949
3858+265241827+272894623+285198804+293867748+289286940+276835095+266037862
3848+260444475+260199412+264102499+270271914+276898018+282700193+286295259
3838+286273702+283262940+279681068+276703758+273890269+271207319+269705115
3828+269961260+271655993+275284668+281916019+289387109+291997456+289065409
3818+285519120+282321716+276853276+270149789+266253627+267447273+273292321
3808+280590050+285230457+287480784+290809732+294722014+295043593+291955172
3798+288980010+286421817+283073666+279973055+279025373+280545723+283819522
3788+288350755+293552298+298339209+302454807+307252523+313557914+319667608
3778+323514196+326170047+330694147+339247788+352057004+366957835+380498378
3768+391483292+400949620+408772695+414763537+420954198+428691631+435537675
3758+438377934+438542706+440460130+447394516+458631504+468379033+472449785
3748+475188507+482097959+492083469+498337261+499901869+503489940+513211669
3738+528526093+545691034+559343573+566030281+566689855+565155133+565067621
3728+567960692+572575351+575930739+576726237+576390632+576267590+576229046
3718+576123008+576842526+579834432+585558550+591345799+592220913+587310786
3708+580474301+575046309+572635919+572744867+572483164+569903500+567200586
3698+567549454+571297483+576733059+583129910+591247033+599722651+602900211
3688+597709716+589643985+584784834+584772991+588949573+595977704+604756824
3678+614003734+619162439+615535097+608392131+605638518+605912861+601779636
3668+591912216+582205067+576137622+573114514+571756338+572029192+574267884
3658+577079815+578264041+578413126+580505261+585990739+593005710+596098564
3648+590568274+579173993+568430213+561840920+559151824+558711600+559518492
3638+561286000+563369305+564842592+566430126+571065944+580023307+587468979
3628+584771536+574882334+566890019+565256531+570720781+580866250+589502346
3618+591944284+590632756+589855577+590186507+590218713+589716086+589278148
3608+588814168+587988783+587116024+587002575+588433301+591589529+595717767
3598+599358338+601359637+602003696+602895640+605932116+611927356+619205796
3588+623462514+621547444+615534404+610024823+608033497+610123312+614540023
3578+618182464+619055361+617802705+616610514+617715990+622948804+632434318
3568+641782627+643712795+637048977+628198864+622395893+620079456+619579598
3558+619823744+620900546+623155479+625713568+626502175+625016109+623586630
3548+624013555+624868860+623857856+621207234+618738769+617266486+616231863
3538+614593908+611857956+608877721+607223904+607441246+608406538+608991932
3528+609774236+611644147+613212357+611997864+608511814+606319770+607580460
3518+610684673+612255307+610747562+607779863+605886542+605591559+605310636
3508+603870352+602038188+601200336+601577948+602310869+602661607+602194995
3498+600333395+597331689+595176422+595648783+597820534+599130746+598596466
3488+597322131+596287093+595295621+594027519+593030644+593183019+594486097
3478+595956926+596731819+596738745+596221849+594968154+592398083+588912934
3468+586487757+586709531+588492173+588811813+586027378+581658250+578687780
3458+578780590+580679868+581161579+578220199+573182251+569408076+569260792
3448+572052360+574568200+574408588+572420206+570864117+570697579+571318573
3438+571713292+571267182+569995410+568504738+567685795+567870410+568037121
3428+566544337+563311506+560496909+560064616+561736059+563787780+564631450
3418+563578646+561388022+559964984+560412514+561616133+561738379+560614687
3408+559456469+558921323+558746543+558683896+558750871+558665126+557883342
3398+556296812+554464372+553137294+552579327+552413793+552154930+551780643
3388+551653133+551889002+551941398+551029333+549178469+547419514+546537821
3378+546235565+546002709+546020752+546624466+547542072+548069218+547611748
3368+546093441+544197661+542981541+542976865+543820708+544571498+544338192
3358+543029954+541539836+540897232+541280523+542186319+543171801+543902055
3348+543998259+543575731+543402440+543855512+544234162+543769178+542819574
3338+542283181+542241001+541972684+541053277+539825070+538925611+538790898
3328+539372207+540075484+540261311+539817936+539179107+538923637+539285388
3318+539857727+540030741+539721109+539351913+539196491+539093742+538805755
3308+538305863+537743705+537449311+537821797+538814793+539800067+540334174
3298+540681380+541301024+542137109+542591531+542176831+541273250+540938581
3288+541636629+542626612+543108531+543368225+544036872+544887294+545190242
3278+544754382+543990813+543395999+543306306+543661615+543836292+543201271
3268+542005686+541184631+541162675+541432724+541451840+541186743+540548745
3258+539305370+537910001+537336415+537755999+538406672+538787712+538837130
3248+538173020+536543826+534906979+534684685+535911057+537057536+536806949
3238+535398421+534014065+533347357+533144007+532924207+532628185+532292269
3228+531568594+530242036+529005241+528805596+529363113+529190272+527375112
3218+524700456+522682431+522070751+522454873+522925087+522961657+522678656
3208+522233411+521480404+520624233+520517848+521475625+522400746+522052397
3198+520674240+519425705+518732263+518013229+516688368+514981428+513701102
3188+513223997+512835339+511484747+509217970+507250194+506520043+506696416
3178+506701299+505942544+504859993+504211571+504029033+503636254+502769624
3168+502003423+501651404+501150819+500107678+499010756+498254701+497437386
3158+496240208+495111945+494543969+494334870+493872760+492782729+491251712
3148+489903753+489306342+489432224+489587853+489008415+487600856+486060109
3138+485207886+485201410+485413591+485025313+483689994+481762181+479989997
3128+478916728+478439449+478001789+477309039+476655769+476462807+476749410
3118+477065275+476756336+475499939+473802696+472669412+472578368+473045292
3108+473313505+473108735+472537019+471687532+470664857+469737867+469127677
3098+468766653+468458060+468085332+467537199+466717148+465786556+465150462
3088+465091244+465526550+466049991+466166869+465669955+464765994+463763959
3078+462901070+462350583+461912333+460987697+459452664+458127249+457844006
3068+458526678+459495952+460248474+460635678+460561465+459842465+458419808
3058+456601947+454931092+453833061+453420438+453454549+453459917+453054463
3048+452245251+451364180+450747687+450426178+450154155+449898754+449913922
3038+450029762+449558336+448339687+447098494+446312415+445504484+444123280
3028+442524110+441560308+441489142+441686813+441481904+440890033+440342351
3018+440081237+440024374+439975787+439790340+439372557+438618962+437589604
3008+436738212+436528697+436736342+436586184+435625463+434080802+432474811
2998+431263019+430652655+430480161+430368442+430043712+429442248+428686229
2988+428036040+427652680+427371861+426890497+426119828+425201288+424327040
2978+423730667+423617564+423812084+423677336+422708824+421127801+419719930
2968+419158985+419453899+419934155+419896927+419269075+418377824+417333401
2958+416146474+415129409+414624946+414586575+414717929+414743867+414424816
2948+413606323+412378982+411053740+409979051+409369761+409224555+409378418
2938+409553303+409385379+408707105+407832199+407227550+406995456+406943129
2928+406898837+406635956+405822588+404418943+402864932+401654421+400960148
2918+400731448+400839218+401072697+401268256+401411800+401398363+400916237
2908+399888333+398731396+397834880+397132018+396482384+396059787+396002786
2898+396013279+395670402+394964215+394236178+393738363+393451207+393187911
2888+392730407+392020861+391271630+390709472+390304918+389943825+389621761
2878+389275283+388793814+388333609+388144699+388058331+387716527+387255075
2868+387079775+387012523+386394298+385108120+383808505+383016816+382639273
2858+382477410+382524819+382579189+382228278+381483618+380877756+380684379
2848+380489132+379807257+378800443+378047332+377815273+377851670+377758687
2838+377368400+376825913+376422086+376295858+376292914+376171223+375807394
2828+375161257+374286213+373382667+372627479+372012267+371485052+371091233
2818+370851347+370635253+370249053+369617669+368874636+368232447+367734252
2808+367219053+366574336+365895855+365312642+364778777+364199131+363666444
2798+363352968+363208628+362996516+362588395+362002723+361271638+360507619
2788+359930120+359619138+359408376+359144457+358854807+358571494+358225431
2778+357798263+357368914+356950023+356450166+355823491+355083263+354195856
2768+353200678+352393128+352059843+352027464+351814902+351277609+350775951
2758+350603421+350550748+350218330+349530186+348716160+347959829+347296758
2748+346757734+346399377+346199005+346031462+345756322+345297710+344679416
2738+344016172+343444422+343025600+342702254+342350685+341910808+341468091
2728+341153646+340920305+340505085+339746295+338888704+338355636+338169566
2718+337846221+337024888+335978942+335249761+334973548+334879803+334793192
2708+334777400+334830558+334764864+334455579+334020134+333647544+333327454
2698+332879923+332260071+331661759+331242280+330916648+330521445+330043993
2688+329604220+329285100+329033613+328731045+328341175+327929625+327540309
2678+327152620+326753468+326351442+325944880+325547148+325185466+324825897
2668+324394193+323932672+323637031+323642121+323814962+323839585+323512776
2658+322927070+322362523+322014174+321832017+321619663+321242017+320705728
2648+320100455+319532757+319087789+318776460+318508420+318184243+317850890
2638+317670603+317669599+317690827+317684282+317760192+317839843+317638154
2628+317109277+316517164+316038292+315656491+315352192+315095857+314830171
2618+314600224+314444075+314184589+313688264+313208457+313070697+313158416
2608+313084272+312754659+312426811+312252447+312062152+311660299+311138313
2598+310774796+310720460+310858255+310906080+310633988+310054688+309410595
2588+308928537+308623512+308368665+308050722+307623970+307144857+306794326
2578+306724615+306842255+306884192+306747125+306572448+306454601+306274833
2568+305954362+305658617+305548285+305501776+305303412+304954232+304597191
2558+304279698+303963799+303652885+303389278+303198083+303074867+302973434
2548+302824938+302633293+302525142+302625259+302868642+303010454+302874737
2538+302528120+302154249+301871040+301728431+301724380+301754958+301704987
2528+301608229+301543885+301421120+301106605+300727816+300579840+300705895
2518+300797320+300584169+300167910+299877671+299911748+300199043+300531046
2508+300738690+300768577+300664754+300510060+300353772+300164377+299876563
2498+299531573+299340448+299496285+299885394+300113678+299920267+299465498
2488+299108561+299000687+299005362+298931703+298717098+298403414+298046443
2478+297705609+297477636+297443733+297567294+297709418+297760671+297708933
2468+297593648+297460598+297356256+297318093+297342750+297345590+297193596
2458+296854702+296485921+296285445+296279003+296322049+296291851+296225084
2448+296254866+296419084+296573086+296527235+296232148+295805361+295435923
2438+295261004+295271670+295371683+295549130+295859212+296221447+296432278
2428+296411084+296246520+296018616+295772047+295613508+295629507+295738421
2418+295780635+295724118+295670579+295704864+295838330+296051758+296275298
2408+296376142+296316508+296264181+296385007+296617863+296802860+296889436
2398+296888986+296807569+296730655+296777164+296934629+297121080+297346663
2388+297605596+297681090+297244226+296109937+294308283+291952436+289091970
2378+285712046+281906149+277984656+274271378+270813518+267437715+264106101
2368+261132843+259001628+257891442+257420431+257133448+257244352+258553335
2358+261649929+266473324+272682944+280177289+288656058+296692042+302192619
2348+303891802+302227458+299203033+296944118+295918776+295245351+294247437
2338+292959977+291675426+290424225+288959474+287258837+285794380+285088904
2328+285154131+285505112+285638162+285472039+285363161+285698142+286540651
2318+287644760+288683659+289476058+290069314+290618571+291228485+291939831
2308+292755138+293590184+294264856+294612789+294631109+294541416+294622451
2298+294901123+295111123+295054363+294862683+294769839+294779882+294752143
2288+294706257+294794842+294984410+295028598+294825352+294548896+294336230
2278+294100292+293762021+293420529+293184729+293032078+292896188+292747588
2268+292578383+292418771+292342757+292376175+292435082+292404018+292254588
2258+292076379+292003135+292088292+292236510+292285097+292175561+292019619
2248+291956142+291969024+291930030+291819178+291760063+291794867+291815126
2238+291797499+291893149+292165068+292434701+292501815+292365198+292168600
2228+292039116+291974600+291851557+291613368+291404754+291394607+291554185
2218+291741051+291885461+291985993+292036658+292043341+292048155+292086941
2208+292132203+292108516+291993300+291868180+291830814+291917390+292118663
2198+292361735+292491495+292408105+292207940+292098923+292197413+292426632
2188+292586764+292552514+292396261+292260752+292177223+292102698+292058683
2178+292112187+292243679+292332922+292306949+292241116+292258570+292381370
2168+292539355+292662812+292714724+292706655+292716109+292806599+292925589
2158+292959423+292892690+292850649+292959250+293198651+293444909+293627204
2148+293749969+293797967+293755129+293688708+293686180+293761917+293904283
2138+294096413+294249411+294277600+294259800+294350394+294535771+294662657
2128+294690881+294746636+294930559+295217162+295539364+295849688+296075099
2118+296111703+295940767+295711928+295635187+295795284+296133728+296576653
2108+297063628+297461429+297609613+297523625+297427110+297504059+297727772
2098+298003812+298336889+298746464+299150083+299464321+299730145+300026098
2088+300322881+300505281+300497939+300324682+300080087+299889549+299876805
2078+300086009+300403986+300642833+300755971+300883758+301143141+301499316
2068+301887212+302282520+302595476+302699922+302633362+302566248+302561746
2058+302567876+302598905+302706363+302849076+302992862+303228731+303609528
2048+303987140+304193018+304305948+304554803+304951981+305205511+305091473
2038+304760405+304544587+304598369+304827380+305041224+305104633+305041259
2028+305013104+305144008+305398092+305669976+305959037+306407503+307100114
2018+307806369+308078427+307742268+307144995+306784179+306839207+307124182
2008+307351324+307379340+307280885+307218689+307283760+307457917+307650186
1998+307794630+308088574+308993920+310597314+312086497+312458879+311714980
1988+310690470+309971956+309604145+309479198+309481449+309474003+309437572
1978+309481864+309660246+309901102+310105283+310308946+310776527+311711725
1968+312761377+313168632+312676982+311873762+311415911+311385748+311554018
1958+311826318+312187687+312507604+312650213+312654092+312697691+312963723
1948+313624994+314923570+316958080+319074699+319883807+318715684+316633730
1938+315144340+314666369+314726730+314889944+315068291+315312055+315636543
1928+316105129+317036102+318675720+320499503+321648579+322235117+322918204
1918+323272717+322287271+320393430+319184062+319471669+320715806+321800988
1908+322012720+321519200+320975154+320722732+320628364+320588746+320835593
1898+321632303+322748030+323535667+323928793+324794972+326476077+327746984
1888+327396246+326041291+325003829+324625109+324553736+324582341+324704448
1878+324951433+325356333+325978367+327282484+330257248+335205919+340109604
1868+341507050+338566709+334153185+331076607+329952499+330031907+330418523
1858+330580490+330493636+330482139+330794818+331533280+332857206+334957583
1848+338083440+342356087+346510264+347546271+344432258+340243936+338014040
1838+337909802+338434940+338846697+340182571+343672602+348337268+351203153
1828+351147017+350058510+349006607+347125614+344432050+342520444+342291813
1818+343010882+343606977+344130141+345488767+347882672+350064916+350636667
1808+349762453+348953414+349706490+352559493+356572411+359641405+360292425
1798+359352933+359207588+361709922+366470479+369977272+368531031+363614533
1788+359799597+359170256+360646037+362542925+364370379+365944822+366719889
1778+367119525+368965610+373744106+380686734+386105410+386535625+382958048
1768+378311286+374445132+372964850+374818900+378338506+380356601+380421256
1758+380319893+380417170+380723477+383127010+389173607+396706547+400802475
1748+399646542+396228819+393742588+393203287+394176197+395522910+396127317
1738+396839321+400401315+407431697+412801959+410993795+404940202+399309241
1728+395355090+393515308+393981089+395874479+398829608+404488932+414334292
1718+425653597+430998718+427113275+419245873+412765078+409713123+410558558
1708+414942023+421008637+426159654+430524834+436999084+445921644+452289855
1698+452746701+449229727+442762542+435145692+430594788+430871313+434408546
1688+440047922+449218472+461552591+468796989+464402997+455433685+449784508
1678+449655960+453876661+459027470+462436189+465452510+469551035+471610133
1668+468276354+463207793+461928506+464849177+467747545+467330247+465758644
1658+467472648+475441829+490461582+507162509+511571947+504784706+501424158
1648+504383096+506528735+501517072+493478941+488931778+489782408+495859272
1638+506325731+517211462+520128843+512934036+504542708+501428314+503550301
1628+507879257+512065571+515963793+519118636+519932176+519373239+520963405
1618+525757484+529719219+528425560+524355155+522307105+523507261+526259143
1608+528436330+529543607+530541210+532075689+533703533+534800801+535560803
1598+536690971+538472574+540494998+542255269+543741993+545222691+546696879
1588+547918748+548857375+549770374+550797205+551974089+554005932+558409830
1578+565751713+572845296+574309302+571447157+570697232+574137708+578080361
1568+578541016+576888377+576374495+578644977+585730525+600525456+620166309
1558+628392241+619747972+608624848+601950642+599296695+599088981+600146737
1548+602798467+608908819+619481455+633161075+647548612+658570753+658979255
1538+650239683+643568385+643802072+647868183+650441302+651185512+654412387
1528+662127864+672149806+681814360+691355560+700819188+707071595+708857215
1518+709229909+709708157+709627329+709963661+713312850+721513225+734716190
1508+749449825+755095781+745508592+732746127+726920092+728619274+734837050
1498+740929672+742499474+739918737+738367080+741682886+748944704+754975890
1488+755206460+751087503+747102636+745760079+746911752+749275979+752460604
1478+757419145+764764907+773441867+780592244+782462501+778639704+774095068
1468+773332711+776481667+780065374+780996036+781177153+785077730+794442869
1458+805349552+808535493+801495449+792499195+786992869+785361424+786071004
1448+786612972+785117971+782367613+780566409+780881270+783532238+788721556
1438+795286330+798798768+795975132+790723271+788203968+788714838+789536482
1428+789458702+789797458+791098874+792348275+793824367+797312217+801962338
1418+803055278+798776535+793017268+789113089+787181952+785885176+784693470
1408+784667497+786719357+789616756+791359988+792334700+794418143+797782777
1398+800913933+802798388+803143517+801784060+799899188+799869406+802590190
1388+805750920+805680550+802411496+800415530+803046482+809372790+816243213
1378+822001303+827313490+832580381+836314316+837392434+837252873+837897001
1368+839910282+843347641+848177148+852891958+854609217+852197962+847942907
1358+844825950+843827828+843872155+843624408+843158004+843163891+843279003
1348+842666527+841613759+841334360+842742438+845904137+849838375+852579660
1338+852535125+850235934+847828972+846910986+847456001+848457447+849140085
1328+849479880+849869058+850704970+852306632+854802594+857685310+859752477
1318+860395774+860825608+862693788+865774937+868491911+870481505+872850857
1308+875943989+878650296+880111082+880834722+881743635+882991512+884120191
1298+884807123+885030628+884783297+883888859+882142441+879783685+877722960
1288+876708562+876160776+874727833+872032815+868913572+866204632+864180962
1278+862841383+862017869+861426587+860893415+860266740+859364823+858479319
1268+858429313+859673173+861839314+864281737+866555094+868286898+869266111
1258+869707928+869975899+870303296+871023473+872453160+874273896+875758646
1248+876746794+877735704+879121895+880970474+883272851+885745333+887725093
1238+888916799+889899683+891413176+893518159+895811048+897940134+899604547
1228+900776376+902149477+904397276+907011952+908998568+910400551+911873942
1218+913342000+914337697+915170216+916793696+919770814+923742522+927701002
1208+930720577+932462702+933157252+933439976+933985199+934977849+936281135
1198+938218437+941342181+945227590+948696393+951347085+953489746+954938965
1188+955247246+954990495+955680128+957935130+960490865+961820262+962346993
1178+963849543+967108208+971178959+974643746+976630500+976884688+975932279
1168+975061459+975351386+976717076+978195247+979284100+980565361+982766756
1158+985794920+989026296+991886571+993890156+994675161+994576326+994719073
1148+995690391+996866652+997529134+997701179+997832151+998655389+1001231486
1138+1005732418+1010185767+1012003525+1010896871+1008956937+1007974330
1130+1007951197+1008424666+1010101823+1014094171+1019759867+1024231570
1121+1024673941+1021109003+1016589925+1014441723+1015747017+1019315903
1113+1023341912+1026458730+1027678072+1027502910+1028296158+1031543949
1104+1035556036+1037202926+1035880247+1034033677+1033960815+1035270680
1095+1035849980+1035304757+1035737015+1038677495+1042701564+1044896933
1087+1044445074+1043763268+1045621889+1049661057+1052612480+1052117748
1078+1049011804+1045675774+1044008729+1044494388+1045520006+1045238390
1070+1045065861+1048160239+1053973114+1057840377+1056787470+1052473820
1061+1048566663+1048303263+1052739228+1059319101+1064354382+1067456102
1053+1070370955+1072890812+1073741823+1073268008+1072174583+1069621342
1044+1065097138+1060544953+1058397097+1058869666+1060500349+1062777446
1035+1066275477+1070232571+1072855558+1073656840+1073025178+1070863401
1027+1067571214+1064332150+1062021600+1061336469+1062938547+1066222770
1018+1068968556+1069608944+1068877339+1068398468+1068566842+1067994191
1010+1065079892+1060547931+1057388379+1057793071+1060956087+1063910280
1001+1064206371+1061428309+1056823208+1052831207+1052000766+1054675768
993+1057954450+1058392872+1056200136+1054894841+1056385755+1058854428
984+1059562277+1057498920+1053112268+1047748412+1043428459+1040924879
975+1038902039+1036794909+1036192130+1037734090+1039357570+1039051228
967+1037293104+1035436076+1033901943+1032577601+1030800015+1027062548
958+1020771356+1014164817+1010215688+1008806294+1007041037+1003100773+997958483
948+993425830+990310397+988506284+987644745+986999786+985399993+982389075
938+979262768+978027981+979232778+981314073+982344471+982117017+981907295
928+982351328+982852432+982700681+981526012+979498325+978014267+978649184
918+980431202+980112186+976438508+971828628+968806421+967486720+966875629
908+966504736+966579677+967391486+968385175+968166033+966353124+964594654
898+964496372+965428627+965487498+964008843+962188246+961399917+961560741
888+961489194+960610617+959389752+958240780+957180254+956144662+954973873
878+953561293+952605974+953228424+955319555+957313374+957819257+956955917
868+956070553+956114533+956188574+954407109+951016363+949146660+951075027
858+955157276+957755883+957336576+955259228+953283902+951807602+950467607
848+949508826+949474057+949975577+949705943+947829729+945224404+943741386
838+944395418+946396371+947948651+948149923+947517431+946803903+946220864
828+945949983+946100557+945724123+943696574+941024966+940136831+941361852
818+942392872+941925429+941749160+944042741+948798484+954591551+959825404
808+962753625+961957122+958258372+954537389+952770123+952772686+954081374
798+956814347+960053966+961698224+961279402+961143096+963414652+967089785
788+969003122+967601347+964580455+962128266+960350680+958464701+957077609
778+957525451+959755173+962164143+963177433+962523401+961756750+963125418
768+966916493+970692400+972057883+971289015+970307516+969828437+969280790
758+969228706+970778907+972755065+972563489+969568916+965566872+962397553
748+961186385+962965079+968086036+975116522+980491252+980311588+974295501
738+967361288+965146249+968749834+974544425+978126332+978089416+975882549
728+973235945+971255424+971243719+973708652+976066368+974616941+970319845
718+968777677+973100054+979878568+982698187+979105337+972581497+967633069
708+965260738+963457456+960536923+956852164+953803152+952287235+951875547
698+951220822+949578226+947300090+944826084+942802621+942955065+945874766
688+948240933+945726893+938542787+931351685+928254606+929301418+930850511
678+928714638+922333613+915844680+913630749+915553022+915903552+908686685
668+897214693+893467876+898309018+902208072+902306769+903140326+908299931
658+915241901+918448205+916261078+912478383+910256903+908756431+907440054
648+908249232+911294642+913369081+912893465+912644748+915874324+922130609
638+927262440+926726152+920085398+911633467+904905029+899418858+893456171
628+888116348+886465787+888487588+890536262+890580935+888662749+883956804
618+878095238+877200316+884491015+894506169+899090214+896660466+891450647
608+886591011+882190300+877788134+872318863+864907095+859109249+861161317
##END=
