##TITLE=<SNM>
##JCAMP-DX=4.24
##DATA TYPE=INFRARED SPECTRUM
##DATE=3/5/2025
##SAMPLING PROCEDURE=Instrument type and / or accessory
##ORIGIN=Admin
##XUNITS=1/CM
##YUNITS=ABSORBANCE
##RESOLUTION=4
##FIRSTX=4497.3318
##LASTX=599.83466
##DELTAX=-1.4281778
##MAXY=1.7105851
##MINY=0.17913634
##XFACTOR=1
##YFACTOR=1.5931065e-09
##NPOINTS=2730
##FIRSTY=0.19636498
##XYDATA=(X++(Y..Y))
4497+123259167+122442473+122289692+122167442+121899155+121787062+122081923
4487+122816296+123903662+125231198+126606503+127515217+127274990+125888106
4477+124401241+123930441+124606551+125761066+126703134+127029404+126658817
4467+125862355+125057129+124476799+124105174+123859766+123726637+123733596
4457+123929057+124444221+125324172+126115583+126086728+125198788+124262248
4447+123780158+123368696+122636222+121831519+121322585+121152238+121323904
4437+121909696+122616579+122739616+121946240+120797085+120052844+119764437
4427+119527194+119262218+119150453+119079694+118669691+117670529+116117788
4417+114463832+113626028+114266108+115872651+117187008+117637829+117694296
4407+117799664+117855888+117894144+118308505+119086007+119507346+118991209
4397+117832532+116789614+116248279+116119406+116290463+116719220+117170499
4387+117288643+116918206+116117713+115056294+114070778+113502608+113364606
4377+113490953+113859454+114359896+114649621+114730819+115083325+115775533
4367+116184768+115947432+115337451+114537828+113497407+112583633+112444668
4357+113092802+113832759+114167148+114224999+114323099+114608204+115136070
4347+115873221+116540287+116775696+116541633+116144062+115843673+115679847
4337+115577332+115360021+114858962+114230509+113858145+113808113+113800789
4327+113806289+114141678+114724824+114845138+114201260+113585658+113821956
4317+114603770+115170556+115454342+115707767+115731113+115295604+114689729
4307+114334267+114427035+115016841+115862764+116473596+116724252+116946968
4297+117211701+117267364+117275707+117773380+118804223+119747947+120050374
4287+119668199+118893222+118077707+117418096+116803326+116060918+115444690
4277+115543444+116547938+117852081+118612747+118627862+118428230+118511411
4267+118784581+118946135+119084043+119467472+120027608+120559664+121072630
4257+121453029+121334501+120749307+120270192+120261755+120638094+121269288
4247+121991465+122496069+122691033+122769874+122778180+122627027+122405349
4237+122201049+121943397+121708184+121714582+121899080+121951478+121791842
4227+121675372+121852986+122272847+122644219+122826342+123001842+123304559
4217+123582855+123767334+123989864+124160098+123968463+123425884+122918072
4207+122728803+122850389+123130537+123403398+123607576+123814392+124043085
4197+124163662+124073868+123839628+123612356+123540670+123769205+124340135
4187+125007930+125393631+125481854+125577728+125618631+125197348+124479568
4177+124275502+124982048+126166784+127211788+127794934+127902714+127789509
4167+127753058+127807271+127695786+127183905+126354659+125689661+125655371
4157+126142493+126616689+126838274+127098349+127727018+128593865+129170407
4147+129087722+128491173+127759128+127211293+127166190+127747708+128551784
4137+129029983+129157855+129310018+129722022+130401284+131254634+132067745
4127+132527060+132363691+131492345+130172235+129062776+128851863+129678874
4117+131008992+132150814+132764284+132841993+132493106+131911504+131350218
4107+130989789+130911089+131150623+131634958+132170896+132669102+133222204
4097+133771630+133937431+133487751+132734455+132147858+131903628+132056905
4087+132674574+133513202+134112183+134414273+134698424+134909964+134763179
4077+134432129+134417042+134761364+134986765+134782035+134304790+133829463
4067+133477359+133270496+133199344+133324943+133880599+134943393+135988481
4057+136340557+136102650+135991633+136296399+136625007+136621546+136409586
4047+136307548+136420941+136555089+136455652+136148062+135972234+136207746
4037+136706121+137005705+136851063+136486538+136348994+136586920+137006968
4027+137390266+137694555+137952497+138145142+138309446+138654376+139317372
4017+140016876+140181311+139492274+138232111+137142743+136907951+137582406
4007+138511417+138993759+139002767+139084872+139633503+140415018+140846150
3997+140670622+140191038+139801576+139595649+139606359+140022170+140852005
3987+141708068+142219734+142370054+142262152+141938501+141596331+141610015
3977+142122981+142829509+143303564+143425057+143370227+143273062+143104530
3967+142960449+143202349+144012374+144989976+145506431+145297333+144479938
3957+143348264+142431282+142330255+143236312+144832491+146533785+147599975
3947+147613098+147183874+147319743+147944755+147976716+147036453+145946038
3937+145516823+146005909+147418254+149359139+150752178+150690183+149689926
3927+149208266+149918704+151049358+151589964+151730790+152358571+153489917
3917+153914081+152554284+149917628+147638315+146823697+147399051+148984633
3907+151804795+156099111+160872991+164113314+164691305+162984306+159694877
3897+155810246+153088501+153023859+155228335+157151279+156886490+156131240
3887+157239502+159406003+160301472+160313949+161160705+161645779+159821355
3878+157377541+157216249+159558222+162834088+165949766+167856164+167457629
3868+165964226+165585484+166014511+165169214+162691035+160534243+160552127
3858+163727443+170486599+179148637+183231693+177984983+168906078+161917106
3848+158782628+159484161+162971697+167524619+171911609+175823384+178690202
3838+179267165+177515062+175135339+173276905+171669708+170063502+169042658
3828+168880973+169261606+170918115+175286192+181044708+183762263+182565049
3818+180763467+178695009+174510373+169642369+167382370+169072590+173820140
3808+178871267+181587138+182997350+185568279+188203952+187759491+184898847
3798+182304348+180000500+177250619+175076786+174728442+175992496+178094064
3788+180824227+183959117+186623581+188570536+191032140+194728279+198230238
3778+200004228+200917001+203039578+207686727+214740612+222388522+228439130
3768+232844640+236999625+241473004+246755351+254162295+264097759+274663781
3758+283719695+292030358+302302642+316223399+332472940+346384288+355455897
3748+363510255+374280127+386186116+393655243+396502867+400720334+410039587
3738+424683353+442288669+458237888+468099795+471443344+471942298+473440546
3728+477206761+482157133+486556020+489609871+491444995+492665817+494688498
3718+499055322+506279349+516190007+528129781+539379602+546088324+548634877
3708+551121418+556185416+563887669+572618474+580118092+585613138+590074096
3698+593926850+597118722+600449138+605270057+612040736+619103059+622740009
3688+620802669+615400410+610053898+607282037+607999116+611704234+617442846
3678+623728265+627137437+625421964+623117592+624456119+626172565+623442010
3668+618677960+617328957+619879888+623116469+625177762+627575070+631958693
3658+636609340+638479147+638947946+643214276+653799023+666826762+673258320
3648+669766463+663167588+658866838+657393695+658174303+661207239+666010686
3638+670890981+674269100+676112043+677882179+681002739+684904506+686766007
3628+685158323+683235014+684187128+688569292+695444132+701785747+703295780
3618+700112364+697745249+699662422+703639616+705384385+703902188+702101447
3608+702548396+704788453+707240349+709775079+713161130+716834970+719039857
3598+719322109+718994661+718961886+718855630+718702981+719492493+720898665
3588+720434206+717278851+714317824+713974363+715758416+717927162+719511500
3578+720429642+720580720+720158389+720383398+722681821+726984217+731265363
3568+733292833+733098878+732433132+732143472+731816173+730493136+727265422
3558+722983004+720400234+721406299+724935047+728123327+729072448+728055982
3548+726742597+726586580+727200396+726696129+724624435+723197611+723928683
3538+724901075+723866276+722327734+723374730+726976435+729935741+729872586
3528+727666351+725344208+723286956+720907494+718868800+718558188+719663550
3518+720376065+720065004+720024222+721683538+724993413+728600207+730575148
3508+729328585+725183402+720367833+717463826+718309609+722900693+728450102
3498+731291104+730814598+729495826+728754877+727673610+725661779+723787856
3488+723486972+725182878+727693140+728996946+728300520+726653701+725322732
3478+724865607+725378255+726428693+727244320+727490281+727077678+725393220
3468+722278796+719095604+717496975+718014337+720045025+722345617+723930105
3458+724726052+724685121+723178006+720651133+719354061+720810816+723935866
3448+726480100+727304557+726969401+727140384+729270743+732882400+735353003
3438+734267321+729845797+724716773+721559248+721108109+722131085+722500736
3428+720744893+717744806+716229535+717666760+720418642+721847411+721451795
3418+720782681+721409816+723670825+726729203+729240886+729665387+726950021
3408+722212199+718774816+719078095+722359536+725787640+727157370+726540860
3398+725643371+725737056+726279186+725858951+724314721+722982405+723254107
3388+725534421+728821549+731111516+731198018+730166511+730250618+732121921
3378+734017469+733979157+732230347+730409777+729529199+729929979+731946599
3368+734967713+736881369+736158753+734097535+733480951+735341779+737850843
3358+738315077+735926187+732185301+729243430+728508168+730231163+733562888
3348+737197069+740072866+741422617+740973873+739261205+737351889+736290226
3338+736386081+736628375+735402539+732520082+729777180+728640091+728946587
3328+730369819+733346934+737576298+740813216+741078707+739481948+738506413
3318+738147387+736414142+733051886+730290801+730118022+732054950+733723245
3308+733311316+731279580+729414712+728696586+728747245+728959981+729566763
3298+731135162+733434034+735655459+737029454+737207470+736265832+734536627
3288+732894822+732504443+733353594+733585561+731781303+729487370+729632013
3278+732794103+736501990+738319791+738411830+738170584+737606005+735714722
3268+732815728+730904841+731702584+734911367+738233963+739208301+737490620
3258+734795159+732505640+730493435+728258018+726041307+724902497+726101320
3248+729445167+732613692+733637043+733241875+733186502+733637567+733750258
3238+733424381+733057424+732779287+732398711+731662252+730605154+729489391
3228+728575963+727769315+726390680+724022218+721769440+721403007+722768546
3218+723843753+723945519+724834703+727795954+731151400+731856506+729278824
3208+726105809+725201885+726924579+729604027+731148257+729970536+726119353
3198+722002979+720203735+720562686+720838428+719903749+719130923+720244367
3188+722491308+723114178+720705234+716783114+713662628+712412923+713114661
3178+715175505+717230512+717915564+716857792+714819846+713305399+713425797
3168+714421760+714337205+712745983+711284214+711087341+711261392+710280693
3158+708160661+706786591+707770207+710075963+710778001+708668520+705679507
3148+703897399+703020712+701779162+700356828+700225729+702084985+704615376
3138+705583353+704045559+701109226+698611610+697485520+697227887+696528767
3128+694860024+693144512+692136128+691369288+690426827+689738707+689420014
3118+688747533+687456896+686360663+686148076+686580733+687271546+688269680
3108+689434156+690046700+689644723+688769457+688102214+687423822+686369493
3098+685502383+685516526+685852654+685319503+683767192+681991370+680543444
3088+679409572+678369311+677191889+675895865+675108971+675481616+676614889
3078+677277492+676684853+675143392+673466418+672117939+671062262+670182432
3068+669610595+669490721+669513244+669067717+667946341+666749839+666308726
3058+666693942+667121959+666786654+665506418+663863416+662886758+663207696
3048+664383098+665205385+664714138+662884663+660551669+658839750+658419365
3038+659080472+659867889+659682315+658164500+656145561+654803741+654162913
3028+653061966+650830289+648207561+646251777+644831014+642925738+640384273
3018+638376633+637854631+638662327+640322540+642359663+643603307+642713750
3008+639917196+637087792+635713497+635453170+635010636+634009584+633379007
2998+633791759+634448676+634146370+633103415+632675248+633292057+633595485
2988+631895164+628171413+624362808+622709030+623828984+626259740+627868733
2978+627643688+626028783+623957089+622098694+620856022+620384791+620405818
2968+620309065+619717735+618835922+618142340+617854102+617523997+616303512
2958+613956525+611346368+609556440+608778377+608334833+607542215+606329400
2948+605190327+604604048+604400852+603910803+602985028+602411096+602715272
2938+603129521+602462241+600545704+598193217+596201889+594947245+594479232
2928+594436842+594067827+592785720+590760645+588751171+587382227+586580255
2918+585635624+584102058+582652673+582410866+583428043+584588179+584908294
2908+584200083+582773109+581168381+579815674+578618760+577245775+575786288
2898+574506090+573195923+571529873+569816382+568698299+568252398+567960867
2888+567525031+567144043+566850380+566146508+564662216+562787021+561224945
2878+560137954+559101920+557867629+556832605+556521507+556866465+557363436
2868+557614784+557302377+556110289+554296341+552730972+551834269+551235119
2858+550735117+550622538+550719590+550129645+548425994+546398075+545164906
2848+544944799+544999311+544494259+543161082+541306540+539426257+537863433
2838+536739775+535956212+535137928+533903487+532429222+531385331+531092641
2828+531132000+530954770+530477291+529922739+529423673+528927188+528297321
2818+527407352+526165466+524539711+522654115+520815100+519310866+518221892
2808+517473235+516917337+516371540+515777890+515213873+514576486+513546701
2798+512100758+510707756+509750068+509049339+508170744+506995230+505886014
2788+505294946+505109036+504538620+503013659+500967220+499257770+498123188
2778+497258024+496556884+496097252+495596389+494536111+492822732+490982520
2768+489715678+489331548+489482701+489449402+488788071+487612370+486238786
2758+484769609+483160504+481579983+480410493+479736253+479040576+477763408
2748+476060879+474612804+473755310+473210075+472589637+471732106+470607475
2738+469293567+468025641+467004984+466164065+465298489+464391272+463597495
2728+462891416+461983900+460757765+459524222+458562493+457676078+456572362
2718+455396325+454436503+453574146+452522772+451387741+450482394+449731718
2708+448740394+447402915+446045868+444982110+444240301+443689079+443117579
2698+442232174+440860985+439205486+437758346+436911852+436598434+436296165
2688+435484429+434126522+432620904+431347665+430407710+429726250+429221159
2678+428859477+428611983+428356969+427879752+427069512+426071379+425132921
2668+424342398+423595501+422744106+421741894+420680493+419611049+418379601
2658+416911322+415600295+414949477+414827095+414591573+413968217+413312685
2648+412990549+412872321+412476779+411501768+410220522+409241582+408794483
2638+408458842+407726423+406617058+405574776+404932750+404627077+404340485
2628+403812796+403028933+402151236+401306313+400518709+399834705+399328866
2618+398918658+398358644+397539350+396656602+395967135+395500843+395136579
2608+394834909+394593251+394273398+393760975+393213195+392828803+392497688
2598+392004196+391379942+390732304+389971974+389026071+388123194+387614774
2588+387583496+387716914+387552180+386883590+385983070+385371050+385304304
2578+385521268+385566651+385294539+384882011+384450065+383961998+383470377
2568+383189023+383220002+383322254+383093467+382435203+381681684+381147784
2558+380790517+380479269+380285352+380289804+380374510+380349517+380080210
2548+379497523+378721929+378120273+377995684+378242841+378469870+378432943
2538+378224658+378050421+377950488+377802665+377540766+377277483+377168234
2528+377222858+377339553+377444911+377481502+377353621+377023815+376594825
2518+376217018+375967316+375813469+375667143+375535819+375563543+375775980
2508+375905845+375676047+375117642+374459416+373888252+373491513+373227107
2498+372932434+372537715+372207573+372104759+372126011+372032887+371758642
2488+371458319+371286401+371202219+371031386+370689272+370249282+369803942
2478+369423029+369245911+369375551+369662330+369829196+369800537+369703148
2468+369624242+369540883+369364401+368960703+368294957+367566018+367013860
2458+366669351+366451601+366354025+366376100+366413439+366319380+366030580
2448+365674361+365543374+365799062+366204444+366343138+366077647+365603760
2438+365136384+364754236+364501691+364417733+364401982+364224153+363785660
2428+363263920+362881286+362652574+362484397+362371407+362350979+362392733
2418+362463483+362594170+362777088+362888881+362820563+362608837+362333880
2408+362000858+361681341+361608047+361882180+362244124+362400552+362401600
2398+362435535+362465765+362348884+362113250+361872714+361627989+361338890
2388+361033366+360679878+360081814+359021124+357383883+355071168+351975862
2378+348205980+344196611+340389015+336836771+333322128+329823199+326574645
2368+323678494+321081657+318999113+317917023+318116964+319559651+322191770
2358+326033600+330964853+336773092+343496106+351080543+358481126+363965771
2348+366434017+366123255+364317090+362211499+359961565+357179639+353731781
2338+349767308+345623734+341718039+338273585+335291756+332815466+331037548
2328+330080458+329743619+329637850+329638186+330025160+331044807+332525993
2318+334081821+335491248+336768303+337987891+339144061+340193826+341215680
2308+342402567+343796691+345111011+345956270+346237101+346214428+346187228
2298+346250719+346396260+346694226+347232091+347905807+348421261+348598304
2288+348607396+348772841+349156223+349484345+349502641+349241977+348898104
2278+348618994+348471957+348457515+348475773+348389122+348165348+347887998
2268+347639830+347447596+347310998+347235907+347234897+347291093+347340143
2258+347343473+347347925+347399108+347444790+347404009+347275679+347123216
2248+347006185+346966601+347050820+347283872+347594484+347832999+347946326
2238+348058194+348284737+348581618+348856798+349098082+349304832+349411649
2228+349366229+349247177+349258364+349579190+350209206+350971069+351637639
2218+352032507+352080659+351856773+351586194+351534076+351816590+352286025
2208+352661962+352830550+352960077+353286291+353847689+354474525+355005955
2198+355460275+355956273+356520066+357087713+357682971+358431515+359338208
2188+360177781+360737122+361100113+361510695+361981514+362302677+362474221
2178+362813829+363520730+364393639+365103571+365579030+366020404+366610985
2168+367324584+368076683+368980009+370276033+372029445+374047673+376126401
2158+378309364+380887644+384091376+387766301+391479126+394964325+398280112
2148+401503411+404532494+407280484+409858278+412431919+415024941+417589378
2138+420188311+422975811+426042570+429369731+432881830+436497453+440180946
2128+443933056+447689207+451294879+454623499+457627926+460206693+462071561
2118+462848689+462351605+460715150+458296927+455537712+452822833+450292630
2108+447837442+445400063+443184849+441488569+440411567+439720940+438906921
2098+437416344+434903164+431309876+426859170+421994739+417134872+412429899
2088+407841509+403368579+399090464+395112784+391561886+388544552+386061827
2078+383995297+382188944+380541040+379043204+377746693+376688772+375867346
2068+375267298+374840628+374458069+373966186+373308970+372548565+371836201
2058+371393330+371331410+371408857+371220327+370732073+370348467+370338776
2048+370497412+370530898+370561877+371022781+372127993+373707879+375608103
2038+377965453+380943316+384461850+388323434+392355888+396347748+400046319
2028+403228351+405625285+406875664+406741310+405384226+403315750+400983355
2018+398443499+395557562+392415639+389313598+386395561+383619247+380993451
2008+378584283+376364467+374284692+372430374+370935569+369762786+368666217
1998+367446966+366278524+365589057+365419833+365150638+364218878+362833321
1988+361543919+360541745+359770042+359258479+359006981+358856988+358677924
1978+358483857+358311117+358102982+357754993+357319344+357133732+357488044
1968+358083639+358170889+357427171+356332622+355502740+355086470+354937001
1958+354949310+355023465+354975762+354687262+354241174+353853638+353706040
1948+353872645+354412904+355316642+356121082+355980630+354694707+353166454
1938+352291675+352080771+352108420+352159303+352220850+352275474+352287185
1928+352346411+352793847+353863890+355133126+355962559+356478424+357090145
1918+357279610+356226440+354427496+353276563+353413761+354276380+354843466
1908+354598665+353876162+353293213+353039844+352882518+352645649+352488211
1898+352741355+353434039+354111758+354509096+355043781+355934573+356409059
1888+355737663+354423867+353378554+352809822+352488622+352287222+352157695
1878+352065020+352035575+352174943+352890487+354899549+358291848+361430517
1868+361862238+359293237+355991330+353897824+353219694+353255237+353398982
1858+353416043+353329654+353240384+353210864+353382707+354017063+355321543
1848+357496612+360600074+363565178+364124706+361681678+358588916+356973488
1838+356880813+357284174+357737484+358990145+361830436+365359746+367280099
1828+366859827+365667551+364632453+363250339+361547773+360472417+360426809
1818+360894747+361385059+362077108+363396329+365147495+366366260+366357692
1808+365624862+365325811+366298952+368710066+371888468+374433824+375329443
1798+375196211+375810701+378444092+382559007+385467055+384785744+381924351
1788+380099030+380526261+382313608+384428402+386698615+388880904+390288535
1778+391127584+393029641+397500888+403982319+409240834+410346495+408298896
1768+405677328+403923579+404049515+406565576+410207165+412825216+414252714
1758+415722115+417244607+418573706+421050182+425965010+431984378+435830921
1748+436301590+435321004+434987345+436127428+438610714+441480001+443564116
1738+445478521+449602527+456566151+462366683+462665023+459660933+457005243
1728+455686995+455929962+457759137+460540726+464246255+470356576+479853846
1718+490137784+495342235+493652689+489580801+487095607+487425449+490713774
1708+496575628+503343876+508789648+513332729+519904740+529165515+536927444
1698+539913800+539707461+537742884+535365219+535179420+538259611+543610388
1688+550723743+560867005+573578033+582310297+582184585+578778368+578155611
1678+581877341+589007084+597082430+603976876+610353510+617368055+623068542
1668+624997613+625551529+628702544+634669719+640311615+643567465+646294429
1658+651593462+661559680+676985363+693932229+701442810+699729693+700136085
1648+705220362+709424060+707745439+703373452+701506563+703752232+709950102
1638+719232764+728248515+730766109+725665745+719488827+716614376+716882112
1628+718519352+720332215+721816881+721642831+718701784+715108608+714125590
1618+715645800+715577482+710904760+704160420+698588862+694772400+692030620
1608+689631403+687174120+684707109+682539486+680802499+679328384+678069549
1598+677317002+677244643+677540663+677670340+677221970+675980645+673996501
1588+671607984+669306269+667562772+666554387+666169097+666770192+669497530
1578+674718144+679762612+680590511+678617890+678873952+682764494+687347796
1568+689681389+690915979+693405738+698050099+706086273+719844859+738152850
1558+750281004+751163453+750091913+752563488+758257690+765683191+773946618
1548+783096161+793958372+806902752+820752553+833154504+840119662+837349298
1538+829228717+824522922+825138982+827809077+828946690+828814394+830010747
1528+833238910+837377882+842258476+849157112+857586284+864076283+866609517
1518+866635408+865209407+862923480+861814077+864122827+870854521+881456180
1508+891941855+893579545+884481559+875713565+873365755+875876466+880052777
1498+882967185+882839229+880881349+880596254+883961128+889480456+892993640
1488+891805593+888045925+885298757+884877325+886136010+888342394+891702405
1478+896482205+901948106+906827877+909602507+908170145+902611982+897109041
1468+895449352+897848269+901396996+902946987+903303394+906108703+913090848
1458+920982154+922237472+915596395+908361481+904604282+903836545+904337146
1448+904546440+903857273+902900370+902597241+903261865+904963832+907947157
1438+911617854+913373997+911200014+907360429+905158460+905304151+906674629
1428+908322570+909973056+911012644+911014290+911263543+913417323+916305093
1418+916470463+913428023+909943798+907449176+905685251+904493088+904060356
1408+904308187+904585800+903825396+901797103+899953261+899678866+900695931
1398+901950126+902655382+901698255+898263042+893947774+891409078+891030373
1388+890593002+888008361+884248843+882436878+884511340+889854073+896257047
1378+901717710+905437794+907366939+907669919+907397619+908224994+910446569
1368+912716033+914587112+917557492+922073748+925324210+924564479+921334146
1358+919036846+918722492+919354791+920259015+921794789+924252072+927277151
1348+930101242+931830522+932062115+931608507+932203765+934904689+938608460
1338+940629195+939620436+937308919+936322159+937323660+939166229+941012316
1328+942942734+944854220+946272065+947213852+948111566+948903772+949171657
1318+949123318+949500976+950553958+951911043+953207067+954225329+954852763
1308+955186871+955159933+954310858+952720384+951607315+952032713+953390920
1298+953830087+952161044+949160807+946786434+946085069+946203746+945495572
1288+943248931+940115051+937126487+934634634+932201071+929489746+926954941
1278+925269735+924230820+922716747+920091175+917261846+915489316+914368689
1268+912188943+908424636+904489421+901720778+899882174+897907608+895289594
1258+892460714+890210705+888821369+887713987+886177614+884314916+882756394
1248+881684555+880801508+880057566+879827170+880422802+881728629+883260587
1238+884467865+885004608+884922820+884802123+885470413+887123518+888798397
1228+889438029+889396948+889952622+891441105+892858874+893412229+893665373
1218+894704736+896668378+898783547+900647442+902577561+904628003+906371201
1208+907839180+909579460+911753294+913906325+915496424+916437913+917338470
1198+918891978+921045609+923446322+926274079+929559860+932343544+933800599
1188+934622362+936130674+938529890+940971834+943047493+945343447+948476354
1178+952261463+955981098+958962253+960803027+961455828+961289410+961120747
1168+961881825+963798474+966152495+968342566+970625275+973066021+974729901
1158+974926400+974271130+974106283+975393104+977849489+980073981+981109604
1148+981747364+983354300+985779182+987892406+989827163+992715382+996237919
1138+998623068+999498409+1000473644+1002259195+1003334925+1002666111+1002039200
1128+1003659156+1006883577+1009426988+1011034522+1013750037+1018172608
1120+1021842931+1022608498+1021759049+1022116428+1024563011+1027521643
1111+1029192183+1029553902+1029713136+1029724959+1028418983+1025804336
1103+1024157293+1025823118+1030912857+1037195358+1041665220+1042857158
1094+1042311436+1042866886+1045078209+1047158882+1048116832+1048324031
1085+1047652224+1045742159+1043684908+1043459675+1045715371+1048733192
1077+1050032359+1049716060+1051093722+1056271684+1062618013+1065882543
1068+1065414492+1063554039+1062171887+1061975912+1062849831+1063616221
1060+1062899891+1060892849+1059240642+1059057612+1060012944+1061011152
1051+1061202712+1060534796+1059527459+1059078415+1060580441+1064989992
1043+1070709934+1073741823+1072011196+1068180517+1066120796+1066599621
1034+1067789240+1068022554+1067182832+1066547915+1067234314+1068587657
1025+1069274430+1069436732+1069661067+1069318130+1068354866+1068099777
1017+1068710974+1068544032+1066610696+1063961853+1062524777+1063258018
1008+1065061303+1065249122+1062166500+1057248940+1053334153+1052215771
1000+1053991220+1057210254+1059497228+1058899875+1054917069+1048259006
991+1040606625+1034749897+1033056460+1034937192+1037070993+1036796149
983+1034722809+1033155907+1032974598+1033310352+1033335794+1032785657
974+1031152382+1028135384+1024423905+1020536955+1016052725+1010750624
965+1005090843+999683309+994918249+990781298+986985637+983694244+981551988
955+980219447+978128673+974655073+970994852+968287493+966292872+964056557
945+961139305+958209706+956416149+956110251+956611600+957072991+957068501
935+956597757+955848128+954703182+952843626+950953765+950744097+952832253
925+955665173+957329277+957436506+956287519+953703178+950110826+947349516
915+946893887+948099444+949343986+950034651+950327379+950122574+949691339
905+949851471+950441192+950263775+949078870+947571905+945512409+942418861
895+939544411+938821196+940247347+942121045+943565753+945118812+946963253
885+948222536+947894265+945491083+941272493+936599173+933257945+931977933
875+931990879+932062489+931700171+931159837+930579469+929797365+929227399
865+929652946+930669488+930947325+930480023+930571912+931395695+931768040
855+931171585+929962511+928268251+926495122+926032235+927995726+931562861
845+934355899+934604628+932679897+930499179+929574003+929628627+929255609
835+927936238+926847039+927313368+928887828+929588445+928226122+925989133
825+925178071+926660342+929129897+931128933+933100880+936158884+939507596
815+941258725+941656736+942952686+945956888+948896140+949624742+947698963
805+944558274+942002293+940423567+939048001+938121702+939037824+941382042
795+942687794+942244063+942260525+943990628+945239211+943594113+940507225
785+939682170+942707399+947906163+952579483+954961788+954617429+952525607
776+950262952+948454878+946601383+944114244+940967793+938005419+936598874
766+937051659+937678944+936818270+935170179+934407904+934611512+934889050
756+935367651+936803604+939116618+941677613+944185555+946458312+948061132
746+948749177+948944479+949081339+948940288+948292575+947598394+947505458
736+948189537+949485038+951162686+952956467+954317817+954701685+954309211
726+953399076+951290567+947803947+945081024+945613202+948904221+952151091
716+953533842+953034139+951479733+950368833+950743274+951405054+950053358
706+946171795+941272194+937005790+934136128+932381183+930630951+928284713
696+926321969+925687052+925117385+922471535+917687244+912245439+906979329
686+902543215+900298069+900364143+900144447+897798808+895951823+898066169
676+902808256+905151501+901849333+893071686+880162101+867589916+863480801
666+868289934+875139333+879966575+882264249+882778169+882269188+880895342
656+878443821+874365834+867811183+859384256+852269292+850332963+854559933
646+861677516+866416236+865868119+862498007+860828590+861542451+861637333
636+859856497+858023655+856695754+854206295+849592538+843988130+839909395
626+840210503+845443239+851323688+852519817+850231196+849886762+851071741
616+846739488+835246925+825333012+824403720+829761644+833712198+834061272
606+834616198+836683402+836623389+832275497+825656419
##END=
