##TITLE=<SNM>
##JCAMP-DX=4.24
##DATA TYPE=INFRARED SPECTRUM
##DATE=2/5/2025
##SAMPLING PROCEDURE=Instrument type and / or accessory
##ORIGIN=Admin
##XUNITS=1/CM
##YUNITS=ABSORBANCE
##RESOLUTION=4
##FIRSTX=4497.3318
##LASTX=599.83466
##DELTAX=-1.4281778
##MAXY=1.841939
##MINY=0.38017493
##XFACTOR=1
##YFACTOR=1.7154393e-09
##NPOINTS=2730
##FIRSTY=0.39767191
##XYDATA=(X++(Y..Y))
4497+231819276+232713152+233349577+233779472+234359330+234769541+234131865
4487+232403078+230870294+230891298+232471059+234284800+235033090+234597496
4477+233786820+233307465+233322631+233683764+234061800+234042308+233446605
4467+232505319+231760330+231807706+232662961+233411529+233264918+232746213
4457+232960213+234029747+235039101+235278935+234965978+234819958+235176191
4447+235532668+235086129+233742380+232268438+231442612+231441483+232060083
4437+233142734+234408374+235053486+234234436+232162271+230169710+229477952
4427+230285988+231848011+232992510+232935196+231971655+231043485+230591961
4417+230390730+230325129+230671078+231561444+232577312+233070705+232871785
4407+232578824+232920047+233795976+234416418+234439472+234186156+233675564
4397+232585478+231298503+230707370+230765604+230454940+229456080+228756695
4387+229174394+230079631+230048134+228648357+227144898+226940939+227661223
4377+227683026+226486357+225243093+224972752+225418682+225926078+226420791
4367+227137445+227878855+228042109+227349899+226191624+225121812+224414141
4357+224261675+224919191+226269716+227547465+227911829+227309785+226536808
4347+226274719+226217631+225606762+224644715+224504220+225606849+226846343
4337+227074989+226537156+226096854+225836103+225293093+224460127+223654645
4327+222907485+222203601+221839688+221988193+222335357+222540289+222675868
4317+222980104+223514028+224150297+224638635+224776454+224716535+224885348
4307+225395976+225806013+225727122+225447087+225570453+226155575+226635330
4297+226561738+226018954+225377247+225053241+225357651+226084850+226483317
4287+226128352+225477542+225077563+224700048+223834734+222604204+221682167
4277+221645927+222633356+224239785+225605199+225887406+224909705+223458834
4267+222727553+223139293+223885202+223939406+223177062+222181815+221619572
4257+222053967+223558746+225299816+226227239+226220255+225915776+225683933
4247+225422452+225087900+224910174+225055395+225327109+225415833+225337342
4237+225289166+225233052+225122281+225292988+226024826+227004802+227761153
4227+228231613+228429475+228027151+226822802+225340851+224529984+224889049
4217+226018745+227069534+227480231+227228253+226662832+226228907+226048662
4207+225789856+225277474+224926609+225105464+225514286+225637773+225341789
4197+224852548+224552395+224736757+225282599+225770746+226041139+226217909
4187+226263079+226071490+225850401+225792132+225610966+225110798+224974767
4177+226093571+228137504+229675257+229882222+229332349+228915640+228850631
4167+228897607+228751327+228079756+226781663+225347418+224654739+225274643
4157+226884616+228398238+228944931+228666008+228239866+227947669+227780002
4147+227945776+228401122+228511319+228029878+227585043+227555682+227537944
4137+227362356+227454276+227881860+228133873+228004514+227807834+227702328
4127+227508914+227152090+226796865+226627148+226791305+227378617+228119610
4117+228373638+227890199+227317568+227429763+228088078+228469884+228149787
4107+227515064+227157632+227254313+227609000+227954879+228108925+228119801
4097+228296710+228750805+229020365+228571811+227439474+226082105+225013613
4087+224722042+225397192+226527861+227270678+227342550+227113435+226937169
4077+226887413+227050406+227606203+228545926+229499391+229879425+229284070
4067+227954497+226746118+226363877+226689065+227087567+227203810+227154870
4057+227130061+227134596+227070854+226866148+226516169+226109710+225897082
4047+226241502+227198806+228111966+228072668+227018492+225915115+225598458
4037+225873316+226068067+226177621+226890540+228395180+229726751+229760750
4027+228604820+227476496+227302245+227919838+228727196+229578368+230599258
4017+231510992+231757863+231304914+230795103+230709072+230796233+230703391
4007+230704990+231160353+231720893+231870440+231780048+231844311+231906628
3997+231695268+231420271+231315442+231203473+230942096+230731657+230763763
3987+231019285+231402446+231744294+231830082+231696640+231756039+232418923
3977+233632444+234851351+235491129+235390904+234770358+233931485+233209151
3967+232962246+233345616+234188206+235137588+235837772+236125990+236177571
3957+236255002+236361134+236476351+237053343+238695821+241086363+242730422
3947+242541230+241380957+240899099+241216035+240957212+239535649+237989609
3937+237519409+238621986+241248383+244440081+246182871+245324471+243351454
3927+242587407+243417489+244291646+244176706+244080321+245381576+247557787
3917+248414102+246631007+243289815+240369292+238953550+239243939+241384310
3907+245682910+251931665+258672440+263787032+266089841+265193533+260812133
3897+254268281+249022192+248034745+251156881+254648298+254910838+253696779
3887+255015719+258733228+261158880+261509658+262102686+262202007+259369896
3878+255544918+254717772+257572573+262167939+267046068+270648480+270630256
3868+267856744+266126359+266446682+265958258+262677888+258691602+257407529
3858+260835829+269709279+282425496+290497216+285119613+272352511+261714868
3848+256819193+257640275+262379333+268613564+274595903+279571929+282593354
3838+282252079+278876905+274802277+271444893+268632135+266348820+265331822
3828+265719692+266962191+269857383+276114077+283927270+287121313+284208313
3818+280230696+276883093+272011270+266249829+262844999+263671519+268509951
3808+274855404+279325302+282395649+287197945+292732565+294051627+291057374
3798+287928184+285302412+281686257+277998682+276558739+277995625+281301098
3788+285469366+289989403+294500441+299226209+305037268+311639319+316676446
3778+318891399+320800622+325829548+335358255+348763954+363600598+376462696
3768+386407833+395268652+403882949+411875535+419704919+427349211+432592451
3758+434087606+434535864+438037044+446699325+458793606+468570295+473213784
3748+477540494+485801841+495288783+499018313+498013946+500413017+510882298
3738+528797367+547582094+557380394+556090206+551514958+550857043+555848305
3728+564641230+573968132+580759931+583767579+583374394+580619974+577358298
3718+575717662+577012228+581712805+588571838+592656369+588896227+579187745
3708+569509873+563506078+561985281+563647981+565492055+565670233+565448935
3698+566463449+568785002+572322631+577740539+585144702+592181113+594551902
3688+591446722+587279287+585016003+584384738+585047552+588120001+595054120
3678+604948459+611959575+610392253+605323368+604520110+606381940+603294828
3668+593601946+583119358+576372555+574059132+574372540+575459291+576913307
3658+577923442+576580857+573897702+574648041+582080696+593605629+599512448
3648+592363043+577677927+564263089+555475515+550987410+549745379+550970454
3638+553827547+557116186+559859174+562672696+567841822+575642437+580612400
3628+577352357+569865394+564241616+562255084+564276084+569877104+575691811
3618+578323160+579492745+582175205+585482850+587359064+588336677+588726527
3608+586402437+581642132+578751926+580409136+584833864+588700468+591122820
3598+593793675+597677721+600819732+600786723+599329337+600786584+605695845
3588+609028542+607096039+603529641+602939585+605053809+607444055+609114851
3578+610173909+610335686+609403104+608501932+609934579+615574062+624813161
3568+633243789+635297834+630529363+623373287+617359658+613599447+612213916
3558+612845598+614613613+616578013+618155411+619120446+619646918+620180060
3548+620746142+620649826+619101058+615911237+611753253+608161907+606752957
3538+607794712+609772871+611057152+611652768+612341573+612935868+612689797
3528+611862842+611356732+611247838+610786689+609453416+607332173+604796966
3518+602285526+600153234+598837334+599031425+600831198+602635418+602221524
3508+599404597+596265018+594801170+595427014+596975782+597924070+598284733
3498+599372074+600858925+600055876+595937016+591488347+590064804+591417535
3488+592310090+590557433+587649610+586592012+587958571+589253624+588205338
3478+585401336+582905323+581521181+580403681+578831946+577278800+576562337
3468+576831723+577701415+578935662+580583248+582335384+583049588+581633202
3458+578298595+574319240+570865106+568486778+567304615+567200724+567942030
3448+568959115+569077668+567473098+564647832+561800328+559910737+559685791
3438+561329311+563913301+565712136+565521971+563489053+560902735+559081697
3428+558062215+556827273+555062038+553658230+553102016+552778913+552359425
3418+552330446+552761332+553242251+554094709+555708244+556867856+555838333
3408+553125782+551246719+551708910+553368692+553757534+551816727+548974852
3398+547251103+547176712+548064021+549064601+549234856+547950089+545862098
3388+544253740+543468932+543015810+542673458+542628948+543042182+543768095
3378+544302941+544185777+543442248+542356539+541160999+540220321+540008162
3368+540580185+541158498+540607079+538719364+536733248+535911123+535984854
3358+535812896+535168288+534893691+535567694+536861078+538023714+538547718
3348+538333127+537362011+535635344+533663787+532602470+533288634+535182499
3338+536729773+536967436+536393641+535947016+535672939+534973711+533761875
3328+532562860+531633717+530744428+529856217+529438292+529911671+530991611
3318+531844417+532083608+532191634+532568176+532836346+532730370+532935094
3308+534056347+535362657+535694308+535193201+534822566+534694179+534302905
3298+533835988+533809407+533962672+533816565+533685329+534026396+534397031
3288+533936960+532616821+531435630+531352136+532358658+533826363+535391288
3278+536866638+537723995+537588416+536774352+535734891+534760857+534367254
3268+534811238+535213910+534464543+532877832+531710819+531473677+531703105
3258+531795460+531494108+531082159+531278092+532438643+533852909+534252697
3248+533028317+530797381+528941320+528537085+529386138+530085262+529492982
3238+527980906+526736548+526256010+526171578+526119528+526044963+525879955
3228+525474886+524774893+523775702+522474882+520954258+519347187+517843762
3218+516905898+517135813+518462554+519700831+519563307+518080765+516454826
3208+515580686+515214290+514545186+513253226+511910224+511349319+511646258
3198+511835485+510832299+508643231+506422685+505308936+505459873+506156495
3188+506465144+505792601+504236084+502529952+501290250+500456241+499894746
3178+499963474+500749532+501328053+500627261+498704592+496566011+494979508
3168+493857109+492683597+491385244+490504989+490247938+489883314+488728391
3158+487112494+485771403+485075024+485177455+485980296+486690435+486317263
3148+484832740+483135746+481903444+481049840+480175665+479168031+478303864
3138+477801541+477434380+476804018+475885438+474968318+474157659+473325562
3128+472501526+472028529+472201807+472749404+472879041+472051253+470519267
3118+468907922+467457415+465861601+463903178+462140618+461586385+462515701
3108+463954011+464658695+464287121+463351898+462499405+461994581+461546149
3098+460700362+459540680+458674705+458470816+458698645+458926127+458906287
3088+458622030+458218595+457835242+457378923+456603844+455516155+454479926
3078+453755402+453202281+452637172+452112507+451622450+451011893+450355194
3068+449957283+449921147+450026288+449938728+449379631+448305667+447035180
3058+446042035+445606911+445660975+445907985+446179664+446531154+446749046
3048+446172541+444498305+442381510+440834479+440344005+440635906+441015853
3038+441018216+440760123+440475831+440025835+439224975+438237390+437349803
3028+436688309+436196549+435610071+434626968+433299671+432003611+431050702
3018+430531597+430345497+430253525+430063707+429730598+429178240+428316053
3008+427304111+426425767+425734044+425161117+424742289+424422904+423974229
2998+423293902+422463890+421511433+420453417+419466388+418702428+418084296
2988+417485032+416945566+416596542+416505091+416640218+416847339+416837158
2978+416395572+415710798+415261184+415179566+414966538+414105046+412726812
2968+411360391+410299213+409496129+408817922+408213481+407763381+407587045
2958+407632840+407662896+407506226+407223915+406979824+406719716+406030494
2948+404633149+403025973+402088214+401968827+401956422+401572548+401188536
2938+401298715+401714660+401790684+401156604+400022495+398911596+398234258
2928+398006220+397822657+397194067+396034176+394761952+393864115+393407587
2918+393026667+392388070+391591032+390942637+390453900+389910438+389345538
2908+389011246+388933659+388862186+388613127+388227620+387833253+387484577
2898+387147575+386792610+386451578+386136328+385749362+385180501+384486901
2888+383880861+383506473+383293446+383031113+382524968+381752565+380979189
2878+380574537+380568561+380586594+380332948+379849284+379265725+378714653
2868+378438040+378503606+378523446+378071783+377247504+376509360+376105994
2858+375908115+375676220+375284633+374678420+373812306+372800885+372003986
2848+371720980+371813786+371825913+371457292+370762407+369960921+369271804
2838+368867534+368710969+368441653+367717963+366693651+365848976+365380288
2828+365082445+364793567+364624493+364678731+364738529+364386170+363494622
2818+362487371+361913020+361798566+361660868+361170463+360490032+359864813
2808+359256688+358601414+358096589+357935402+357993046+357997980+357818100
2798+357463552+356992674+356473534+355909572+355221636+354403472+353639720
2788+353144208+352886497+352601788+352074796+351293602+350392812+349631040
2778+349281148+349281947+349200086+348793280+348301103+347944435+347538220
2768+346838609+345956096+345241683+344936405+344949782+344878449+344344646
2758+343391668+342442060+341851378+341569032+341241273+340645483+339954351
2748+339467942+339217805+339046785+338886989+338672432+338212777+337471715
2738+336742466+336277356+335960438+335511797+334847315+334163931+333738536
2728+333615987+333528183+333227040+332786947+332433441+332197308+331871321
2718+331267296+330464803+329740731+329227880+328790289+328297973+327814865
2708+327429219+327096109+326735724+326355950+325998935+325614957+325104226
2698+324515177+324053229+323809798+323643157+323409942+323153238+322984616
2688+322884999+322686634+322241434+321599119+320984046+320580819+320365046
2678+320121199+319643024+318968570+318335637+317872299+317505381+317201875
2668+317063586+317129568+317257503+317256252+317077866+316829676+316563000
2658+316144068+315481010+314754159+314226714+313945376+313787317+313661432
2648+313536763+313384645+313169081+312859738+312458804+312013985+311584977
2638+311213333+310892072+310527830+310049655+309615782+309508208+309725927
2628+309899692+309694065+309100777+308332613+307636199+307197183+307077483
2618+307226960+307537242+307824591+307870699+307579354+307003648+306231627
2608+305403734+304770835+304535327+304636125+304785880+304722191+304406176
2598+303991309+303649339+303487596+303539368+303648088+303446700+302725825
2588+301779275+301133868+300992695+301135258+301277751+301353671+301434386
2578+301488520+301319029+300784393+300037875+299433955+299172943+299131213
2568+299051923+298790980+298390324+298043976+297956382+298093281+298141508
2558+297852491+297346520+296942563+296754900+296602504+296321096+295989619
2548+295743375+295555781+295382885+295312420+295375415+295420932+295324546
2538+295137196+294976739+294925697+294998976+295102693+295106724+294990151
2528+294827401+294677229+294570107+294546827+294631468+294759055+294759333
2518+294494048+294038528+293641728+293496525+293607573+293806876+293833978
2508+293527970+293012791+292584234+292420129+292494763+292676172+292782495
2498+292688542+292496639+292438857+292542365+292593789+292452026+292175517
2488+291876632+291669824+291665654+291826007+291953733+291919439+291734660
2478+291424882+291054750+290793339+290736807+290780048+290808106+290845684
2468+290920440+290975564+290990783+290995873+290913595+290606214+290153561
2458+289856083+289842428+289893087+289804902+289690379+289717307+289784680
2448+289698284+289487254+289326345+289292225+289346741+289407356+289348913
2438+289102321+288782953+288568848+288490600+288481080+288532069+288652065
2428+288763651+288764833+288640008+288454881+288295310+288247239+288379396
2418+288685195+289070771+289452387+289811156+290099270+290207834+290112369
2408+289928528+289791907+289787772+289944459+290182869+290372200+290494176
2398+290600081+290632083+290517994+290381251+290413947+290603956+290758958
2388+290707533+290359379+289662113+288575954+287042474+284975921+282346536
2378+279255810+275880793+272369467+268832620+265393166+262166201+259214529
2368+256585752+254359367+252614059+251435040+251024638+251723571+253894205
2358+257775420+263247184+269831984+277208663+285151858+292581246+297671326
2348+299243478+297711179+294887720+292570787+291126257+289981655+288771382
2338+287515506+286391855+285425482+284320733+282889563+281484018+280644573
2328+280519817+280819519+281089860+281036872+280817416+280908538+281573455
2318+282609806+283603732+284291217+284718679+285126198+285683767+286374639
2308+287082918+287688124+288111973+288350487+288438498+288408061+288327694
2298+288297221+288351147+288461274+288627621+288845808+289010035+288984410
2288+288777863+288559745+288465705+288437595+288313934+288032717+287655341
2278+287248083+286858581+286543504+286309403+286099294+285906871+285808331
2268+285837674+285931992+286017346+286053759+286013610+285921916+285875651
2258+285915679+285940262+285845683+285665299+285482309+285310369+285130263
2248+284958131+284844668+284852208+285006949+285245724+285437348+285463095
2238+285298538+285063585+284942113+284996804+285143015+285313565+285506406
2228+285680379+285755517+285709166+285594452+285493445+285467959+285510158
2218+285550898+285508907+285315876+284989646+284725159+284756135+285058391
2208+285353906+285467959+285516760+285670598+285872350+285901937+285664344
2198+285301178+285005264+284832941+284758620+284806378+285005785+285280400
2188+285504981+285633941+285679406+285625480+285461080+285242023+285054534
2178+284963847+285006150+285170725+285402515+285649073+285844067+285864185
2168+285653624+285404635+285435524+285823654+286295661+286532559+286473717
2158+286276047+286094186+285969049+285870492+285797438+285818407+285984702
2148+286227385+286424169+286564161+286750955+287029531+287297666+287424715
2138+287412606+287391723+287456229+287555863+287591808+287566774+287559338
2128+287590522+287631853+287724885+287949848+288260912+288497532+288602969
2118+288700674+288902149+289152546+289341199+289479575+289670783+289946492
2108+290233268+290467074+290659323+290862084+291120125+291421981+291680317
2098+291822637+291880697+291930523+292023573+292221347+292553380+292901639
2088+293085376+293076272+293003514+292980408+293019462+293071338+293105667
2078+293185097+293431515+293876507+294374834+294699674+294756102+294745713
2068+295036641+295734480+296458343+296715324+296436627+295976833+295692611
2058+295689935+295882463+296128186+296321200+296439059+296531344+296646909
2048+296779257+296922271+297157224+297552077+297957216+298096616+297929558
2038+297719067+297691443+297825007+297992344+298133551+298266768+298427781
2028+298622740+298830626+299036183+299226938+299430654+299796842+300459483
2018+301214027+301571876+301306243+300729946+300318275+300278039+300502846
2008+300740926+300795546+300692177+300649161+300833593+301161317+301352768
1998+301272053+301277126+301980524+303407542+304682893+304969478+304421152
1988+303725433+303208100+302856540+302715645+302839340+303107788+303322449
1978+303396597+303405978+303464942+303580403+303760665+304232551+305210615
1968+306361959+306916540+306564980+305836182+305353144+305214820+305289072
1958+305586706+306054283+306403272+306429540+306270994+306228082+306490727
1948+307144890+308394704+310424356+312634340+313508063+312247722+310003269
1938+308434418+308004402+308213677+308559469+308841120+309027984+309133160
1928+309289031+310000768+311750089+314036967+315741640+316737981+317669139
1918+318137445+317097463+315018471+313609730+313731028+314790503+315621349
1908+315519300+314712046+313960456+313738047+313939191+314295199+314823442
1898+315733822+316895311+317769833+318324170+319352895+321013788+321935843
1888+321061912+319371693+318328653+318116146+318234595+318468853+318749809
1878+318968535+319173050+319572316+320676822+323457474+328325284+333361229
1868+334923617+331946789+327422200+324402079+323461713+323640064+324022861
1858+324249613+324312573+324369939+324653014+325468468+327102572+329624853
1848+333083852+337509518+341626641+342448627+339032470+334570285+332130352
1838+331860688+332251407+332580730+333976268+337795408+343020476+346330935
1828+346321797+345040226+343789822+341704680+338763467+336627005+336229650
1818+336819428+337387942+338088943+339789064+342450260+344591343+344876607
1808+343774603+342915057+343638225+346386008+350324883+353433885+354164906
1798+353300495+353300773+356057069+361073348+364644194+363042786+358013199
1788+354326962+353982733+355669616+357584920+359326493+360805005+361441377
1778+361659895+363445492+368444641+375786539+381355314+381395724+377189026
1768+372113019+368162330+366853691+368955685+372607107+374588115+374656703
1758+374781129+375171709+375530774+377686241+383432569+390993887+395651449
1748+395245998+392218962+389653005+388885084+389796228+391235233+391863024
1738+392513156+396215168+403794485+409750157+407811504+400961714+394431204
1728+389736430+387287393+387201189+388721117+391779460+398141590+409041374
1718+421279121+427005990+422984211+414667514+407633223+404256572+405301211
1708+410380206+417211755+422655479+426820829+433143210+442369140+449224073
1698+449740190+445736965+438439924+430023055+425087421+425475673+429409197
1688+435423416+444804000+457170655+464261792+459668719+450612314+444986451
1678+444960253+449309826+454473810+457728850+460650084+464889235+467101790
1668+463583306+458142814+456661036+459567955+462388044+461732596+459999014
1658+461818279+470118819+485519912+502350315+506498709+499659759+496837272
1648+500674655+503392591+498117871+489340129+484007245+484055681+489429496
1638+499620496+510837927+514353353+507541436+499393084+496577859+499016541
1628+503565070+507903281+511962482+515077668+515343475+514004469+515245213
1618+520390261+525015474+524111905+520139638+518040285+518955669+521272219
1608+523204721+524348803+525394345+526826783+528316205+529393539+530292974
1598+531661549+533672300+535817969+537519272+538691741+539624497+540570804
1588+541669993+543034677+544638552+546255839+547895781+550435400+555361131
1578+562974951+569817167+570634115+567424940+567058300+571256033+575368917
1568+575030456+572655810+572422074+575819607+584324627+600475468+620778525
1558+628072821+617938457+606077704+599358246+597119770+597597805+599187851
1548+601807282+607484152+617890230+632205649+647914104+660067071+660312725
1538+650441319+642968498+643142854+647529535+650209563+650696772+653540592
1528+660851219+670583085+680426973+690752787+701247675+708347463+710811093
1518+711787456+712442626+711800103+711137080+713622948+721570885+735654409
1508+752670634+760477086+750500469+735928694+728712716+729662324+735598260
1498+741935929+744129513+741941836+740337752+743649810+751646531+759262783
1488+760759224+756393112+751062381+748469983+749116467+751528811+754827110
1478+759852006+767507035+776813193+784127642+784626733+778469813+772335616
1468+771282534+774821136+778563418+779039925+778683778+782643571+792992735
1458+805617691+809882067+802035240+791254740+784075175+781128854+780842686
1448+780864159+779627827+777735352+776616948+776802769+778530271+782516748
1438+788412935+792869525+792665914+789972057+788516061+788570195+788252547
1428+787089877+786570146+787480005+789165602+791493028+795138022+798677596
1418+798159672+792896905+786722889+782421613+780242692+779621156+780330947
1408+782450939+785347018+787087931+786478347+785344377+786306841+789458581
1398+792950066+795649135+797221739+796921603+795104110+794065830+795304941
1388+797267048+796913959+794312248+793154442+795922239+801713701+808494660
1378+815336493+821871867+827018722+829677972+830448499+831114718+832378986
1368+833617681+834972566+837890326+842392156+845519504+844838274+842074925
1358+840269454+839888429+839493159+838430348+837514583+837426467+837702698
1348+837559197+837093809+837292765+839066548+842419050+846167378+848431496
1338+848076601+845799140+843333425+841933370+841734831+842094314+842583259
1328+843631198+845709287+848221214+850161777+851630838+853567927+856220367
1318+858902688+860965280+862191396+862721968+863282143+864841682+867583280
1308+870787277+873739019+876106750+877671501+878465099+879024093+879979399
1298+881473338+883152542+884481299+884978792+884434253+883020716+881070007
1288+878726528+876069780+873550418+871803458+870803260+869577352+867225048
1278+864054615+861285707+859767516+859325130+859268633+859261823+859448825
1268+859834992+860096630+860197185+860627410+861699324+863061853+864171779
1258+864878234+865458006+866337219+867724696+869402024+870994224+872328818
1248+873445763+874641581+876469081+879051612+881565415+883213070+884328694
1238+885615964+887004066+888108641+888986881+889908970+891113683+892912553
1228+895427121+898215000+900621855+902210234+902930865+903467344+905080461
1218+908434839+912562177+915565273+916679160+917114736+918538349+921254652
1208+924254829+926642157+928468198+930350180+932728682+935420802+937844613
1198+939823119+941854231+944219669+946216104+946946395+946624578+946371419
1188+947003448+948549992+950818975+953756958+957031837+960004287+962494046
1178+964860248+967114985+968805725+969854151+970694309+971748155+973628608
1168+977119260+981827620+985860588+988057994+989399745+990973530+991939400
1158+990875130+988363272+986663151+987166064+989544984+992582478+994724986
1148+995078005+994592604+994883497+995846100+996474864+997809527+1002204200
1138+1009405307+1015624145+1017033721+1013424654+1007904280+1003920444
1130+1003339143+1006128274+1010702792+1014606643+1016236092+1016061945
1121+1015561185+1016219761+1018970462+1023342968+1027900530+1031610916
1113+1033865861+1034075310+1032877824+1032616673+1035268696+1040411868
1104+1045280963+1046304232+1041610048+1033317778+1026329942+1024378051
1095+1027400327+1031963379+1034858137+1036846998+1040833823+1046905477
1087+1051538994+1051870957+1049236238+1046896443+1046555098+1048142990
1078+1049461670+1048327769+1046259271+1046707077+1050015730+1052898605
1070+1053267190+1052378596+1051853028+1052090899+1052966776+1053882125
1061+1054460715+1055998503+1060116529+1065630510+1069317755+1069744922
1053+1068183228+1065920847+1062855695+1059125573+1056255346+1056137418
1044+1059252118+1064180698+1068653967+1070459508+1068048622+1062721853
1035+1059047742+1060472745+1065574986+1069717195+1070121429+1068038060
1027+1066192005+1066143152+1068318599+1071859077+1073741823+1070678616
1018+1063448183+1056955130+1055012482+1056461459+1056773408+1054157591
1010+1051704663+1052080962+1053693663+1053308399+1050199675+1046229598
1001+1043354228+1042820251+1044981661+1048734923+1052229536+1054140288
993+1053981359+1052279153+1050603840+1050651998+1052805972+1055889887
984+1058376797+1059533491+1059276718+1057897928+1056095167+1053961276
975+1050158953+1043412323+1035190170+1028673142+1025067272+1022844502
967+1020413463+1017869501+1015877652+1014165091+1011650385+1008365151
958+1006387201+1007328122+1009740675+1010809601+1009773128+1007470720
950+1004151504+1000211795+997555811+997146782+996109614+990933850+982636299
940+975386130+971817647+971919522+974739785+979395540+984237464+986057528
930+982631156+976455195+972849673+973754041+975864582+975587031+973158564
920+970582288+968679319+967490590+967460986+968893980+970685553+970795281
910+968588424+965846757+964740236+965413474+966245363+966381636+966900811
900+968653468+970071244+968788352+964951491+960840137+957959208+956426145
890+956120102+956774856+957343161+956533232+954201011+951925635+951649683
880+953310472+954565497+953728396+951943217+951365947+952563433+954458271
870+956064161+957489859+958874556+959184907+957357407+954411989+952594287
860+952268370+951576438+949300367+946392822+944478596+944335164+945456418
850+946186500+945058229+942284108+939525554+938300480+938939112+940525961
840+941753468+942534905+943946287+946113603+947791626+948426922+948254651
830+946858071+944357749+942803908+943956920+946626524+947935822+947007340
820+945916524+946411238+947537633+947635408+947366822+948765001+952343630
810+956944347+961537906+966292061+971269494+974249519+972279213+965863921
800+958988314+954693640+952615830+951043226+949775136+950227876+953289693
790+958104446+962995431+966306863+966405542+962898628+958006254+954732556
780+953918457+954526512+955629002+956653940+957115992+957301535+958030437
770+959261001+959853559+958897836+956713425+954953540+955449226+958312922
760+961714832+963528434+963106618+961660420+961050906+962000306+963160266
750+961952078+957436280+951948012+948823026+949160619+951066853+952098114
740+952605475+955327546+961278770+967950974+972354473+974267726+974933529
730+974743051+973579547+971544891+969097731+967035209+965423203+963569157
720+961716292+960927975+961118035+961346942+961332835+960869046+959664471
710+958973443+960644378+963666584+964149067+959875380+952574760+944935089
700+938477546+934387734+933967933+936888542+940415121+942583897+944489437
690+946981211+947471963+942635321+933264396+924409379+920462999+921907112
680+926516932+931665802+935106281+935059999+930634472+921816425+909404253
670+896217453+890415358+899127847+913613174+920403444+916916545+909366727
660+905029732+906182743+910415430+914161396+914323729+910276307+906002828
650+906247787+911414725+917328702+918543352+912194564+901060350+891620141
640+887271541+885771765+884306040+883803126+886262517+889377079+888296131
630+883869005+881467223+881794947+879712272+872135213+862599453+856597847
620+856045664+859309355+863891309+868454640+871863361+871395957+865586497
610+857609025+851940703+850224668+852951255+861210100+872556126+878843761
600+875316626
##END=
