##TITLE=<SNM>
##JCAMP-DX=4.24
##DATA TYPE=INFRARED SPECTRUM
##DATE=3/5/2025
##SAMPLING PROCEDURE=Instrument type and / or accessory
##ORIGIN=Admin
##XUNITS=1/CM
##YUNITS=ABSORBANCE
##RESOLUTION=4
##FIRSTX=4497.3318
##LASTX=599.83466
##DELTAX=-1.4281778
##MAXY=1.7070705
##MINY=0.18232487
##XFACTOR=1
##YFACTOR=1.5898333e-09
##NPOINTS=2730
##FIRSTY=0.20209619
##XYDATA=(X++(Y..Y))
4497+127117855+127622804+127906762+127959559+127969025+127811600+127442725
4487+127210804+127393114+127914588+128585773+129254849+129765038+129881916
4477+129321002+128159958+127196174+127224292+127921346+128127509+127234696
4467+125743486+124552899+124164538+124526590+125377985+126520171+127602409
4457+128011943+127550071+126870235+126560277+126319050+125731330+125236287
4447+125549788+126622831+127716101+128046604+127191946+125465499+123935692
4437+123471720+123845188+124200585+124123701+123800068+123442402+123094457
4427+122822515+122621778+122171875+121141619+119839102+119111999+119366123
4417+120077620+120536821+120692344+120958896+121516146+122105881+122330622
4407+121915614+120816018+119404767+118468585+118536304+119147559+119204358
4397+118207797+116826699+116052198+116109400+116523705+117034165+117911299
4387+119255393+120499845+120911742+120286718+119005908+117639282+116641793
4377+116254125+116400387+116684992+116726082+116542488+116451975+116625147
4367+116958152+117251192+117259928+116767894+115869185+115021379+114681756
4357+115043162+116064401+117464742+118658225+119079944+118778272+118349439
4347+118146031+117929997+117419771+116733515+116152768+115812433+115741715
4337+115964037+116424653+116906967+117179050+117267201+117400098+117573822
4327+117520594+117254819+117145392+117331817+117562350+117593908+117393790
4317+117121501+117118296+117525571+117846673+117524175+116930353+116937898
4307+117539265+117811956+117298965+116576343+116404052+116972821+117890313
4297+118456279+118275647+117853515+118034091+118783980+119310252+119392489
4287+119620529+120253107+120780973+120774084+120396351+119942334+119557928
4277+119491090+119930186+120544975+120804442+120717922+120731250+121005395
4267+121317152+121583217+121965102+122369987+122271179+121393400+120324912
4257+119973957+120576318+121668791+122788238+123706762+124261209+124425617
4247+124373401+124229397+123990035+123736567+123594869+123461129+123163834
4237+122940246+123300039+124283000+125215320+125385586+124794211+124122651
4227+124066620+124731900+125610486+126131201+126185235+126076642+126086399
4217+126171044+126074214+125692020+125239652+124967945+124818824+124557801
4207+124266757+124460408+125457663+126831760+127827562+128139244+127974152
4197+127610854+127217628+126892973+126714319+126904633+127703372+128788281
4187+129306596+128860667+127989701+127390959+127168655+127103852+127254828
4177+127916612+129045227+130062483+130467903+130453028+130570460+130941687
4167+131263324+131482844+131818830+132113154+131923449+131350659+130997099
4157+130986189+130778704+130128730+129578604+129745355+130492815+131077565
4147+131019510+130595176+130367548+130511673+130864446+131342655+131894740
4137+132229226+132090997+131735215+131664788+131995929+132541659+133304388
4127+134233362+134741882+134311999+133396522+132894628+132941033+132957351
4117+132675821+132451774+132663992+133259333+133882089+134274808+134521725
4107+134881640+135419975+135982538+136490384+136913368+136946829+136238940
4097+135066480+134220774+134073321+134301614+134582910+134971000+135540124
4087+136196800+136884153+137559500+137992194+137906208+137310821+136539497
4077+136051916+136174418+136809968+137442227+137675047+137699848+137942893
4067+138395430+138665394+138572304+138319557+138126253+137992757+137864996
4057+137825996+137988520+138290820+138572435+138806689+139051918+139221322
4047+139198528+139143275+139306315+139556005+139527868+139265693+139221350
4037+139560373+139965446+140195670+140371859+140622666+140810665+140737388
4027+140518478+140655986+141542079+142856893+143790928+143909691+143459310
4017+142907497+142551837+142487727+142628150+142726696+142523991+141998740
4007+141521065+141579345+142262387+143220548+144108525+144741966+144956518
3997+144761133+144487626+144412503+144407170+144260992+144104242+144236257
3987+144710136+145244816+145459762+145143449+144399878+143637974+143348749
3977+143693180+144300452+144672945+144742247+144786946+144941681+145127768
3967+145396739+145949077+146743514+147403611+147653546+147582866+147385878
3957+147206220+147297661+147874369+148794138+149756676+150543353+150780859
3947+150177420+149297457+149147764+149804065+150281271+149933081+149173961
3937+148787118+149290249+150680776+152209740+152743370+151987005+151014832
3927+151004250+151912801+152701989+152715176+152493932+152917750+153981861
3917+154705562+154167030+152500765+150640164+149372242+149033501+149932491
3907+152550168+156983204+162171967+166083098+167274341+165760730+162357098
3897+158398841+155690725+155532803+157466230+159135129+158879590+158415093
3887+159994426+162614943+163610127+163178191+163218138+163064087+161211069
3878+159215154+159492926+161888534+164864261+167745286+169833410+169909930
3868+168771399+168495521+168975932+168291250+165977823+163631197+162789877
3858+164460126+169540417+177205179+181575820+177400451+169631783+164034226
3848+161852786+162544291+165288604+169111406+173130886+176898914+179715491
3838+180183193+178138670+175549420+173909146+172906183+171857069+170989881
3828+170765327+171365410+173571520+178223831+183475270+185192345+183239226
3818+181235944+179720871+176738883+172932558+171014962+172380745+176360279
3808+180453823+182434760+183623266+186384544+189341695+189233102+186979885
3798+185476172+184440948+182386565+179936520+178773770+179463045+181508486
3788+184236921+187027255+189426781+191784036+195022313+198986381+201980348
3778+203149265+203978475+206341635+210956137+217458411+224377905+229976774
3768+234234192+238306966+242660286+247842609+255267071+265253359+275406425
3758+283138689+289635002+298434414+311536214+327416332+341321867+350718568
3748+359004970+369689680+381620744+390054786+394462206+399657614+409216128
3738+423863275+441325368+456729761+466295772+470047022+470411549+470413648
3728+472584309+477598936+483599166+487890251+489486773+489840802+491674830
3718+496613836+504251529+514032665+526021016+538191799+546196717+549403034
3708+551765575+556405365+563858076+572394506+578879310+582390429+585699059
3698+590573280+595538418+599289780+603447959+610265983+618161465+621503500
3688+618361855+613905097+612082991+612564565+614019408+616230222+620190073
3678+626421661+632240284+633781470+633040795+634033485+635207257+632395572
3668+626631236+621934273+619615071+619482915+621888346+627371574+635386915
3658+643784253+649749991+652670175+655278808+660058402+666115394+669438458
3648+668296553+665782173+664223517+663087911+661580542+660567157+661893443
3638+666471185+673145956+679057332+681987639+682501417+682677026+683195453
3628+683144840+682837038+683535423+685497708+687784892+689301183+690450661
3618+693527783+699938092+707666738+713240619+716035283+718324641+720591505
3608+720870964+718943170+716058452+712228359+708075691+706364821+709330219
3598+716027260+723142176+727601446+728769295+728526427+728919559+730582366
3588+732225902+731364656+727715194+723592820+720525521+718119040+716588052
3578+717902191+722756543+728332073+730791342+729675381+728262640+729358656
3568+731710324+731446911+727663682+723434307+721299712+721264996+721976502
3558+722123992+721516636+721576247+724017969+728493285+732690417+735430569
3548+737104173+736655929+732235050+725398243+720303723+718638367+718807902
3538+718911827+718124739+716741091+716425491+719146297+725063372+731693303
3528+735453214+734707440+731231113+728178510+727343582+728400532+729513494
3518+728978720+727444958+727305716+728847651+729151929+726043990+721700942
3508+720766663+724853646+729949141+730326152+725613292+721208009+721042898
3498+723813718+726200478+726886490+726817357+727414591+729346059+732016252
3488+734152646+734831236+734016853+732941683+733271005+735030988+735864416
3478+733881510+730526654+728592862+728860473+730682542+733865314+737639621
3468+740127833+740776129+740873231+740983005+740143879+737421423+733267931
3458+729640064+728631478+730547049+733718724+736510688+738211811+737996987
3448+734916940+729242808+723197663+719821287+720437866+723806294+727919971
3438+731472330+733673510+734381642+734292338+733943671+733214768+732288962
3428+732123101+733019364+733737544+732760151+730320003+728831005+730373465
3418+734449951+738823291+741199329+740363202+736883950+732875623+730806713
3408+731838619+735168431+738678950+740377598+740070996+739095027+738324134
3398+737400053+735621774+733075676+730762024+729881657+731124038+733924250
3388+736477996+737233967+735910455+733034211+729989406+729189870+732015802
3378+736675199+740110287+741008499+739227820+734914841+729743165+726851924
3368+727691050+730276288+731882783+732088835+731772859+730921886+729212440
3358+727621017+727531713+728542774+729203517+729483051+730349621+731674033
3348+732543752+733280153+735318695+738873829+742071823+743113851+742148304
3338+740387946+738903897+738742910+740500269+743006176+744403021+744364855
3328+743596587+742484375+741685964+742008238+742656684+741836453+739376135
3318+736841660+735272131+734540979+734889947+737253613+741843802+747185763
3308+750742846+751032352+748837472+745826409+742960362+740777779+739793487
3298+739860971+740283196+740564904+740308240+739071857+737369685+736670700
3288+737154186+737239666+736607266+737276107+740169148+743024247+743651249
3278+743108902+743765147+746023388+748239713+748759565+747317656+745239298
3268+744281250+744470730+743658147+740381647+736411937+734540829+735027389
3258+736006508+736398440+736647606+736994399+736904345+736212934+735603403
3248+735765215+736360124+736189614+734786546+733280228+732850354+733137012
3238+733259158+733643442+735388804+738218634+740400168+740651359+739425474
3228+737708680+735512450+732403910+728871046+726477612+726720780+729580903
3218+732921813+734208283+733300623+732198309+732153619+732737056+733340288
3208+734052770+734965529+735938424+736903071+737359862+736374221+733773386
3198+730617833+728159614+726915359+726795537+727481625+728401207+728922709
3188+728961699+729148330+730173788+731749165+732693791+732287388+730800189
3178+728535200+725401692+722113120+720584007+721840934+724374660+725594921
3168+724349691+721387816+718192148+715944404+715085333+715347921+716131410
3158+716832344+717017101+716790654+716720171+716875759+716467931+714810973
3148+712220036+709739398+708108683+707070854+705872937+704256545+702682217
3138+701912150+702502035+704133199+705422744+705283352+704396762+704232326
3128+704631456+703723646+700856924+697896775+696656643+696908658+697674227
3118+698861421+700603634+702190409+702603711+701553659+699741263+698182007
3108+697055699+695598868+693420934+691225153+690102894+690669909+692541092
3098+694171206+694034064+692399825+690760188+689585591+688201793+686411442
3088+684841763+684222860+684916596+686359629+687092956+686318989+684901224
3078+683970020+683500106+682779451+681237591+678811915+676539428+676150645
3068+677954943+680024003+680320108+678585769+675736818+672977771+671660407
3058+672298131+673635365+673912874+672876844+671571928+670701759+670052638
3048+669244629+668485583+668340568+668887713+669427511+669227983+668339518
3038+667336105+666480633+665457425+663902443+661971875+659981695+657717381
3028+654995675+652731061+652161571+653045312+653852346+653738073+653109571
3018+652487219+652211434+652765478+654056972+654696571+653125393+649474207
3008+645473003+642593085+641080618+640643546+640998437+641525562+641349954
2998+640258437+639013807+638537819+639073118+639864030+639668627+638199199
2988+636619623+635953106+635734757+634908003+633362469+631759198+630414541
2978+629232821+628330334+627928017+627754208+627352078+626981403+627295242
2968+628051175+628115548+626961758+625352339+624226180+623568211+622797431
2958+621811452+620912489+619888494+618169226+615953500+614133268+613084192
2948+612557029+612385882+612227557+611376771+609881399+608762064+608352736
2938+607638193+606050743+604590014+604113839+603893204+602874082+601414140
2928+600651983+600633238+600145815+598495531+596580296+595685008+595821364
2918+595890235+595218731+594221954+593456161+592790318+591825709+590625993
2908+589623143+589031720+588676754+588198105+587176734+585381059+583150861
2898+581214445+579977875+579277803+578766124+578204582+577459970+576484414
2888+575393197+574496672+574028145+573797687+573385922+572660469+571751946
2878+570614128+569141289+567659002+566749954+566611800+566903293+567129402
2868+566952931+566225754+564988209+563515295+562174799+561082945+559955924
2858+558450918+556658917+555081365+554091262+553651979+553559713+553574709
2848+553265745+552220455+550511609+548553597+546693475+545345556+544944251
2838+545201665+545076070+544059086+542879165+542477897+542790161+542835375
2828+541838036+540081089+538500388+537540503+536811301+535879384+534835406
2818+533918260+533069011+532083257+530907985+529619415+528373360+527510651
2808+527322446+527483845+527185191+526064431+524462885+522661024+520635790
2798+518694312+517445333+516831453+515954348+514250076+512252549+510860241
2788+510348862+510307584+510132388+509478843+508503548+507621532+506940918
2778+506206242+505239233+504087356+502888764+501858621+501139166+500517000
2768+499607616+498349001+497001045+495712850+494412320+493069575+491797689
2758+490697211+489757084+488882416+487913682+486723714+485416848+484268607
2748+483381530+482606326+481766862+480703951+479283037+477624130+476075446
2738+474883565+474114735+473626001+472911570+471552441+469911192+468672822
2728+467848805+466921012+465650850+464200656+462812659+461668730+460785139
2718+459995950+459179469+458368386+457594119+456763353+455722749+454505487
2708+453491839+453013115+452788543+452195021+451087608+449863710+448775193
2698+447704071+446620240+445786400+445351465+445052774+444524411+443694882
2688+442706354+441637519+440471508+439240674+438116652+437325664+436852301
2678+436289185+435221362+433733677+432298779+431231106+430481921+429875202
2668+429302413+428710053+428078327+427445027+426864102+426347137+425902042
2658+425557536+425248572+424753314+423901740+422838080+421931694+421371952
2648+420949277+420305179+419302516+418055449+416771902+415727175+415171594
2638+415024216+414820677+414193038+413261720+412383828+411678020+410969513
2628+410106804+409191009+408454233+407935731+407373514+406532138+405560255
2618+404801697+404310526+403830489+403202625+402496443+401816241+401270595
2608+401002121+400981239+400930888+400613226+399996572+399141886+398193998
2598+397409946+396938495+396664997+396425504+396201794+395989257+395667246
2588+395127486+394403457+393620455+392943103+392536774+392388984+392203665
2578+391684638+390906847+390220497+389837975+389703494+389694684+389726514
2568+389671515+389369523+388771353+388000310+387261135+386721188+386427932
2558+386287003+386169131+386046235+385941372+385820688+385683021+385622660
2548+385617936+385442778+384997908+384521058+384265294+384170329+384039485
2538+383867025+383796805+383871337+384021414+384216030+384404986+384395013
2528+384044059+383531405+383207294+383225290+383444913+383577294+383374579
2518+382829833+382212129+381812174+381712185+381832307+382036446+382164403
2508+382140971+382072138+382071688+382013876+381635028+380881907+379996629
2498+379253330+378758896+378481575+378308890+378114199+377901587+377809734
2488+377869269+377878455+377613955+377067447+376449068+376052562+376085217
2478+376495557+376952199+377069134+376708882+376084842+375543132+375257637
2468+375188466+375244328+375319610+375242453+374880664+374269559+373550479
2458+372905706+372595842+372826788+373447003+373959807+374004421+373690733
2448+373309898+372911705+372439692+372119705+372305773+372905256+373284367
2438+372908893+371928650+370987248+370528469+370416520+370245373+369874061
2428+369517408+369400961+369522169+369739693+369933297+370042359+370044721
2418+369943945+369736056+369390950+368929960+368507360+368298984+368300708
2408+368340824+368288186+368158505+368050268+368047268+368151456+368299734
2398+368455809+368604874+368686080+368653125+368541401+368390650+368215754
2388+368060953+367883057+367408232+366298532+364399794+361730388+358396227
2378+354634892+350779417+347031428+343326967+339546212+335870057+332768003
2368+330514261+328854717+327260706+325495136+324072573+324116400+326385851
2358+330466048+335332659+340673795+347150725+355085648+363249379+369523819
2348+372468935+372147823+370046445+367836606+365766720+363011572+359199287
2338+354761312+350370688+346496317+343254947+340553149+338416829+337084244
2328+336636075+336666593+336595810+336329998+336323812+336938291+338082221
2318+339480377+340911114+342190799+343211120+344023740+344802768+345735472
2308+346908457+348219035+349443870+350428012+351139144+351591137+351867259
2298+352153616+352563507+352979771+353236698+353385500+353600362+353893392
2288+354122838+354235724+354311118+354403797+354506935+354603662+354623232
2278+354462583+354164078+353907002+353749989+353580604+353329526+353013138
2268+352632191+352264703+352110577+352206141+352287947+352151742+351922559
2258+351808323+351821745+351863398+351873820+351846152+351831380+351902688
2248+352019886+352057714+352045642+352166363+352440948+352680892+352821221
2238+353012426+353301632+353501010+353485639+353428277+353615845+354110203
2228+354663123+354972724+355006166+355010890+355192685+355480204+355681682
2218+355774547+355901492+356142598+356449612+356771774+357108782+357474657
2208+357906480+358439904+359018167+359517512+359875552+360124905+360353114
2198+360681311+361197414+361859058+362510541+363023082+363419363+363846200
2188+364388547+364963810+365476089+365965573+366505183+367084571+367667783
2178+368222015+368681281+369025487+369349635+369760763+370306671+371052895
2168+372075278+373340753+374749145+376294567+378021783+379858549+381712673
2158+383717173+386153497+389112222+392380024+395643477+398731396+401705830
2148+404701071+407656609+410376478+412836234+415165782+417419187+419640649
2138+421991268+424600163+427474608+430571712+433752047+436820021+439794230
2128+442906669+446284132+449845340+453360395+456405575+458492631+459393618
2118+459194840+458097437+456316721+454051657+451427465+448530001+445501018
2108+442529696+439712125+436939581+434026820+430987676+428045185+425309832
2098+422592063+419589173+416175269+412480255+408729868+405090641+401689558
2088+398626383+395862125+393247568+390750359+388514126+386657228+385138987
2078+383837932+382686317+381705212+380909875+380226149+379574366+378981031
2068+378517529+378180971+377898288+377594235+377218423+376740599+376170022
2058+375603606+375186067+374927491+374649194+374245752+373902633+373896784
2048+374246802+374689759+374998986+375219659+375537696+376020844+376648633
2038+377526900+378839540+380577816+382505385+384408247+386224393+387906995
2028+389297053+390183681+390432734+390070608+389319960+388470149+387559377
2018+386285841+384449338+382368542+380581828+379247893+378092379+376820568
2008+375382220+373925690+372656690+371677422+370885422+370082437+369164879
1998+368177175+367301307+366807849+366802113+366991331+366913874+366386486
1988+365546760+364629465+363884928+363491421+363393682+363349780+363142679
1978+362692260+362092140+361591596+361403803+361527261+361836488+362226133
1968+362543946+362558380+362185343+361621701+361113022+360729337+360445604
1958+360270296+360185678+360081266+359840985+359455464+359039612+358762365
1948+358773725+359204236+360061133+360914206+360976891+359987688+358659452
1938+357793669+357481068+357391989+357333316+357307072+357320794+357321281
1928+357339427+357656377+358498540+359521748+360172594+360557516+361065070
1918+361311612+360605354+359289715+358427082+358464573+358951021+359207872
1908+358969391+358462886+358018166+357744181+357608801+357615137+357798543
1898+358153922+358526209+358640407+358544879+358756742+359437655+359843384
1888+359283754+358161457+357328854+357092848+357251960+357526470+357749205
1878+357896058+358001520+358133077+358645243+360161009+362752809+365108414
1868+365319451+363191455+360505665+358762065+358117068+358073991+358208546
1858+358281954+358233815+358171618+358192163+358355287+358842259+359966430
1848+362075794+365174736+368064364+368548562+366183097+363228159+361599019
1838+361294929+361456290+361806345+363013184+365654172+368909189+370891495
1828+370955980+370198509+369240461+367799415+366191720+365315027+365370289
1818+365768783+366089632+366584365+367684054+369245222+370479430+370774936
1808+370406923+370202408+370872225+372696131+375307613+377701234+378987330
1798+379395308+380190233+382501598+386044585+388585134+388019393+385518097
1788+383922362+384426880+386376082+388768653+391126020+393115825+394478665
1778+395718271+398089098+402556203+408527266+413221418+414093686+412164430
1768+409945218+408745014+409263591+411790081+415169494+417502305+418651483
1758+419767969+421011699+422326063+424890719+429691458+435467529+439402973
1748+440410060+439922225+439620759+440398850+442460562+445123557+447291669
1738+449368302+453320242+459510403+464307955+464255430+461709445+459830877
1728+459164172+459637048+461337571+464068199+468038023+474379647+483578096
1718+493052292+497702354+496277391+492875484+490918859+491479126+494720534
1708+500285230+506698425+512074353+516736450+522981873+531172410+537982261
1698+541281855+542500954+542055522+540367672+540083451+543033103+548624381
1688+555796284+564936883+575786891+583731712+584954935+583362461+583736435
1678+587609756+594311183+601620829+607725884+613456666+619989195+625684885
1668+628274060+629450719+632557159+638163958+643951613+648027424+651642319
1658+657351993+666897384+680771277+695362299+701539713+700264939+701462631
1648+707241739+712724141+713366439+711534323+711236793+713494734+718363932
1638+725781627+733282252+735272506+730712310+725842063+724698433+726409303
1628+728136145+728419128+727901075+726680589+723960608+720800705+719422756
1618+719733783+718656513+714130884+708318109+703642740+700279186+697384271
1608+694309623+690969464+687610633+684584649+682311412+681103073+680907444
1598+681300501+681664540+681471461+680619437+679397302+678038248+676515359
1588+674756050+672875870+671150603+669769280+668927304+669411914+672406481
1578+677834596+682665103+683278008+681676462+682552630+686572279+690479904
1568+691794493+692253835+694374108+699047377+707260934+720685608+737728850
1558+749100959+751258499+752150563+755847113+761861590+769288508+777532807
1548+786224376+795814907+807034277+819669763+832365459+841174374+839865709
1538+831275742+825470465+825596285+828258380+829303258+829201507+831233302
1528+836146889+841969861+847306724+852788077+858395700+862233892+863671002
1518+864003998+863631861+862802332+863161347+866213725+872120153+880459754
1508+889618687+894076608+889805618+882905676+879418401+879987891+883252394
1498+887103557+888836472+887606763+886232713+887663075+891473898+894225672
1488+893459054+890768840+889058720+889359024+890789160+892175882+893661356
1478+896326000+900695442+906451455+912184748+914646416+912022337+907606631
1468+905393980+905917206+906912596+906503867+906194041+908968984+915480293
1458+922202978+923289096+918920030+914738194+913004229+912962539+913311432
1448+912711049+910587101+907882566+906050150+905857820+907458916+910689227
1438+914640042+917173243+916818577+915041272+913663698+912539639+911171213
1428+910627966+912040257+914348286+915644879+915976151+916750718+917775200
1418+917274394+915300936+913641353+912761587+912011839+911499110+911851602
1408+912464657+911840505+909882193+908274873+908131207+908809347+909324250
1398+909663470+910242783+910467879+908837915+905135066+901222942+898612284
1388+896523204+893207038+889036225+886546439+887488816+891504191+896976546
1378+902317158+906636811+909649973+911520330+913022000+915044571+917662277
1368+920469538+923590824+927186974+930187089+930985650+929707877+928242724
1358+927875686+928438277+929182401+929472733+929040010+928266643+928242649
1348+930034800+933562415+937456994+940440088+942550538+944500077+946301526
1338+947356826+947582148+947319035+946541319+945179042+943904943+943812340
1328+945192538+947150100+948749547+950132894+951896252+953806725+955129487
1318+955860714+956489515+956960104+956955830+956696841+956637980+956860678
1308+957228616+957558013+957326917+956028824+954149769+953024060+953240834
1298+953843167+953723795+953063651+952512606+951842115+950448045+948382359
1288+945987500+943183539+940011414+937312278+935787589+934746535+932792872
1278+929715150+926594089+924030970+921621040+919210586+917308736+916005394
1268+914574133+912538814+910418241+909007150+908253728+907123971+904494493
1258+900104731+894867820+890456314+888144911+887562149+887061117+885898593
1248+885179213+885770523+886474531+885715561+884208792+884091670+885939908
1238+888202123+889405363+889792346+890499204+891968406+893656932+894921733
1228+895728767+896448146+897289522+898150469+898978648+900071439+901791007
1218+904122806+906686074+909103352+911294934+913476243+915831585+918007495
1208+919314136+919864881+920751621+922622204+925135909+928080912+931612276
1198+935011747+936698473+936155976+934842887+934753283+936755685+940228263
1188+943718237+946063907+947348428+948727727+951154303+954383639+957287627
1178+959049335+959790759+960115283+960684623+962315712+965534400+969563122
1168+972427369+972686883+970862115+969028049+969200508+971779523+975271147
1158+978071659+980311904+983009241+986158046+988815717+990410590+990939964
1148+990699871+990577575+991520852+993525503+995819510+997735531+998683907
1138+998425143+998133837+999392039+1001801444+1003480372+1004251790+1006260414
1128+1010807339+1016407014+1020485524+1021696412+1020230209+1017420024
1120+1015557615+1016667352+1020505469+1024393899+1025922562+1025158568
1111+1023426328+1021777243+1021342196+1022987457+1026444889+1030852871
1103+1035164201+1037330738+1035524940+1031106836+1027853805+1027977226
1094+1030442718+1032975843+1034586537+1035727917+1037013488+1038543576
1085+1040376517+1042705691+1045128743+1046527537+1046799498+1048043903
1077+1052033409+1057479146+1061490397+1062644674+1061276997+1057930689
1068+1053332027+1049581264+1049533951+1054282127+1061715344+1068222004
1060+1071565838+1071490256+1068698516+1064656073+1061290269+1059729288
1051+1060121371+1062400306+1066187510+1070089812+1072282893+1072005609
1043+1069979588+1067633168+1066003579+1065337811+1065798502+1067805403
1034+1071119393+1073741823+1073406577+1070567824+1067434240+1065116239
1025+1063422015+1062057038+1061101164+1060843975+1061473976+1062926907
1017+1065183348+1068212481+1071020942+1071882788+1070351875+1068222829
1008+1067669535+1068680296+1068822162+1065571831+1059274371+1053125751
1000+1049698462+1048815621+1048757509+1048459755+1048013460+1047835678
991+1048284671+1049376713+1050531965+1050598249+1048536462+1044641883
983+1040347049+1036907988+1034826855+1033866258+1033302016+1032490558
974+1031184217+1029122955+1026124564+1022615395+1018794899+1013506100
965+1005705246+997050943+990885302+988464500+987554140+985017341+980355319
955+975858933+973523010+972966042+972306423+970332890+967526754+965145017
945+963765044+962950737+962039027+960921342+960150824+960388293+961438120
935+961926554+960704043+958401113+956589092+955429491+953428515+950151490
925+947815268+948692185+951670256+953212866+951880131+949724166+949046551
915+950165512+952070886+953290247+952577016+950193105+947923092+947086515
905+947210911+946799258+944876413+941979923+939892792+940020187+941961328
895+944036837+944989861+944460337+942346287+939161640+936500520+935772367
885+936591323+937302530+937191106+937002151+936949589+935863621+933264960
875+930933837+930970353+932996224+934530211+933852596+931588882+929622847
865+929355310+930962555+933442144+935227021+935461641+934918994+935026144
855+935842850+935940028+934716467+933678038+934522413+936713619+937757447
845+935961322+932217608+928653627+926439400+925642039+926493388+929141611
835+932033977+932363749+929285577+925711548+925401046+928841832+933040763
825+935142891+935018046+934067421+933519150+934025880+935347143+936877381
815+938866285+941675346+944269282+945297888+945246151+945756705+947256275
805+948654469+948939552+948046813+946318097+944104246+941965077+940158754
795+938129584+935889714+935066784+936716319+939500035+941902242+944432518
785+947564377+949639211+949281621+947951960+947692597+948010447+947090714
776+944981613+943457599+943341601+944018166+945060120+946299501+946874165
766+946313973+945677374+945787598+945893397+945602241+946196101+948511328
756+951101140+951803499+950225498+947761580+945987275+945443954+945482720
746+945454076+945567600+946039013+946417973+946602130+947395367+949152726
736+950913460+951606596+951255229+950544097+949663056+947866406+944810579
726+942286601+942969989+947017457+951314465+952938206+952035719+950287733
716+948477586+946705980+945810617+946772265+948609330+948754795+946393679
706+943625859+942652064+943654877+945241952+945418460+942405898+935727753
696+927647964+922157688+921147153+922368464+922184307+919767629+916572260
686+912916500+907992415+902709240+899897780+901197448+905133491+908689675
676+910111564+909132295+904939437+896142444+884143333+876542831+880482399
666+888869240+890647819+884903128+878314062+876845160+879409403+879909085
656+875147336+868883543+866674716+869286648+873012067+874903344+875063956
646+873692381+869576529+862377708+854294845+849083203+848609990+850593421
636+851186755+849086128+846049721+844446600+845666712+850017182+855869548
626+859044071+855429252+845578382+835047949+828833119+826538887+824073921
616+819425470+814931334+814325702+819166332+826975659+832846770+834516475
606+833338578+830097845+825045691+821072906+821421198
##END=
