##TITLE=<SNM>
##JCAMP-DX=4.24
##DATA TYPE=INFRARED SPECTRUM
##DATE=2/5/2025
##SAMPLING PROCEDURE=Instrument type and / or accessory
##ORIGIN=Admin
##XUNITS=1/CM
##YUNITS=ABSORBANCE
##RESOLUTION=4
##FIRSTX=4497.3318
##LASTX=599.83466
##DELTAX=-1.4281778
##MAXY=1.8629687
##MINY=0.39991352
##XFACTOR=1
##YFACTOR=1.7350248e-09
##NPOINTS=2730
##FIRSTY=0.42038378
##XYDATA=(X++(Y..Y))
4497+242292665+242415532+242358247+241770488+241096209+240577914+240198648
4487+240279105+241168369+242716436+244483010+246109129+247212641+247288150
4477+246133863+244461625+243455712+243298372+242917646+241710987+240616631
4467+240685544+241439730+241619211+241228866+241609901+243220543+244574546
4457+244146498+242414278+240986002+240639527+241158802+242114936+242946418
4447+243067463+242612482+242379168+242562274+242311714+241014344+239306910
4437+238378397+238833189+240339688+241854689+242376437+241953765+241606054
4427+241987844+242635086+242718566+242040062+241051601+240197566+239505046
4417+238889873+238560970+238771644+239477133+240540674+241759186+242509438
4407+242233525+241449366+241294516+241897648+242116327+241114640+239492352
4397+238464418+238447705+239016329+239805882+240694940+241386001+241626924
4387+241590835+241369682+240592308+239208555+237967148+237462508+237346890
4377+237072421+236763701+236713956+236650419+236213096+235665050+235431582
4367+235366773+235114513+234831335+235006677+235798428+236907488+237864310
4357+238161195+237386208+235710483+234125846+233610145+234043432+234477285
4347+234418145+234144363+233935612+233869550+234184454+235015094+235918546
4337+236235580+235783347+234973715+234450816+234492350+234600787+234156232
4327+233525136+233692370+234740882+235579337+235345680+234371682+233550386
4317+233398749+233896844+234633234+234961742+234465622+233394283+232454587
4307+232166908+232482139+232948663+233243161+233544100+234190638+234966071
4297+235092785+234186635+232920098+232357623+232824869+233820184+234834633
4287+235697257+236188326+235985261+235210154+234455419+234066294+233835093
4277+233487433+233117958+233005484+233247283+233673648+233985047+234048602
4267+234157435+234744145+235703268+236360456+236303978+235888796+235708318
4257+235884691+236071197+235900219+235320430+234663277+234392672+234610509
4247+234900386+234947228+235135847+236023068+237336309+238049614+237482794
4237+235919233+234199741+233070292+232853898+233429822+234397567+235261616
4227+235657750+235657406+235657252+235783141+235823197+235832078+236102270
4217+236397610+236040279+234841745+233292029+231971023+231292141+231421311
4207+231929163+232159282+232269300+232904724+233794143+234002533+233530839
4197+233286944+233545147+233787221+233911255+234320168+234980053+235477513
4187+235843878+236456733+237207843+237367657+236383868+234566159+232851459
4177+231991876+232128226+233021046+234292960+235382490+235752463+235398602
4167+234917477+234889376+235278604+235574373+235478389+235269312+235357292
4157+235631091+235580986+235082135+234643283+234719514+235144212+235368834
4147+234983402+234013561+232972625+232509467+232728026+233044287+233009847
4137+232970151+233511927+234557587+235448793+235821806+235910198+235908944
4127+235578307+234721008+233588794+232509038+231573979+230939878+230902449
4117+231484711+232370386+233208017+233642403+233329577+232362965+231436788
4107+231261274+231929197+232952321+233787187+234249451+234513769+234771646
4097+234854524+234316132+233067355+231698941+230867254+230621487+230659327
4087+230912377+231539437+232612563+233937519+234946609+234984691+234085360
4077+233133778+232855100+232980784+232735429+231910131+231111921+230946869
4067+231275033+231496254+231369506+231172504+231108314+230994225+230683787
4057+230494412+230873489+231689408+232247124+232162855+231860198+231962194
4047+232527314+233102138+233304671+233208068+233174470+233316695+233285433
4037+232821726+232311933+232379352+233112925+234114029+235113071+236037960
4027+236578173+236235683+234984210+233542382+232790361+233092468+234195258
4017+235520214+236448470+236526745+235654280+234130089+232505963+231369283
4007+231082308+231561595+232377720+233121875+233629950+233956362+234269376
3997+234689076+235123669+235366670+235405885+235465111+235682038+235971159
3987+236227301+236365059+236199079+235738103+235461160+235856435+236845600
3977+237887138+238367936+237842821+236448333+235173465+235072499+236094249
3967+237223646+237764220+237884115+237940283+237966409+237902442+237770094
3957+237576236+237406065+237531885+238263363+239720925+241539150+242825217
3947+243097334+243079607+243539312+243936098+243382573+242203328+241324902
3937+241125187+241797919+243695484+246461461+248473184+248298873+246696991
3927+245849620+246629657+247651802+247526411+247094927+248002399+250015513
3917+250854158+248763095+244651653+240876637+238871820+238874482+241247349
3907+246728063+254894848+263089133+267961683+268393063+265391712+260088915
3897+254034200+249863171+249682780+252816651+255475289+254868739+253563777
3887+255234968+259014243+261340406+261868217+262420059+261737845+258180958
3878+254758635+255105145+258843350+263540713+267810440+270221938+269077442
3868+266400940+266087427+267798537+267258049+262771996+257892678+256730198
3858+261121692+271342575+284896340+291956349+284236610+270035311+259087090
3848+254194650+254947804+259597742+265949033+272573848+278897381+283507709
3838+283935671+280034783+274757546+270198904+266547252+264091937+263594460
3828+264725747+266490826+269691000+275992409+283218571+285399348+281947773
3818+277868520+274280028+269138523+263343729+260099857+261287072+266574701
3808+272943031+276999044+280133258+285577627+291175419+291565850+287789666
3798+284399413+281462921+277448425+273711542+272397167+273511724+276013176
3788+279593767+284166099+288989970+293903452+300080638+307852251+315236801
3778+320572697+325177477+331513892+341109931+354184770+368679417+380717974
3768+388513429+393239752+396094379+398470457+402297330+407290926+410414474
3758+410585212+411301900+416410478+426676759+439208499+448119180+450691969
3748+451810321+456243469+462979248+466828278+467165117+469713927+478956946
3738+495811937+516977742+534451307+541223294+539130187+536253712+538623160
3728+547238158+559255691+570374667+577896116+581352106+581551083+580887643
3718+582051823+585855336+591643328+597985583+601674560+599241008+591108852
3708+581065046+573352212+570801066+572635489+574478088+573229397+570644860
3698+569692573+571446505+576121401+583825096+593336144+600721586+601082095
3688+594705966+587360237+583129845+583087040+587071184+594163589+603115014
3678+611647803+614579554+608933787+601986698+600955123+602878041+599840275
3668+590851817+581866244+576477718+574248055+573185321+572432939+572900975
3658+574917610+577048609+579089773+583230433+590660810+599315006+602928748
3648+596610127+584843892+574526114+568135798+564694684+562709070+562062566
3638+563255226+565686374+568227316+571488417+577772924+587079910+592897515
3628+588116844+577828852+571087439+570592711+575178286+582094559+587249205
3618+588526960+588594293+589996820+591709012+592285468+592243832+591706195
3608+589425998+585993987+584394819+586589819+591775590+597404799+601680057
3598+604575942+606041611+605458078+603415541+602117311+603347245+606982561
3588+610868797+611990517+609434459+605124503+601806891+600938840+601700806
3578+602418594+602807754+603445291+604019686+604655025+607826290+615482784
3568+624128254+626495641+620959324+612898143+606663140+602939535+601081339
3558+600552429+600730244+600704891+599773010+598272506+597879430+599877102
3548+602731076+602743306+598573445+593446832+590960856+591336548+592472628
3538+592632167+591463108+589480826+587615348+586986330+588005263+589456367
3528+589576948+588094652+586010546+584064817+582472588+581553075+581678604
3518+582683795+583833547+584410553+583953305+582032998+578645372+574947670
3508+572611579+571986065+571761701+570680759+568938748+567631965+567327625
3498+567699024+568275721+568982103+569718579+569906391+568888351+566908406
3488+565295187+565014277+565346100+564698119+562644554+560460650+559461436
3478+559434091+559212096+558231571+556965429+556112356+555792763+555640953
3468+555655554+556433529+558003531+559158676+558759726+556908607+554295522
3458+551488613+549269153+548344968+548206041+547480833+545900457+544657640
3448+544466599+544546746+543853453+542206327+540045097+538107441+537174255
3438+537239184+537260792+536257972+534401425+532897108+532760105+533454807
3428+533270155+531682290+530322155+530579671+531581942+531593966+530303054
3418+528899462+528553211+529145916+529300302+527865792+525265177+522901569
3408+521761539+521842442+522402031+522682735+522498118+521917402+520817806
3398+519444824+518620196+518433620+517920719+516576078+515024970+514133250
3388+514146716+514725096+515368783+515848705+516445190+517502221+518736174
3378+519229632+518252198+516093476+513894800+512454621+511455442+510382196
3368+509749812+510547128+512641094+514591529+515276509+515006729+514722348
3358+514699503+514483452+513805858+512931349+511988509+510768950+509529879
3348+509080909+509583230+510133715+509991353+509378104+508670828+507794257
3338+506933970+506798651+507418462+507528187+506080520+503739757+501959166
3328+501190535+500911101+500973728+501767060+503016404+503765007+503881638
3318+504188898+504599151+503793039+501559666+499761865+499972110+501487180
3308+502490276+502279034+501590963+501342757+501660289+501884859+501331935
3298+500202761+499517541+499796906+500235328+499673129+498038267+496368640
3288+495721655+496413128+497848772+498949707+499255181+499460239+500399814
3278+501829309+502650502+502168862+500771007+499366350+498527843+498372598
3268+498891993+499813018+500369171+499981832+499037378+498359681+498222678
3258+498293688+497993470+496738218+494552356+492415757+491328461+491306749
3248+491731465+492148382+492275594+491805050+490830090+490030300+489931808
3238+490272323+490386480+489973032+489193580+488274135+487446244+487123078
3228+487565005+488229441+487955058+486171582+483591991+481408122+480207183
3218+479883639+480047026+480231849+480177433+479996938+479784700+479272245
3208+478134929+476430295+474717038+473853556+474217706+474943086+474726279
3198+473559385+472650109+472617129+472828646+472491807+471532718+470273824
3188+468850548+467261754+465714838+464556429+463897318+463540382+463188909
3178+462538283+461385920+459896546+458548470+457632392+456911135+455905840
3168+454484728+452998687+451799465+450871673+450042442+449276628+448657435
3158+448293079+448221383+448237014+447986197+447255458+446022535+444451400
3148+442985971+442050930+441481413+440662454+439387757+438148548+437418255
3138+437081726+436749594+436293444+435860071+435578164+435391692+434999819
3128+434024859+432468633+430846482+429688588+429118900+428909548+428635164
3118+427891061+426712212+425661983+425251043+425423705+425768788+425997482
3108+425987072+425579637+424705093+423607936+422688355+422244401+422399302
3098+422888774+422925086+421901997+420344088+419440377+419493694+419605138
3088+419094263+418434568+418330476+418564253+418440030+417871887+417247816
3078+416640888+415946702+415371173+415032857+414509374+413481716+412411630
3068+411915458+411774299+411221650+410041220+408728940+407682009+406902968
3058+406356159+405993693+405599758+405054186+404574813+404446330+404620195
3048+404665336+404190395+403358175+402707033+402417259+402195849+401811740
3038+401184440+400196219+398968690+397947868+397333794+396841642+396182908
3028+395395520+394687317+394201898+393862552+393426224+392800711+392132599
3018+391572838+391200753+391039324+390832274+390009055+388364471+386642694
3008+385874785+386178231+386687286+386615143+385909413+384908550+383873815
2998+382924070+382154134+381718975+381703481+381873189+381775555+381119673
2988+379875963+378226639+376685116+375879417+375870554+376010202+375722283
2978+375103881+374579539+374287223+374011740+373612756+373249602+373079585
2968+372932207+372434490+371411984+370114820+369089360+368759289+368978054
2958+369073145+368495796+367337146+366138165+365371458+365123011+365064953
2948+364757040+364119469+363499795+363163575+362933199+362486084+361797944
2938+361099154+360536405+360062014+359630565+359330416+359220484+359197948
2928+359172698+359136867+358891855+358076263+356692733+355227029+354049245
2918+353117914+352387587+352018559+351979567+351871353+351426884+350866334
2908+350527296+350439900+350459997+350508127+350493870+350283900+349858600
2898+349289289+348624750+348003084+347646355+347500592+347155680+346380933
2888+345463516+344760603+344218570+343642079+343146079+342916149+342775368
2878+342477761+342181563+342127421+342098495+341692674+340938197+340245522
2868+339870172+339666661+339351740+338906824+338576993+338468710+338382036
2858+338087349+337534013+336819661+336137360+335618069+335167485+334670901
2848+334270095+334168305+334288509+334325955+334046899+333490917+332929268
2838+332569309+332337833+332067469+331743513+331423748+331104705+330767316
2828+330394715+329922694+329296906+328586127+328007472+327790115+327903277
2818+327964426+327630439+327043333+326625522+326470209+326247287+325732290
2808+325075446+324458040+323834966+323166922+322596615+322230610+321992195
2798+321793218+321624094+321435320+321148879+320777720+320376812+319901734
2788+319262547+318535759+317974487+317718964+317600821+317318708+316733629
2778+315952321+315207806+314674223+314335495+314035518+313632686+313050217
2768+312282033+311468055+310847866+310534353+310413462+310265398+309899839
2758+309244988+308414313+307646678+307130238+306888766+306798553+306642140
2748+306221340+305542269+304852686+304387605+304121466+303890987+303656041
2738+303437998+303121943+302582349+301912759+301303461+300802170+300347945
2728+299907289+299484154+299100079+298773718+298434234+297927790+297225015
2718+296542715+296122397+295914556+295621175+295094429+294554972+294297250
2708+294305529+294304636+294070240+293555930+292859476+292198646+291784374
2698+291606662+291451418+291161781+290750326+290272190+289776328+289375488
2688+289174003+289118625+289054692+288908139+288716617+288528289+288328454
2678+288043936+287640433+287211320+286865825+286544376+286087231+285465840
2668+284828062+284364355+284202239+284355543+284680598+284887838+284685219
2658+284026108+283213641+282639933+282432058+282438603+282441660+282277501
2648+281931850+281609251+281513352+281539204+281391190+280970958+280436688
2638+279942458+279526863+279214639+279057814+279052197+279074338+278941784
2628+278562106+278021807+277494614+277081733+276804395+276701179+276799019
2618+276991606+277076133+276933153+276614178+276275673+276060791+275991173
2608+275960306+275874421+275762943+275682401+275570047+275304973+274905095
2598+274544123+274327643+274158416+273922114+273721934+273784304+274140896
2588+274520780+274604534+274344528+273986458+273777897+273718344+273647473
2578+273522940+273479757+273588539+273704431+273672705+273571293+273584279
2568+273715338+273789852+273689607+273459197+273232719+273131737+273191083
2558+273353198+273543123+273713535+273831351+273887760+273881748+273735092
2548+273348251+272820801+272442909+272350875+272346581+272156004+271742831
2538+271297760+271002352+270844325+270654933+270347037+270051612+269910658
2528+269828810+269606198+269250173+268970894+268900486+268965431+269000696
2518+268874325+268549029+268137076+267861215+267856234+268030665+268192128
2508+268250014+268227478+268171722+268138948+268160076+268159080+268027058
2498+267792714+267570703+267393626+267287559+267383681+267692401+267914670
2488+267768769+267367260+267021163+266831787+266680115+266470815+266238223
2478+266068189+265954907+265777848+265501884+265294903+265292704+265380392
2468+265367870+265239456+265097695+264977903+264803747+264494340+264109921
2458+263839333+263763583+263720487+263521200+263195578+262912005+262762411
2448+262730926+262781976+262876535+262940055+262881774+262650624+262267717
2438+261819847+261428266+261209226+261208247+261316289+261317956+261149004
2428+261037251+261213761+261559342+261744423+261650036+261448242+261315997
2418+261250072+261161680+261029315+260906827+260831506+260796620+260814535
2408+260941181+261202149+261509735+261696483+261680869+261588783+261636226
2398+261925330+262453966+263300512+264742700+267262979+271475180+277972990
2388+287251136+299799590+316161982+336725394+361378553+389386702+419638358
2378+451052786+482766814+513968455+543738677+571151166+595301180+615320634
2368+630642691+641087336+647009377+649572237+649702713+646884054+640110865
2358+628946782+613033703+591876658+565988687+538967453+517210076+506048296
2348+507532173+520489075+539650166+556400790+565220743+567248096+566008612
2338+564038217+562798424+563199779+565301612+567823178+568994608+568130645
2328+565749138+562398787+557906378+551655194+543552823+534448661+525180186
2318+515718023+505799368+495763910+486066631+476388967+465915774+454318971
2308+441945121+429265315+416678952+404679455+393681473+383634403+374090479
2298+364716881+355607291+347064058+339182753+331745643+324517231+317552004
2288+311144476+305526604+300694334+296507331+292857964+289723011+287107314
2278+284949743+283066246+281233060+279361346+277545475+275925420+274548830
2268+273364930+272313705+271410887+270727780+270263179+269856688+269279597
2258+268431728+267428684+266469132+265653848+264980411+264432108+263972334
2248+263526147+263054985+262574754+262080145+261570250+261130762+260863627
2238+260764430+260751135+260751067+260705754+260570898+260353645+260099840
2228+259849641+259647984+259553615+259550042+259480166+259196748+258776017
2218+258455393+258357090+258400977+258477998+258568383+258671667+258735050
2208+258708117+258624586+258579221+258626235+258728368+258802504+258786787
2198+258673746+258523740+258441325+258491568+258631731+258743072+258728093
2188+258576971+258359477+258170824+258068467+258038991+258032498+258040984
2178+258104229+258214024+258262634+258139940+257875519+257643236+257585298
2168+257641999+257639010+257556527+257569976+257762787+257955254+257928286
2158+257693770+257439329+257281937+257151290+256902500+256542919+256303026
2148+256369071+256598641+256685642+256576276+256532114+256817543+257458447
2138+258229448+258827822+259179399+259538825+260155871+260969832+261779275
2128+262559776+263470030+264650306+266113656+267774197+269507500+271181336
2118+272704290+274090001+275382493+276496826+277283081+277736636+277937194
2108+277802218+277126582+275885483+274360296+272919327+271710177+270612952
2098+269479055+268302867+267154524+266119032+265327161+264865962+264621294
2088+264344231+263899865+263373754+262939557+262672353+262506819+262357964
2078+262238860+262233569+262381342+262615154+262815557+262937667+263078844
2068+263363980+263739673+263972540+263919172+263693038+263479478+263337322
2058+263274386+263332873+263489062+263634705+263738110+263893561+264178010
2048+264555489+264938740+265300416+265675852+266031963+266228810+266209830
2038+266127123+266172934+266378713+266638066+266855337+267034045+267222562
2028+267403881+267535473+267677989+267952201+268422556+269122394+270000906
2018+270732091+270884845+270449686+269897604+269640431+269710135+269928058
2008+270141550+270309952+270487458+270716065+270954738+271145814+271253599
1998+271290598+271511973+272370663+273853166+275084663+275180767+274300246
1988+273259189+272544012+272211107+272217033+272416697+272583158+272658015
1978+272774818+273023763+273353164+273655408+273943722+274487938+275531966
1968+276729985+277257384+276788833+275927927+275409477+275397866+275716686
1958+276240873+276830075+277242182+277364070+277388633+277650357+278321509
1948+279352346+280740856+282532921+284205657+284595487+283282297+281420838
1938+280350890+280241353+280492719+280688347+280807743+280946155+281139085
1928+281506980+282456535+284219588+286148191+287364538+288105429+289042291
1918+289587279+288633206+286692321+285450157+285719937+286903768+287831475
1908+287808080+287094380+286412372+286126154+286130139+286311767+286794867
1898+287716475+288814250+289516647+289872278+290790039+292512331+293679981
1888+293094215+291499994+290288371+289811128+289748570+289912987+290236256
1878+290629813+291052021+291628408+292985863+296177535+301372821+306346113
1868+307587762+304472596+300096544+297260640+296338173+296364522+296546700
1858+296677107+296857086+297210106+297751693+298539769+299830577+301957694
1848+305269604+309796366+314004050+314807859+311503130+307395862+305326219
1838+305188735+305475039+305715138+307225776+311237232+316453714+319546069
1828+319409994+318181194+316969330+314886427+312104630+310286560+310114172
1818+310672284+311083567+311741442+313580434+316432174+318630919+318772353
1808+317458906+316510535+317304657+320188691+324268235+327518033+328357605
1798+327557094+327646791+330591425+335911828+339853270+338552018+333637093
1788+329906033+329470427+331153659+333212377+335139349+336721374+337445311
1778+337896067+340084574+345574101+353406829+359346871+359552410+355409208
1768+350436327+346646797+345519306+347824067+351766952+354143889+354533908
1758+354726461+355056119+355541435+358084782+364239226+371996411+376707687
1748+376518913+374009404+372174123+372267702+374128371+376463466+377773787
1738+378964420+383171280+391008337+396782313+394745925+388331835+382406840
1728+378145804+376062042+376425883+378341827+381553424+387885236+398712136
1718+410750934+415917707+411187193+402553334+395699551+392676522+393902711
1708+398855014+405301258+410351950+414430189+420951187+430352990+437301830
1698+438130237+434588982+427557177+419239545+414430739+414918631+418882953
1688+425092019+435071446+448283082+455782991+450798053+441156736+435262178
1678+435389012+440205686+445885326+449503431+452705787+457252646+459840790
1668+456912406+452314772+451636216+455011268+458073323+457878915+456983896
1658+459829556+469214801+485767513+503833302+509225676+503626905+502135298
1648+507428836+511725772+508203102+501432935+498412895+501071190+509219630
1638+522232117+536529950+543701781+540778997+536449528+537783519+545097884
1628+555191949+565582488+576616782+588265940+598003173+605329733+614127115
1618+627240156+641161541+649090460+651710759+654640517+659970711+666363742
1608+672187393+677124099+681531550+685302770+687815473+688916649+689486716
1598+690721871+693195205+696657104+700426468+703910284+706799642+709042943
1588+710983244+713219675+715938089+718665572+721106957+724240433+730076040
1578+739452283+748957628+752691128+752140299+754483707+762322551+772058891
1568+779036004+784019774+790627035+800894347+816721816+841225949+871658581
1558+888117610+882443329+872759207+867966581+867299293+868526204+869659054
1548+870419372+872990064+879053711+887610136+896208198+900016520+891897762
1538+875805425+863330814+857252670+853397147+848114567+843391336+842959440
1528+846643882+851283359+855473901+860763007+866339105+867487208+863111912
1518+857327081+852171541+847520934+844505429+844946943+849917384+859667672
1508+871498973+875246420+863808126+848418186+839417154+837652195+840541828
1498+844217956+844539920+841128109+838682877+841192557+847466861+851458907
1488+848340478+840366349+832654271+827864325+825960232+825773898+826858515
1478+830010611+835834606+843349837+849297161+848913224+841620262+833629437
1468+830369882+831933804+834313558+833942950+832605557+834673448+841702092
1458+850124263+851919591+844814956+835770020+829685487+827359462+827711656
1448+828158324+826396869+822956064+819982882+818708976+819737322+823713633
1438+829647835+833264256+831383662+827391960+825437986+825044979+823735894
1428+821508327+820477714+821063240+821884295+822969805+825859988+829543743
1418+829592938+824727207+818890432+815154735+813499089+812570850+811643848
1408+811203158+811656765+812157368+811988416+812356757+814676599+818174637
1398+820939841+822275172+822049536+819634741+815880492+813441924+813636023
1388+814657498+813533786+810319647+808480827+810579980+815858437+821873851
1378+827398419+832863898+838163791+841647882+842393221+841880732+841906291
1368+842753936+844210055+846607811+849689894+851738821+851504254+850022507
1358+848904017+848374969+847843447+847123186+846552913+846458578+846776831
1348+847029125+846914727+847052142+848567350+851717316+855281245+857475832
1338+857442990+855867664+854334455+854237509+855983367+858855136+861700041
1328+863853610+865323883+866358206+867335777+868896675+871456100+874584491
1318+877488897+880078690+882898173+886115335+889360117+892506029+895789082
1308+899132322+902041125+904252133+905950172+907420238+909140194+911841294
1298+915563800+918939607+920344951+919609781+917768693+915725743+914029766
1288+913133339+912895886+912324789+910648462+908362356+906584411+905725910
1278+905310573+904863905+904519543+904721612+905495465+906159043+906145919
1268+906079479+907174540+909471983+911658257+912963838+914147875+916022560
1258+918239615+920223614+922234615+924760854+927568588+930011141+931807843
1248+932909706+933063267+932170207+930657473+929006156+927399430+926133974
1238+925688681+926061350+926578581+926504651+925615026+924386192+923634462
1228+923762739+924583451+925715957+926564908+926384963+925321920+924603308
1218+924635257+924145990+922424110+920955143+921487833+923841203+926656495
1208+929241479+931724638+934191376+936630013+939200225+941690530+943108241
1198+942998928+942705065+943752374+945868017+948153505+950745772+953772889
1188+956120144+956702716+956260583+956690967+959006411+962372050+964945903
1178+965817252+965545926+964807595+964140032+964662416+967124757+970430895
1168+972748950+973848614+974909871+976624399+978781884+981077816+982994687
1158+983574235+982705291+981827346+982169716+983146187+983621506+983999535
1148+985840829+989896635+995166778+999470138+1001063603+1000475466+1000421943
1138+1003124829+1007895056+1011671223+1012040389+1009526792+1006701263
1130+1005558725+1006100965+1006952870+1006903607+1006036105+1005682330
1121+1007180361+1010358840+1013424777+1014883713+1015159368+1015661551
1113+1017053360+1018834603+1020453696+1021806547+1022973339+1024760766
1104+1027353926+1028795822+1027556819+1025453681+1025253261+1026948826
1095+1028795066+1030402823+1032434368+1034576188+1036054843+1037066424
1087+1038411924+1040470677+1043101351+1046128811+1048667967+1049051355
1078+1046739690+1043086922+1039797136+1037747110+1037398075+1039009817
1070+1042218940+1046185701+1049888282+1052353371+1052972495+1052645722
1061+1054086175+1058980557+1065418316+1068844555+1067256381+1063881672
1053+1062770465+1064173611+1065977733+1067673642+1069832020+1071200400
1044+1069969298+1066892368+1063874183+1061230454+1058588031+1056553326
1035+1056440164+1058859014+1062721271+1066083474+1068214026+1069781589
1027+1070244334+1067570099+1062288757+1058736645+1059987054+1063722408
1018+1065547212+1064967870+1064600078+1064982161+1064805239+1065045922
1010+1067981932+1072326035+1073741823+1070763626+1066127584+1062354578
1001+1060072801+1059555158+1060446914+1060646990+1058138271+1054167594
993+1052199466+1053765586+1057224667+1059720606+1059573160+1057009200
984+1053153814+1049370571+1046791908+1045588495+1044941957+1043789113
975+1041428941+1037679433+1033371195+1030542505+1030699159+1032790547
967+1033746544+1031462774+1026814297+1022542474+1020558338+1020392409
958+1020224969+1019251795+1018022617+1016701165+1014902058+1012726777
950+1010638823+1008725593+1006734036+1004569611+1002372207+1000199193+997973825
940+995467442+992032203+987263143+982255806+979406299+979953073+982472647
930+984816880+986166708+986206765+984592275+982247149+980908245+980641660
920+979619223+976744156+973132201+970865745+971230513+973768570+976378495
910+976964158+975652531+974405008+974201290+973664890+970859424+965868989
900+961063858+958975973+960052758+962421038+964141063+965479486+967962095
890+971675601+974801382+975599969+973855966+970859286+968907855+969766493
880+972619161+974416413+973063287+969373211+965310740+961945170+959644429
870+958994868+960653262+963860736+965576432+963236528+958853330+957242894
860+959680569+962238345+961458789+958981401+958389967+960247475+961978974
850+961187051+958248910+955991249+956856758+960004044+961876325+960670301
840+958682730+958714335+960576309+962184822+962003365+960014557+958041070
830+958297761+960229405+960608533+958440192+956805433+957874591+960000265
820+961552712+963853659+968313741+973455744+976276464+975493885+972269852
810+968886074+967218749+967471798+968613168+969664119+969878692+968616535
800+965632497+961541857+958415114+958919564+963287578+967652637+967981677
790+965439979+964240139+965173256+965230146+962675256+959479600+958729176
780+961253972+965089570+968102671+970270669+972439285+973937247+973351172
770+971309046+970046682+970263798+970383487+969441644+968696991+969335628
760+970660653+971510290+971727200+971645301+971620772+972018520+972456324
750+971746644+969775013+968552637+969950973+972976990+974638888+973904542
740+973030513+973503977+974219223+974556233+975635560+977458852+978122910
730+977428346+977455004+978751859+979665257+980212238+982382022+985435317
720+985080580+980083411+975259043+974615047+976621032+976818772+972705252
710+966327337+962349308+962895601+965788601+967439849+966582929+965762286
700+967876005+970894877+969224597+961902915+954117526+950477469+951593691
690+954993478+957524801+958445620+959390280+960446246+958795960+953277919
680+946617067+941692660+938805775+936549763+934037197+931438265+928856648
670+925933073+923361831+923213217+925276916+927155518+927001338+924581115
660+921914163+920944906+920512392+917555563+912336744+909303856+911481198
650+916107345+916659960+910674502+903287892+900744407+904531911+911977884
640+918606582+919389161+912207986+900778418+892260125+891856881+897670913
630+901921093+898204221+888831481+882077805+881727121+883528358+880953749
620+873134625+866138136+864917478+867331929+869235609+871440915+875182385
610+876466460+872910570+869582789+872719219+881838771+888325794+885905777
600+878238565
##END=
