##TITLE=<SNM>
##JCAMP-DX=4.24
##DATA TYPE=INFRARED SPECTRUM
##DATE=2/5/2025
##SAMPLING PROCEDURE=Instrument type and / or accessory
##ORIGIN=Admin
##XUNITS=1/CM
##YUNITS=ABSORBANCE
##RESOLUTION=4
##FIRSTX=4497.3318
##LASTX=599.83466
##DELTAX=-1.4281778
##MAXY=1.848892
##MINY=0.39243421
##XFACTOR=1
##YFACTOR=1.7219148e-09
##NPOINTS=2730
##FIRSTY=0.41393054
##XYDATA=(X++(Y..Y))
4497+240389668+240656241+240981417+241099732+241196188+241475499+241876760
4487+242097761+241822016+241151863+240590541+240319762+239942559+239345843
4477+239232633+240104593+241233520+241488307+240775058+239805863+238972966
4467+238207293+237522619+237232716+237731038+239094916+240778415+241957500
4457+242340259+242171613+241476364+240142463+238757157+238315189+238906661
4447+239644158+240073197+240543550+240999400+240664739+239293989+237729722
4437+236866780+236747737+236831143+236778649+236885680+237684480+239134534
4427+240449622+240779177+239942576+238571308+237532709+237153135+237127952
4417+237216048+237543890+238034597+238207275+237912128+237670132+237806257
4407+237810255+237111925+236081341+235624661+236106748+237142854+238013153
4397+238011370+237021960+235948902+235841906+236583817+237141937+236870916
4387+235998316+235161559+234891629+235238942+235663741+235577134+235057263
4377+234753912+235103388+235750193+235786470+234771497+233337695+232523075
4367+232781998+233875254+235188265+235784964+234884585+232855486+231123664
4357+230722923+231450917+232510475+233372622+233917294+234205103+234230944
4347+233913677+233403378+233060167+232912532+232547116+231801052+231117139
4337+230872253+230853284+230741615+230681626+230959172+231411231+231647533
4327+231694142+231881930+232163405+232128357+231698365+231174376+230604140
4317+229808334+228984714+228503145+228290798+228213104+228672466+229971337
4307+231535812+232563368+232984273+233200359+233383785+233455283+233359849
4297+233098330+232676837+232161691+231698746+231430806+231394754+231529633
4287+231802523+232156257+232232774+231545331+230138287+228694707+227905702
4277+228127206+229428136+231317700+232677892+232729919+231921496+231309254
4267+231414727+232088480+232971828+233667043+233845173+233553989+233236791
4257+233297039+233754256+234307080+234600012+234390209+233653750+232748958
4247+232274987+232467743+232946040+233253424+233388372+233655222+234195411
4237+234701020+234641256+233989052+233406701+233323036+233328626+232972832
4227+232541612+232538652+232969094+233464837+233721614+233728173+233787210
4217+234162630+234648906+234706177+233997065+232699319+231450537+230956091
4207+231425458+232476016+233645079+234684733+235343221+235348465+234787402
4197+234144700+233763810+233547101+233360299+233409920+233840223+234279024
4187+234355593+234339030+234688437+235312759+235723037+235583105+234859125
4177+233705777+232416218+231504692+231624911+232899292+234410043+235134750
4167+235252442+235564326+235970416+235617097+234350263+233030571+232416910
4157+232426689+232573198+232708163+233053815+233703025+234436386+234967281
4147+235088348+234654462+233701571+232659425+232217422+232642325+233375374
4137+233703250+233596739+233464110+233460822+233546789+233853481+234562749
4127+235581651+236464567+236695140+236237992+235629732+235250105+234899694
4117+234347320+233785617+233485174+233424753+233453535+233589660+234007242
4107+234694391+235266305+235455340+235629126+236272659+237081291+237154589
4097+236185723+235065415+234971642+235974587+236909633+236814337+236163396
4087+236213813+237294521+238316348+238176243+237125304+236227313+235911518
4077+235740276+235317951+234711352+234076403+233466395+233006651+232918850
4067+233332001+234138763+234999387+235535993+235651487+235655555+235937306
4057+236458526+236690691+236199136+235207338+234397305+234209222+234514322
4047+234993138+235588747+236317348+236835730+236672640+235907762+235186240
4037+234932596+234963542+235010135+235202804+235701870+236150000+236018306
4027+235447949+235220579+235753153+236572999+237016162+237069660+237230916
4017+237758972+238334141+238416715+237806447+236865724+236196575+236050516
4007+236218348+236558565+237222435+238149347+238815934+238834990+238504829
3997+238491813+239071430+239840946+240259134+240253630+240065478+239838730
3987+239705946+239874678+240306903+240665431+240717337+240599506+240710171
3977+241335670+242202801+242626891+242359263+241862446+241541510+241296365
3967+241049938+241147328+241902617+243030212+243838237+243980870+243736935
3957+243484451+243370013+243602680+244618865+246692254+249215347+250632084
3947+250133606+249165899+249631268+251132327+251577480+250187484+248151809
3937+246865971+247262835+249795708+253578367+256128149+255580241+253137870
3927+251772849+252883672+255014297+255948427+255708715+256137409+257949348
3917+259381557+258136877+254300599+250081146+247394045+247055161+249586649
3907+255459312+264138136+273209152+279338366+280785927+277831302+271530429
3897+264186840+259213535+258776655+261824880+264347628+263590504+262124666
3887+263578354+267074468+269035478+269286231+269991190+269911228+266923476
3878+263692169+264026086+267675770+272309170+276990755+280531609+280549834
3868+278300859+277668592+278473814+276771346+271605475+266874270+266101310
3858+270259060+279437851+292092332+299822419+293836598+280594280+269611027
3848+264281357+264586093+268878480+275034383+281883458+289023337+294647497
3838+295532022+291603286+286744367+283286833+280463295+277654279+276030630
3828+276229322+277332599+279657052+285261482+293015695+296789562+294633512
3818+291282195+288110461+282596136+275625198+271228082+271833054+277180187
3808+284048162+288268325+290472092+294449116+299473012+300759629+298124987
3798+295129619+292180428+288452236+285392466+284677296+285942452+288176629
3788+291410167+296014283+301420851+306866742+312631336+318792172+323763071
3778+326443024+328709913+333417113+341952560+354074951+367747036+379875520
3768+389553273+398260274+406687617+415010215+424278780+433972283+440274765
3758+441023771+440064581+442891891+452113657+466271983+479607019+487418348
3748+492230190+498151176+504259604+506269578+505484745+507674476+515928777
3738+530340419+547945081+562731399+570306444+571646646+570571217+570369340
3728+572448856+576074950+579865086+584275009+589976569+594425954+594231347
3718+590427814+587865103+590402476+597669895+603911592+601791888+590954867
3708+577748393+568275459+565630121+568959562+573406177+574228949+571766034
3698+569598665+570647163+576212027+585716945+596244989+602921732+602080026
3688+596398266+592304657+592572580+596273582+601416588+606259273+610883119
3678+616687209+621897231+621297347+616296056+613686268+613108123+607791139
3668+597305603+588050572+583073581+580835630+578976441+577349729+577440386
3658+579316675+580902092+581887106+585682399+594869930+606710241+612337378
3648+605846450+592393757+579343987+570225306+565637390+564397816+564993580
3638+567007084+570256287+573152655+574535052+576668845+582812650+590665622
3628+592071073+585755853+578898384+576900664+580991746+588460279+593854247
3618+595145537+596285905+599796176+603296201+604445222+604828067+606268826
3608+607243109+606190665+605070444+606606395+610330243+613166069+613988806
3598+615223465+618204883+620021357+618124230+615928095+619100382+627800529
3588+634213018+631151916+622849083+617724630+617958561+620350480+621784454
3578+622141408+622484930+623040922+624197143+627429591+633707565+641415845
3568+646150598+644245371+637435774+630784647+627165615+626087832+625950824
3558+626106247+626645623+627259630+627340837+626930507+626877961+627724444
3548+628706966+628462097+626808661+624927111+623713567+623319575+624072735
3538+626311378+629185696+630690701+629366942+625890524+622960060+623346921
3528+627350391+631913453+632731551+627961559+620214995+614161398+612320832
3518+613757506+615848618+616465671+614867204+611836840+609325567+608932337
3508+610523465+612916908+615138104+616416309+616106225+614286221+611838225
3498+609694359+608343254+607964216+608395592+608770061+608121646+606508226
3488+604789714+603701477+603495862+603734846+603436808+602510225+602304748
3478+603452177+604545606+603897538+601346319+597933248+594779446+592356788
3468+590509160+589416078+589964177+592306388+594659538+594742684+592567457
3458+590576314+590553122+591477559+591188313+589543185+588337879+588508810
3448+589118594+588846379+587546850+586126999+585192246+584518494+583914664
3438+583702818+583822656+583409142+581951698+580140001+578886268+578138854
3428+577147021+575579189+574173080+573658039+573303820+571978088+570190690
3418+569112146+568283732+566510493+564373931+563731194+565267318+568078082
3408+570993074+573182770+574008969+573334143+571840838+570435559+569268296
3398+567708425+565598656+563910986+563443194+563633440+563605609+563393486
3388+563226918+562762449+561714989+560275269+558786117+557841050+557963242
3378+558579429+558456891+557447196+556672678+556945586+557939046+558862202
3368+559226043+559006928+558524287+558161103+558187411+558346849+557613696
3358+555384123+552752908+551470514+551785825+552370132+552210001+551453691
3348+550542685+549687825+549274068+549675294+550419523+550534862+549829540
3338+548824657+547775293+546939402+547235571+549252745+551899779+553258396
3328+552757339+551571833+551021069+551212941+551163165+550058936+548295700
3318+547054221+547054775+548107185+549509937+550505023+550787034+550798111
3308+551175038+551905386+552456047+552574293+552451824+552320355+552166836
3298+551565014+550063955+548137958+547001295+547082814+547492832+547380575
3288+547039683+547429313+549124530+551500283+552978946+552567370+550723965
3278+548606580+547374656+547943143+550143847+552399243+553192142+552339324
3268+550445900+548281127+546817626+546669784+547407644+548011335+547840024
3258+546938122+545867227+545451047+546165542+547590309+548835249+549571794
3248+550193070+550879284+551125018+550370889+548619077+546456657+544827798
3238+544486214+545243944+546082604+546212931+545697404+545037048+544347926
3228+543140924+541194297+539303850+538391286+538225998+537945752+537358918
3218+536906081+536857792+537108961+537375257+537305057+536497551+534727530
3208+532547596+531281090+531584909+532372546+532208227+531334155+530972633
3198+531227298+530958856+529499612+527479323+525882484+525105127+524977639
3188+525145662+525162623+524524213+523103081+521443276+520281551+519795759
3178+519532094+519024287+518211485+517284106+516372200+515431113+514338411
3168+513090736+511919769+511135039+510840497+510800101+510507048+509581469
3158+508326040+507478587+507057457+506083348+503955786+501457632+499801739
3148+499280432+499454478+500020611+500861729+501551336+501245267+499365032
3138+496548660+494396936+493870541+494337398+494583686+494319709+494051856
3128+493947699+493614803+492751601+491438953+489923424+488541131+487782882
3118+487962259+488637327+488803515+487906320+486284731+484604641+483370051
3108+482875259+483110263+483679823+483984992+483603981+482732679+482080941
3098+481923822+481646069+480709171+479447130+478344009+477340995+476314616
3088+475505033+475254037+475689879+476548201+477178373+477013638+476043925
3078+474775931+473917990+473835778+474001378+473489867+472255173+471147483
3068+470588964+470161154+469541089+468907594+468324949+467599481+466879274
3058+466684667+467180774+467892569+468218888+467851377+466757186+465199323
3048+463717199+462727997+462150890+461589360+460886738+460428120+460711827
3038+461567518+462126971+461764237+460722316+459545879+458282143+456674226
3028+454949310+453872496+453849927+454362511+454596268+454327411+453830958
3018+453264651+452589721+451883673+451355062+451092470+450972216+450737213
3008+450129056+449120746+448017833+447150234+446501405+445802175+444912734
2998+443916817+442911241+441923043+440999022+440235857+439718497+439441193
2988+439185075+438528006+437299647+435966576+435188216+435014724+434878547
2978+434426748+433956429+433848776+433902776+433527926+432494832+431211572
2968+430216036+429628614+429207622+428793000+428508012+428473500+428444423
2958+427945963+426843257+425531613+424459022+423722097+423221040+422908463
2948+422686129+422282445+421526723+420684394+420212241+420146264+420064918
2938+419718315+419262396+418766393+418060137+417198146+416508124+416095786
2928+415771060+415401333+414928454+414216901+413201806+412069643+411166841
2918+410740726+410703411+410673364+410407242+410121388+410149323+410354765
2908+410156731+409175732+407665396+406207918+405164093+404581275+404422113
2898+404531359+404485217+403944353+403182608+402806997+402936181+403118673
2888+403036185+402766185+402308432+401404557+400050163+398780680+398122816
2878+397984251+397897505+397709094+397653986+397807505+397858632+397502440
2868+396806395+396092696+395578797+395241748+395027202+395010241+395140187
2858+395007125+394239115+393060221+392099092+391662039+391457047+391025670
2848+390278499+389523088+389017670+388691559+388370329+388029298+387703984
2838+387389088+387096242+386780724+386254467+385473926+384791450+384521900
2828+384377624+383738348+382462738+381116168+380340646+380166669+380041639
2818+379516213+378761391+378280653+378256526+378421157+378488830+378383738
2808+378013146+377185770+375960457+374823655+374241321+374151529+374115910
2798+373858372+373417338+372883674+372274132+371639980+371086134+370642158
2788+370197594+369609064+368881138+368189247+367671194+367284229+366942230
2778+366625361+366239573+365591436+364659661+363704520+362956483+362359161
2768+361775719+361309174+361185493+361379858+361593158+361578723+361287470
2758+360748509+360057207+359427762+358992370+358580309+357907629+356943939
2748+355940198+355169834+354749189+354582654+354368628+353826240+353041822
2738+352395693+352036870+351692690+351118975+350453703+349989131+349835958
2728+349879124+349844854+349438747+348639133+347784585+347167082+346660694
2718+345983826+345216820+344775855+344850244+345090439+344976036+344381898
2708+343612088+342924004+342291756+341681972+341240869+341054361+340992331
2698+340929781+340885231+340856362+340732508+340416989+339905375+339271084
2688+338652923+338190185+337906132+337692071+337395625+336890518+336128877
2678+335217144+334409292+333919520+333739520+333710928+333716778+333695281
2668+333579978+333377063+333181659+333004117+332711445+332216792+331598008
2658+330982547+330441891+330017438+329736707+329580488+329482042+329357669
2648+329129416+328764363+328309933+327830960+327325750+326795893+326355240
2638+326131313+326075375+325994133+325761310+325428103+325117707+324858300
2628+324594116+324332251+324096797+323754348+323154326+322451600+322012470
2618+322004093+322279597+322564931+322594942+322216354+321532875+320866737
2608+320477903+320340342+320230750+319999416+319677459+319346709+319049987
2598+318819310+318632803+318357230+317883242+317310393+316888052+316781367
2588+316939594+317150194+317180759+316915121+316415968+315854611+315364424
2578+315000513+314824978+314897324+315134370+315318039+315307274+315124401
2568+314790571+314218483+313371896+312455386+311818568+311651237+311828295
2558+312055371+312136787+312091960+312010787+311856472+311528803+311096146
2548+310783362+310698901+310714651+310642962+310438836+310180017+309891187
2538+309517791+309128784+308952004+309075615+309292238+309343884+309157203
2528+308808073+308434712+308190328+308161286+308318647+308536931+308643062
2518+308527447+308244397+307960759+307831159+307919705+308144497+308292305
2508+308176412+307808728+307398087+307179872+307220683+307396564+307565521
2498+307667913+307660090+307520591+307315149+307101676+306847322+306554823
2488+306320235+306180735+306071351+305961239+305872901+305772240+305583828
2478+305321375+305102329+305015306+305037287+305105479+305208564+305338579
2468+305399086+305269590+304970410+304660084+304427642+304192846+303875666
2458+303567486+303458793+303642220+303990693+304195961+304026589+303621382
2448+303388455+303544536+303908620+304162938+304131542+303824089+303399290
2438+303085017+303014610+303155390+303392505+303591543+303645266+303595697
2428+303620932+303775697+303875077+303755516+303501613+303323967+303364674
2418+303659978+304104404+304434115+304428611+304128877+303729451+303355882
2408+303087129+303045383+303274501+303599712+303754270+303666278+303558763
2398+303695216+304050577+304372050+304543499+304678014+304853410+304978060
2388+304923022+304621072+304045350+303163698+301865658+299942949+297236308
2378+293836183+290135285+286617762+283461658+280411268+277249539+274251783
2368+271866423+270159282+268907782+268079402+267998974+269101662+271539481
2358+275052002+279347764+284600398+291310060+299279097+306897549+312088429
2348+313728088+312173583+309135707+306611592+305223864+304296104+303387140
2338+302677352+302116723+301113051+299313816+297243577+295839164+295468364
2328+295611395+295519526+294996281+294459362+294412355+295032384+296147413
2318+297357807+298231637+298609532+298715040+298875274+299205712+299629577
2308+300090168+300617083+301198101+301700127+302000830+302135588+302202222
2298+302190661+302055280+301887742+301837031+301900031+301957596+301975942
2288+302014954+302075669+302094015+302059780+302007961+301909446+301669977
2278+301229947+300634148+300039872+299643423+299523723+299572496+299629577
2268+299619261+299506242+299245624+298884586+298622444+298657440+298980401
2258+299350266+299503992+299422854+299331158+299397273+299552004+299635150
2248+299555361+299297304+298970086+298809470+298928547+299138489+299187747
2238+299079401+299025159+299179958+299500358+299806323+299937445+299852499
2228+299623208+299393535+299291731+299296785+299262550+299128555+298980159
2218+298883928+298832767+298845990+298958905+299122912+299239670+299282523
2208+299310043+299357258+299360650+299233231+299001620+298813070+298806494
2198+299011035+299338289+299628573+299743288+299662496+299479000+299290970
2188+299123431+298962747+298844986+298863159+299067078+299382769+299654950
2178+299771292+299759938+299757307+299839173+299907849+299816984+299573950
2168+299346666+299312743+299543973+299955757+300330468+300478552+300409183
2158+300285676+300237214+300276018+300350441+300399041+300381283+300309768
2148+300230810+300173141+300164695+300272176+300548441+300959221+301400081
2138+301731766+301813146+301628889+301382255+301340162+301587108+301977638
2128+302273738+302335768+302261449+302295338+302554364+302938629+303311990
2118+303612312+303813116+303937316+304074046+304280423+304531349+304793422
2108+305050995+305250760+305317325+305256956+305214483+305373575+305755867
2098+306155189+306338131+306304208+306314835+306635373+307219299+307710871
2088+307857744+307805475+307844555+308038193+308243255+308321416+308231035
2078+308072705+308050482+308240797+308471889+308570473+308626239+308892777
2068+309479714+310176209+310589343+310521012+310165928+309851898+309721087
2058+309760064+309943975+310201894+310403424+310506889+310614405+310818808
2048+311086938+311332500+311555872+311841449+312189610+312431398+312422190
2038+312258875+312166244+312226440+312352302+312463105+312549021+312608732
2028+312653040+312742520+312907289+313075450+313229350+313570311+314274283
2018+315064620+315339431+314885174+314186256+313851595+313998122+314316687
2008+314524898+314602817+314679559+314825532+314993901+315117270+315172759
1998+315215162+315510708+316451379+317970058+319233102+319432659+318699680
1988+317712797+316870260+316310807+316167845+316385506+316664506+316802829
1978+316859563+316973621+317175186+317361797+317528678+318021219+319158644
1968+320474615+320921326+320173289+319077194+318510368+318513241+318724291
1958+319018660+319426324+319839112+320085054+320133031+320122023+320263358
1948+320800761+322055324+324158724+326365659+327130104+325775779+323523983
1938+321989001+321580921+321761094+321989139+322103370+322197074+322366758
1928+322723296+323684148+325598480+327841137+329340223+330204499+331193216
1918+331728715+330567648+328283902+326830301+327142946+328512813+329588000
1908+329545215+328642898+327754911+327404361+327458984+327639261+328002272
1898+328824143+330019618+331003940+331642766+332740556+334577038+335794736
1888+335138844+333387170+332025923+331468581+331446358+331744673+332080823
1878+332180757+332162584+332477099+333828447+337160587+342662970+348143269
1868+349780366+346562075+341714303+338477112+337449348+337550944+337719140
1858+337590786+337369664+337411548+337835240+338652335+340098805+342508655
1848+346163341+351068783+355690968+356651958+352875946+347910654+345194008
1838+344906390+345343304+345646327+346978117+350764445+355996621+359358150
1828+359459642+358305048+357114869+354998869+351975739+349735332+349237979
1818+349777839+350346431+351039118+352714257+355412141+357699349+358137268
1808+357015973+355966229+356618970+359717665+364304888+367793905+368280424
1798+366875249+366575653+369499333+375087805+379262552+377681081+371990183
1788+367541733+366822392+368555027+370723885+372786093+374549156+375241289
1778+375216401+376668444+381529440+389095070+395219109+395884520+392056688
1768+386916796+382465785+380540169+382303231+385967540+388051175+388119471
1758+388192406+388560540+389042593+391675469+398286720+406652206+411374706
1748+410284842+406479164+403473342+402610520+403615022+405121239+405572935
1738+405863599+409398828+417299638+423876758+422254787+415261280+408391591
1728+403349523+400678327+400577181+402248236+405561823+412367335+424034188
1718+437129305+442989091+438078907+428656234+420932724+417304138+418312898
1708+423406924+430266436+435780692+440076315+446566862+455996770+463201050
1698+464281706+460731558+453278566+444201943+438741687+439089813+443446983
1688+450261702+460819965+474577758+482476248+477540795+467639323+461185849
1678+460396205+464099075+468926494+472280927+475636156+480456410+483145328
1668+479768603+474261512+472763395+475717502+478465440+477565234+475631379
1658+477544845+486406680+502904691+520953088+525360450+518065616+515142871
1648+519214118+521766825+515552924+505765198+499981219+500204627+506196574
1638+517157829+528850956+532002785+524087298+514797618+511171351+513211647
1628+517785890+522507524+527139228+530647699+530763072+528972940+530020504
1618+535258080+539688080+538039594+533384698+531124213+532283169+534842350
1608+536631443+537257011+537822210+539114227+540595728+541368273+541698746
1598+542793005+545176582+548032797+550237274+551502049+552206609+552701435
1588+553191103+553859595+554765512+555801688+557086435+559535158+564616931
1578+572553187+579654798+580406504+576905095+576330999+580668508+585397446
1568+585718191+583303011+582229867+584684647+593060379+610417473+632888497
1558+641400199+630831862+618287337+610892880+607628586+606804049+607384686
1548+609889797+616444902+628166551+643495810+659711083+671970309+671387387
1538+659915037+651309390+651227905+655708513+658038748+657736556+660002683
1528+667147771+676768686+686305416+696350784+706614436+712883202+713701509
1518+713123710+712982064+712019758+711137898+713712309+722174925+736612355
1508+752973151+759125748+747941605+733362737+726913694+728919929+735580195
1498+741753493+743126960+740400241+739174305+743753774+753146227+760782022
1488+760420154+754144741+748377966+746326177+747245630+749331688+752505013
1478+758188919+766849674+776839172+784581998+785695019+780078406+773917847
1468+772472657+775903936+780390082+782327917+783439346+788538045+799686673
1458+812472259+816113861+807930797+797954245+792372523+791146587+792166424
1448+792798984+791527563+789237967+787583285+787221001+788658507+792897015
1438+799367796+803793504+802362299+798161729+796205132+797163839+798405421
1428+798195306+797630799+798117352+799792942+802961352+807991374+812120775
1418+810130048+802288568+794405897+789972781+788730091+788931137+789296467
1408+790038827+791843809+793963028+795055419+795950571+798753167+803579928
1398+808338151+811036346+810697254+807697282+804828710+805139141+808395266
1388+811223477+810942608+809102872+809362626+813161727+819083025+825053269
1378+830471329+835866405+840687627+843135762+843150508+842972447+843757592
1368+844821736+846310333+849569159+854234820+857293707+856526909+853416237
1358+850862803+850032450+850225188+850508688+850731957+850983541+850985064
1348+850583042+850194312+850362196+851241148+852535208+853605098+853740444
1338+852737430+851225779+850203173+850199642+850924280+851765017+852512154
1328+853446491+854912796+856939039+859138566+860964247+862213238+863224905
1318+864426957+865881285+867474698+869164688+870759970+871926921+872686797
1308+873466196+874600402+876146530+877884704+879226671+879660332+879378632
1298+878910771+878401649+877932681+878067680+879184786+880449146+880199292
1288+877733919+874288656+871638022+870226755+869295395+868212835+866946884
1278+865681763+864712118+864364234+864488295+864323042+863331936+861984153
1268+861190701+861239024+861928007+863393897+865840439+868598381+870384255
1258+870584193+869841694+869469787+870427178+872658066+875340200+877564235
1248+878603872+878290465+877737727+878791002+882078974+886206851+889250369
1238+890555021+890864759+891232928+892194680+893818069+896037535+898790423
1228+901720472+903998506+905092143+905557165+906532348+908615845+911548594
1218+914661896+917350538+919392219+920982032+922517152+924534464+927441667
1208+930622262+932374351+931976690+931206846+932399067+935773507+939455055
1198+941495490+941661159+941685182+943634509+947709495+952130703+955497320
1188+958040647+960038851+960812435+960427304+960823442+963817876+968751667
1178+972957568+974624988+974588642+974701211+975425156+976399785+978116221
1168+980933286+983571320+984443834+983517874+982037722+981720992+984136103
1158+989164326+994240248+996465875+995357146+992799143+991012023+991221307
1148+993432603+996582113+999266186+1001176952+1003607779+1007530110+1011517935
1138+1012952394+1011299096+1008941585+1008638147+1010865020+1013811131
1130+1015690812+1016544357+1017239848+1018170793+1019518367+1021179765
1121+1022438793+1022582239+1021930156+1021445749+1021738733+1023046431
1113+1025271435+1027166416+1026531433+1022810493+1018764792+1017905985
1104+1020677012+1024632990+1027837123+1029897981+1031005256+1032115992
1095+1034535950+1037938706+1040147648+1040061041+1039100881+1039042519
1087+1040174510+1042415021+1046540338+1051804913+1054689478+1053249550
1078+1050120601+1048783965+1049667902+1051619029+1053866810+1055469154
1070+1056093822+1056664559+1057684673+1058500695+1058837294+1059221178
1061+1059769346+1060270992+1061080090+1062218450+1062212842+1059575639
1053+1055289154+1052189628+1052347543+1056212829+1062818472+1069710245
1044+1073741823+1073639500+1071489404+1070227606+1069979483+1068294409
1035+1063923670+1058606410+1055387184+1056163883+1060222253+1064889922
1027+1067287241+1066467551+1063861293+1061888774+1062704934+1066085467
1018+1068178586+1065372668+1059451647+1055033623+1053972941+1055635238
1010+1059533547+1064561146+1067420718+1066097997+1063796355+1064556231
1001+1067174603+1066936242+1062375742+1057459466+1055668953+1055971007
993+1056587367+1058438249+1061981473+1063751217+1060049523+1052615674
984+1046394399+1043943911+1044526626+1045924669+1045815908+1043368258
975+1040147925+1037780306+1035476241+1031791093+1027727184+1025858441
967+1027296501+1030723279+1033178752+1031890162+1026524579+1019482990
958+1013708185+1010468536+1008735693+1006841127+1004639315+1002829072
950+1000838691+997816219+994801155+993228996+992535720+991100015+988408189
940+985068917+981841246+979475150+978779520+979936710+981441092+980861493
930+977719529+974354850+972975637+973056845+972568769+971120187+970577972
920+972483269+975898625+978209267+977547353+974192920+970238742+968072169
910+968448922+969966250+970765380+970125619+968155730+965590319+963660930
900+962963154+962930131+963046577+963576122+964239490+963715276+961368772
890+958047293+954714737+951706734+949317792+947825318+947213111+947949725
880+951270927+957242210+963090815+965141427+962574770+957963385+954218907
870+952158464+951050912+950571006+950956274+951442966+950848482+949719122
860+949474392+950175006+950923736+951783580+953618193+956026796+956938218
850+954970337+951468166+948767755+947211588+946100159+946068728+947699318
840+949489277+949641930+948427417+947067104+945827252+944314216+942291712
830+940077231+938898163+940297592+944345370+948873055+951538642+952460864
820+953387032+955027106+956762372+958196624+959276622+959409337+958521592
810+958329893+960549704+963933699+965273935+963480792+960165682+956833957
800+954403545+953957769+955314621+956146912+954405207+951069189+949235962
790+950973097+955058606+957814332+957097102+954890168+954580914+957297525
780+961389126+963448046+961073019+956547688+955223652+959072322+964068491
770+964759274+960172743+954171207+951475850+954005192+959564275+963848960
760+964328867+961255165+955727789+949896768+947596857+951209728+958580231
750+965104112+968621306+970458342+972343008+974304174+974786642+972596876
740+969405966+968071892+968482222+968493576+968220738+969353143+971094571
730+971320125+970926064+971817616+972338369+970048565+966468164+964770213
720+965061535+964906389+963560822+962821508+963823968+964921689+963735284
710+960938504+959463960+959847152+959081184+955345913+951527289+951584404
700+955154213+957659878+955524459+949458884+942390504+936821313+933916395
690+932820681+931573837+929547456+927379083+925558870+924490572+924448480
680+925059925+925331586+924906164+923797712+921519123+917780391+911905409
670+904450513+900697520+905572811+913817559+918095252+917909714+916692224
660+916578616+916105009+912839676+906834817+900283589+894401822+889355946
650+885870390+884724969+886029967+890284398+897394525+902974654+901651795
640+894752960+888449786+886486059+887432719+887366742+884791500+881997697
630+881802882+884106947+883957063+875474785+861203509+850764841+850136019
620+857667276+867916667+877845104+887687349+895742474+897028918+888943608
610+876108107+867067276+865889801+868808842+868534481+861755485+852638431
600+848027531
##END=
