##TITLE=<SNM>
##JCAMP-DX=4.24
##DATA TYPE=INFRARED SPECTRUM
##DATE=3/5/2025
##SAMPLING PROCEDURE=Instrument type and / or accessory
##ORIGIN=Admin
##XUNITS=1/CM
##YUNITS=ABSORBANCE
##RESOLUTION=4
##FIRSTX=4497.3318
##LASTX=599.83466
##DELTAX=-1.4281778
##MAXY=1.7296709
##MINY=0.17776938
##XFACTOR=1
##YFACTOR=1.6108815e-09
##NPOINTS=2730
##FIRSTY=0.20286915
##XYDATA=(X++(Y..Y))
4497+125936726+125247975+125851475+126821870+127119323+126433856+125146065
4487+123887161+123272700+123708908+125018022+126258979+126433135+125580348
4477+124734111+124713696+125391189+126133721+126431729+125998009+124850748
4467+123576249+123128071+124037266+125820338+127239725+127301046+126144007
4457+124867991+124381794+124570306+124698969+124380767+123861103+123530858
4447+123454210+123336675+122848462+122062972+121494281+121474892+121707991
4437+121754964+121651259+121698861+121938314+122103710+121972420+121571743
4427+121013625+120319537+119613202+119240627+119337052+119507896+119290847
4417+118698188+118064079+117698359+117842072+118533449+119320716+119494501
4407+118860947+117991187+117496406+117393977+117349076+117107032+116549608
4397+115794107+115299558+115393356+115754507+115840331+115645409+115561573
4387+115670949+115596854+114992383+113946116+112891997+112227935+112052993
4377+112219869+112483438+112592869+112426179+112108902+111935866+112086840
4367+112394506+112492772+112279645+112042744+111972553+111888578+111710232
4357+111815806+112560466+113697579+114569893+114719545+114188456+113396629
4347+112807588+112583647+112512096+112326340+112045491+111847405+111736651
4337+111558407+111234849+110827724+110478645+110355339+110508108+110809881
4327+111212880+111898310+112890554+113726246+113899282+113504719+113037449
4317+112694706+112365830+112121936+112153331+112381851+112641572+113026663
4307+113595215+114056389+114210564+114307471+114574805+114814166+114766592
4297+114470341+114096499+113808999+113850080+114450148+115547041+116705051
4287+117415567+117535784+117333110+117099669+116907457+116683026+116277658
4277+115582442+114819383+114510978+114918149+115731797+116441010+116729231
4267+116527500+116050915+115687830+115539890+115319057+114966491+114964521
4257+115706636+116914616+117913761+118209559+117775608+117085054+116746742
4247+116874979+117023363+116897781+116764086+116994188+117623376+118473766
4237+119312788+119775461+119528126+118741646+118112042+118156869+118651224
4227+118950537+118761618+118359747+118134113+118227023+118537085+118832077
4217+118937272+118932878+119022763+119215771+119331973+119238471+118922212
4207+118542700+118502294+119130761+120236210+121254494+121803306+121913690
4197+121863729+121891591+122013695+122136317+122233409+122221272+121904948
4187+121361039+121045196+121217761+121574897+121651286+121361567+121084825
4177+121348107+122387500+123903238+125240455+125830486+125523006+124613468
4167+123610457+122928773+122680356+122674982+122708089+122868286+123371003
4157+124099641+124589279+124481420+123833426+123062792+122679875+122917691
4147+123526260+123998165+124024889+123749748+123592132+123776657+124085460
4137+124166058+123943773+123597136+123313466+123244496+123516862+124070049
4127+124561556+124617215+124192570+123582243+123134334+123088258+123548443
4117+124416844+125500611+126742373+128002830+128646384+128020036+126415208
4107+124866178+124061447+124075683+124806578+125917217+126732475+126911654
4097+126832286+126849704+126786765+126491495+126180472+125983755+125750822
4087+125360838+124864050+124474205+124483159+124851645+125103125+125058631
4077+125229253+125961193+126756489+126935482+126480552+125883925+125573004
4067+125696976+126133591+126526951+126541780+126187964+125759536+125480648
4057+125361995+125293108+125148488+124954000+124929561+125113059+125189337
4047+125065957+125125455+125489122+125721314+125668421+125742035+126056508
4037+126144673+125753052+125212630+124917785+124986885+125394278+125990294
4027+126455715+126589141+126583203+126729746+126970319+127077299+127157952
4017+127598415+128471377+129242705+129200015+128188308+126856956+126097728
4007+126282207+127086725+127939234+128518507+128866042+129116466+129224047
3997+129038763+128537979+127837518+127086494+126524361+126504778+127206702
3987+128334824+129327244+129904399+130198910+130325112+130204201+129951520
3977+129988493+130528564+131247470+131607909+131352804+130693275+130099802
3967+129863605+129917691+130155239+130677642+131478913+132120312+132136000
3957+131661089+131243391+131118669+131112527+131160591+131360787+131570260
3947+131553008+131453845+131570658+131819861+131899710+131822322+131867158
3937+132166434+132666145+133317515+133972548+134214518+133787459+133154127
3927+133081586+133732984+134515829+134842143+134798398+134873834+135256973
3917+135585220+135416411+134841958+134437737+134634445+135246465+135767849
3907+136144642+136856482+138087560+139266281+139755494+139395851+138217693
3897+136564736+135349976+135347275+136288605+136888895+136317244+135561336
3887+136054239+137693312+139097093+139661029+139985262+140191933+139894100
3878+139462536+139621512+140439712+141670253+143207766+144470693+144571587
3868+143850062+143386797+143280751+142940136+142326396+141863668+141775485
3858+142320097+143998419+146795649+148943665+148488318+146491184+144752134
3848+143851302+143639155+143852449+144506788+145938885+148228412+150457284
3838+151142964+150146021+148929428+148374483+148100656+147718904+147560770
3828+148010844+149002358+150430283+152184115+153465746+153322116+152511807
3818+152507506+153064902+152936905+152079891+151536583+152070567+153761256
3808+155836500+157220661+158107341+159502344+161170675+161904040+161931809
3798+162351663+163115276+163742614+164567502+166148547+168374043+170835570
3788+173527578+176654869+179976916+183078880+186269165+190268891+195046937
3778+199914120+204754902+210097181+216318350+223332605+230552790+237308850
3768+243662743+250121479+256878224+264286986+273252705+284277082+296594135
3758+308979197+321352714+334548250+348988399+364144817+378724682+391921884
3748+404582383+418078370+432259621+444236373+452551777+459349907+466149555
3738+473272556+482102018+494292564+507774232+518083004+524044092+527387933
3728+528847374+528081077+526049634+524750705+524565588+524284563+523256964
3718+521908638+520859061+520804780+522230512+524361119+525950323+527451834
3708+530058462+533875475+538404133+543304431+548124511+552169045+555136916
3698+557517133+560328933+564436109+569922989+575897841+580331221+581073207
3688+579350540+578769435+580403929+582703557+584082483+584432663+584680312
3678+585227598+585084662+583665848+582512741+582349159+581542679+578532479
3668+574440103+571543718+570732539+571318787+572065177+572767165+574222794
3658+576387331+578287975+579937121+581841723+583197931+582824329+581604841
3648+582060401+584396771+587179562+589953065+592416535+594081518+595643600
3638+598339586+601454685+603120333+604034227+607171083+613065976+617741455
3628+618286964+617872476+619545192+623058647+627237495+630954789+633120325
3618+634026190+635682218+639052219+642642155+644371224+643739464+642261412
3608+642698323+646668780+652685851+657970814+661430136+663880285+665931413
3598+666915795+666349453+665338505+665626671+667524761+669727372+670618215
3588+669213351+666569463+665991207+669467771+674648984+676953052+675313748
3578+673598000+675153311+678683823+680232548+678030825+673989991+670452967
3568+667606756+664720806+662421992+661921439+663363230+666199302+669759785
3558+673000060+674610132+673813569+671069482+667888262+665948952+666208627
3548+667956788+668911495+667554880+664984255+663478970+664327039+667249842
3538+670752751+672974751+673117280+672119874+671618063+672277795+673111433
3528+672797071+671609182+670575589+669602012+668383339+667475180+666755135
3518+664796733+661155735+657453241+655369330+655262470+656656234+658232857
3508+658249878+656687389+655706559+656967562+659561572+661547948+662289009
3498+661855132+659929883+656920423+654825189+655580163+658901544+662013498
3488+661737987+657766789+653168273+651002145+651699397+653769839+655495874
3478+655705967+654505646+653346323+653366378+654178925+654934343+655581939
3468+656279487+656673180+656474779+656230867+656823701+657945431+658141242
3458+657178247+656548412+656772196+656305610+653941673+650846148+649457565
3448+650862503+653330634+653833334+651590983+648787916+647404587+647399481
3438+648004303+648780220+649382378+649548884+649403247+648987131+648025838
3428+646894858+646782818+647980992+649058543+648535641+646585823+644683366
3418+644136562+645308688+647594847+649380898+648721092+645051233+639990497
3408+636091378+634940713+636218810+638152052+639028168+638674066+638367547
3398+639082634+640148566+640158704+638944841+637732976+637490544+637979478
3388+638284443+637690202+636133337+634144742+632357063+631119297+630769931
3378+631665139+633447268+635011533+635681626+635733872+635630786+635593415
3368+636058077+637426605+638827103+638472187+636081610+633556866+632567082
3358+632988674+634075031+635420619+636427423+636316124+634842142+632368089
3348+629852966+628933632+630547405+633090872+633664983+631905278+630730858
3338+632375416+635475455+637186245+636842208+635899711+635208602+634025228
3328+631677720+629232085+628606911+630346415+633013835+634625980+634598525
3318+634018271+633887879+633990595+633737432+633235399+632891361+632683192
3308+632397098+631959891+631446610+631337900+632298231+634111515+635476565
3298+635315536+633647815+631061723+628457204+627044274+627404518+628785479
3288+629842087+630109384+630334352+631061353+631598537+631171839+630381122
3278+630290025+630857772+631336494+631474879+631341970+630552660+628748626
3268+626474899+625069813+625725475+628488063+631969660+634196248+634146444
3258+632298527+629653529+627161346+626067293+627274570+629826325+631421745
3248+630851556+628698156+625977750+623578810+622234259+621903023+621933216
3238+622100906+622574892+623191481+623599013+623493115+622583550+621221090
3228+620516919+620845601+621137689+620474590+619298690+618529767+618343539
3218+618334807+618294254+618371549+618669335+618776972+618005718+616360605
3208+614815543+614211868+614310772+614328718+613913527+613186711+612394736
3198+611815074+611494569+611027909+609964160+608360156+606640559+604999294
3188+603205473+601184612+599769758+600343611+603187676+606395722+607198723
3178+604719010+600790364+597610661+595509692+593745287+592493535+592485876
3168+593113010+592778259+591225021+589726988+588943116+588219667+586866383
3158+584858177+582504046+580311092+578849136+578409191+578898347+579762882
3148+580172042+579837957+579388429+579560411+580264582+580651541+579856273
3138+577617660+574452461+571188543+568329493+566087290+564828397+564827731
3128+565558912+565949757+565550402+564872280+564476811+564336909+564191087
3118+564005896+563808309+563381240+562444665+561140259+560097527+559636417
3108+559111221+557803782+556227158+555507336+555748510+556065907+555988315
3098+555772968+555482693+554784294+553672332+552613689+551875144+551251007
3088+550591607+550141783+550086355+550136233+549956962+549618844+549166874
3078+548112634+546107018+544008602+543284784+544085639+544946954+544674810
3068+543448625+541919141+540513722+539757454+540050911+540954481+541434129
3058+540865678+539449714+537805119+536494091+535847457+535903107+536353671
3048+536646684+536250992+534994097+533313573+531916998+530876930+529531823
3038+527684017+526126708+525492284+525448771+525340579+524788890+523575101
3028+521730255+519772482+518374796+517814301+517768309+517546597+516703930
3018+515474453+514486260+514192026+514521152+514815016+514335665+513068779
3008+511678826+510664215+509997859+509441619+508807307+507980773+506877210
2998+505555044+504476235+504267289+504815722+504982339+503869563+501991934
2988+500567052+500145719+500320143+500362879+499846120+498794396+497513376
2978+496336662+495398643+494530445+493474984+492272443+491257536+490698484
2968+490532977+490356814+489814043+489103211+488606137+487950326+486372371
2958+484158363+482666102+482686379+483605897+484351140+484434356+483830643
2948+482477322+480412689+478205712+476726586+476339035+476586870+476772098
2938+476527853+475740170+474445829+473107271+472445245+472631657+473059873
2928+473115967+472744918+472164886+471492351+470694493+469646951+468326413
2918+467011906+466086023+465660879+465497000+465153259+464311073+463128365
2908+462023359+461086968+460122234+459134893+458323085+457806400+457662909
2898+457791303+457593420+456427733+454521132+452851672+452036867+451770976
2888+451427753+450832624+450196277+449595968+448918438+448121172+447270772
2878+446555945+446303855+446528675+446531413+445584921+443987503+442819706
2868+442675179+443053961+443015147+442221951+441206784+440585755+440282086
2858+439795371+438925878+437832047+436708689+435820511+435483281+435610048
2848+435597208+434968187+433860702+432739157+431898562+431312869+430777683
2838+430146072+429418812+428643044+427948863+427567972+427445572+427108305
2828+426320105+425422306+424675843+423891342+422973230+422128121+421374220
2818+420471612+419343665+418178755+417330871+417225713+417895436+418601679
2808+418442093+417332462+415969372+414919610+414120123+413213556+412088384
2798+410978236+410125320+409488713+408825428+408017062+407228084+406656711
2788+406201151+405560400+404646543+403680255+402881139+402228104+401517088
2778+400604563+399591542+398711208+398057026+397531497+396969818+396216213
2768+395266391+394367445+393706899+393080542+392168535+390970101+389721271
2758+388612196+387763868+387238080+386914504+386502939+385772793+384731874
2748+383582393+382544137+381699954+380969216+380253722+379614822+379169881
2738+378766753+378040233+376941555+375865299+375094156+374485744+373793895
2728+372945530+371968178+370947166+370055250+369443879+369135658+369034423
2718+368919127+368471967+367493172+366111064+364708235+363629094+362949159
2708+362482462+361980429+361341935+360689122+360222351+359949578+359653383
2698+359166964+358506195+357708263+356789041+355863085+355064671+354379260
2688+353696587+352957080+352204252+351564944+351099357+350648275+350026173
2678+349344388+348871438+348591671+348154982+347304101+346180373+345134089
2668+344338376+343728818+343247505+342933180+342795720+342764528+342696779
2658+342359142+341569979+340436742+339314198+338508273+338085201+337890981
2648+337698353+337358718+336849951+336255378+335722818+335311734+334852808
2638+334141348+333268377+332543485+332090331+331724832+331258172+330742412
2628+330311754+329909810+329363301+328686289+328079616+327632530+327253193
2618+326877741+326525785+326170462+325780913+325463146+325308518+325129432
2608+324637241+323894737+323290802+323046446+323030610+323037196+322960936
2598+322750140+322418424+322038791+321608947+321039313+320334550+319634449
2588+319032772+318520489+318134381+317957404+317916888+317806883+317579769
2578+317375633+317217860+316956631+316554427+316157219+315853438+315581960
2568+315290427+315023204+314852591+314822324+314957527+315256867+315633836
2558+315916970+316016318+316065123+316238548+316431879+316323317+315797456
2548+315111045+314573343+314231821+313938068+313582005+313194047+312885974
2538+312696121+312481181+312075203+311600995+311428458+311712591+312152906
2528+312334064+312156939+311821263+311530174+311338027+311196978+311047456
2518+310886315+310771427+310723362+310641848+310412773+310104442+309934773
2508+309984206+310062538+309955974+309672082+309311357+308859423+308280298
2498+307673903+307178216+306813050+306520278+306264266+306035487+305837383
2488+305695187+305593341+305394182+304937383+304271082+303668942+303344034
2478+303251050+303238248+303245518+303244556+303124154+302771551+302209335
2468+301593967+301102961+300817477+300697001+300680147+300750690+300834664
2458+300742994+300373499+299893667+299565299+299450910+299417960+299349878
2448+299222168+299028800+298760966+298453837+298173515+297965864+297852197
2438+297815343+297744726+297510305+297156314+296881783+296791130+296816106
2428+296857066+296824468+296635577+296346190+296154745+296160110+296267562
2418+296371351+296452309+296501577+296507608+296500948+296495453+296427334
2408+296253076+296072343+296061206+296290096+296660663+296998614+297171799
2398+297165268+297068806+296971400+296895418+296842543+296802804+296673373
2388+296253650+295339719+293759080+291309449+287729429+282797457+276510092
2378+269167988+261252605+253178542+245131896+237165451+229484046+222522370
2368+216644313+211934034+208347595+205874763+204620421+204944959+207399678
2358+212381157+219915650+229886527+242354970+256795174+270672034+280116365
2348+282592433+278862540+272766342+268106737+265344815+262718299+259256257
2338+255280768+251406237+247913799+244797849+242214014+240608530+240234114
2328+240787967+241660512+242434301+243234990+244657984+247193089+250688820
2318+254439933+257757577+260450769+262818036+265249129+267912887+270758728
2308+273627916+276325142+278681030+280591720+282042188+283136574+284042032
2298+284867659+285651919+286430296+287222160+287980409+288618606+289090391
2288+289441311+289767329+290114419+290465524+290809747+291112843+291229212
2278+291004170+290510647+290047003+289822646+289751603+289633958+289420054
2268+289189721+289001273+288886699+288890529+289004215+289112203+289065711
2258+288832973+288569469+288462184+288505161+288550820+288545936+288563253
2248+288666079+288870400+289147447+289398926+289538032+289603395+289690588
2238+289807179+289891542+289948080+290088740+290425082+290932628+291439934
2228+291797903+292072322+292493878+293187041+294069854+295060729+296191044
2218+297442093+298685687+299874815+301116485+302508712+304041157+305675613
2208+307431286+309334982+311314605+313243111+315121554+317107078+319318051
2198+321694827+324079521+326373710+328575359+330666855+332581412+334340266
2188+336059382+337767730+339396192+340924011+342374535+343736329+344971616
2178+346041211+346948112+347722734+348261879+348351274+347976710+347361416
2168+346656912+345847547+344918556+343954451+343082702+342285140+341353966
2158+340191534+338953398+337799477+336801035+335993705+335290015+334645120
2148+334249946+334215535+334704063+336682890+341352819+348535466+356829224
2138+365265067+373594162+381470102+388630807+395386608+402211305+409274846
2128+416469777+423622528+430720072+437768701+444403508+450083312+454535784
2118+457650846+459392163+460020962+459965275+459655575+459886869+461978625
2108+467209715+476169495+488597996+503487562+519037267+532779164+542406411
2098+546510516+544608356+537541448+527631290+517016813+506228541+494859978
2088+482468886+468700273+453603575+437703690+421590789+406031426+391980679
2078+379863618+369499084+360789062+353741025+348135187+343683380+340068061
2068+336870116+333961299+331540048+329555893+327752599+326127652+324762861
2058+323624221+322767457+322234343+321895448+321730311+321898260+322534460
2048+323853666+326180934+329729724+334747539+341770859+351432628+364249531
2038+380530492+400046732+421921691+444996453+467847431+488535205+505051568
2028+516038315+521060940+520701879+516288332+509255577+500798569+491691967
2018+482207176+472491052+462836388+453360846+443851079+434080564+424025619
2008+413846906+403797327+394078577+384807023+376094078+368017776+360572309
1998+353751201+347598187+342152490+337408004+333316701+329826039+326901755
1988+324437064+322227164+320169783+318365454+316911859+315754645+314777960
1978+313902584+313096808+312352897+311633926+310879840+310096191+309363584
1968+308761962+308333395+308065025+307879686+307696122+307511153+307396024
1958+307386329+307365627+307128449+306617295+306017949+305563740+305330262
1948+305274945+305390648+305689600+306009439+306017838+305588697+304985003
1938+304492535+304141929+303889303+303804922+303964675+304282553+304543079
1928+304624185+304657986+304852520+305197760+305551141+305922763+306354475
1918+306623012+306471140+306089731+305956860+306257069+306705802+306915710
1908+306833087+306723100+306800211+307033522+307284483+307487787+307672164
1898+307869196+308043065+308141618+308224630+308425436+308724850+308912298
1888+308872633+308749123+308722944+308821072+308961861+309037474+308973591
1878+308802109+308653474+308668053+308965802+309624425+310534137+311273386
1868+311380097+310903188+310349427+310072676+310056673+310147363+310251762
1858+310358400+310507312+310730799+310982815+311175332+311294328+311493543
1848+312076979+313201262+314453829+315024240+314724974+314251950+314158818
1838+314391445+314658335+314863988+315187749+315789204+316523013+317095460
1828+317481309+317830971+318079915+318108776+318083689+318261776+318663943
1818+319143109+319606032+320094227+320715737+321512966+322358630+323028353
1808+323438807+323760977+324264010+325084290+326120548+327095383+327773616
1798+328230618+328875217+330110726+331866029+333379270+333908536+333814478
1788+334040889+334951231+336256044+337630159+339027734+340414356+341649421
1778+342783547+344158513+346064078+348322820+350192420+351056436+351156524
1768+351076084+351253986+352111527+353826424+355943118+357724581+359052260
1758+360334317+361743177+363285315+365171195+367524919+369958159+371855029
1748+373100454+374036660+374936382+375934861+377071207+378147500+378948207
1738+379853480+381596794+384126126+386056667+386365849+386075389+386287777
1728+387066431+388208549+389592803+391053761+392673898+394963129+398179352
1718+401542138+403647805+404280527+404514560+405103953+406225165+407966666
1708+410408120+413306947+416150716+418961923+422409886+426578743+430249897
1698+432612206+434268530+435595395+436705174+438192143+440511234+443576678
1688+447310697+452087448+457940603+463188418+466049466+467534327+469434045
1678+472469592+476480195+480757800+484727554+488672887+493063604+497457171
1668+500967036+503827603+507008121+510792831+514672931+518269047+521866272
1658+525931933+530917224+537375868+544821261+550110073+552117983+553915467
1648+557027495+560468649+562877505+564665998+566860062+569692804+573123006
1638+577150112+581177255+583818849+584893069+586095610+588562706+592120266
1628+596076330+600121307+604578886+609769756+615550906+621734002+628574942
1618+636134299+642932763+646540015+646677734+644902340+642381814+639617302
1608+636785966+634237245+632903350+633843996+637400705+642992113+649535415
1598+655835546+660812511+663867779+665195236+665550596+665641841+665809901
1588+666130110+666520399+666764608+666727162+666676471+667252728+668999262
1578+671883436+675014630+677250246+678990933+681786823+686494123+692841097
1568+699945856+707511430+715931066+725354473+735805330+748188912+763800039
1558+780598980+794463574+806037050+817177685+827787278+837101308+844449684
1548+849149806+851209888+851789698+852392597+853191602+851961828+847243501
1538+842461681+840489810+840124015+839428984+838100342+837235845+837457927
1528+838317096+839128533+839910074+841131708+842597105+843610052+844074492
1518+844185791+844003967+844193858+845579407+847962436+850692463+853803381
1508+857399755+859835992+859065996+856723076+855450011+855798341+856642117
1498+856465547+855225561+854489458+855195072+856900016+858712634+859764357
1488+859733868+859175149+858797219+858831334+858965574+858786192+858440600
1478+858561002+859485442+860918353+862246328+863018692+863428518+864117556
1468+865162249+865845144+865517091+864502295+863691153+863429406+863432440
1458+863162923+862242628+861109649+860359634+859799435+858966166+857765327
1448+856446455+855213203+854206842+853654044+853606312+853745215+853641907
1438+853031460+852000235+851090448+850618534+850121533+849060041+847762111
1428+847178527+847581619+848218855+848268584+847670422+846950822+846414525
1418+845735552+844617004+843499714+842950985+842751327+842045861+840531029
1408+838860200+837557312+836414787+835311188+834684830+834752543+835076822
1398+835119817+834723830+833987949+833137438+832449140+831897895+830958211
1388+828953557+826069827+824145244+825419345+830337922+837086804+843202076
1378+847499254+850418061+853040119+856094647+859473528+862600504+865233069
1368+867563187+869726132+871608016+872956564+873405093+872823360+871900400
1358+871760832+872723086+873870199+874315546+874477020+875324423+876904007
1348+878464054+879718766+881204737+883388329+885922989+887963017+889139213
1338+890034569+891589732+894227774+897485217+900388779+902474984+904302625
1328+906517520+908909577+911049952+913218744+916015595+919570454+923437900
1318+926814560+929042258+930349957+931637009+933330704+935154718+936976142
1308+938879857+940398611+940863568+940690551+941141744+942570437+943937263
1298+944267536+943695201+942880433+941976048+940517681+938140202+935133776
1288+932275428+930336710+929593059+929443648+928753944+926823367+923868224
1278+920609671+917803940+916034392+915459244+915806464+916702930+917746662
1268+918391372+918316407+917762425+917116457+916597847+916516666+917077235
1258+917725201+917441772+915886535+913363271+909954493+905865114+901881484
1248+898408472+894884324+890998082+887566807+885400754+884086839+882538558
1238+880280149+877840286+876157987+875750899+876282089+876863675+876820680
1228+876220519+875820388+876524004+878636923+881512513+883989304+885191770
1218+885126500+884812656+885583022+887939780+891244880+894502545+897177662
1208+899383307+901679827+904635192+908227348+911862500+915098704+917698708
1198+919071233+918896735+918347488+919339492+922397646+926198564+929238439
1188+931232141+932869372+934899410+937554324+940492446+943287595+945804939
1178+947982759+949549318+950195434+950139710+950434240+952263360+955638393
1168+959176009+961567697+962855563+963926897+965389853+967419298+969803215
1158+971955208+973655194+975249208+976644822+977148483+976598052+975766042
1148+975764488+977489264+980962425+984999780+988239832+990092929+990497871
1138+989891864+989469088+990568913+993549809+997460768+1000732863+1002483319
1128+1003179682+1003551323+1003878858+1004776435+1006820828+1009093668
1120+1010157898+1010533535+1012154190+1015780905+1020499528+1025033514
1111+1027930860+1028199638+1027169523+1027654017+1030518211+1033082472
1103+1032150114+1028194013+1024520454+1023378374+1025278980+1029856628
1094+1035286193+1038991721+1040248432+1040583885+1041435284+1042723446
1085+1043596231+1044108625+1045532063+1048621816+1052138416+1054102443
1077+1053969016+1052483490+1050396027+1048569497+1048002785+1048388560
1068+1048334983+1047855224+1048600578+1051013578+1053278943+1053925281
1060+1053919805+1054977967+1057111163+1058441062+1057508705+1055728352
1051+1056108503+1059605048+1064036615+1066685535+1067200592+1067242256
1043+1067986425+1069083883+1069784686+1069912933+1069272367+1067915013
1034+1067362214+1069262969+1072182812+1072389575+1068862097+1064381911
1025+1061352544+1060334121+1062034033+1066728900+1071875183+1073741823
1017+1071919289+1069496965+1068655408+1068324543+1066374650+1062792188
1008+1059755421+1058902098+1059414788+1059200994+1057502045+1055601734
1000+1055068842+1055978629+1056803831+1055590559+1052039327+1048278075
991+1046312050+1045800618+1045167379+1043584687+1041059351+1037889749
983+1034733690+1032135166+1029763533+1026635446+1022109082+1016781937
974+1012296275+1009687242+1008005831+1005558863+1002428039+1000050116+998517672
964+996445971+993451459+990675625+988779829+986968913+983907429+978920251
954+972619085+966835492+963495610+962882574+963483400+963735009+962925569
944+960700979+957464405+954963416+954674436+955926781+956869277+956594654
934+955231379+953275863+951833628+951850870+952513341+952110619+950629977
924+949692957+950233027+951621980+952670744+952750075+952127122+951402785
914+950632345+949363128+947637981+946254726+945642947+945286699+944810049
904+944756397+945515811+946392593+946575749+946025540+944785554+942712521
894+940382256+939170687+939908566+941785936+942822489+941778166+939400539
884+937082040+935283483+934223915+934546418+936152716+937421711+936653269
874+933956247+931115513+929653667+929390144+929177461+928802934+929258198
864+931000217+932874849+933190025+931666314+929661067+928425447+928050773
854+928204328+929018577+930721449+932818681+934232129+934241453+933166567
844+931740168+929758529+926495092+922656359+920491119+921394024+924498800
834+927939843+930357505+930957739+929659661+927750322+927064541+928207806
824+930136904+931346105+931305255+930899129+931534071+933937525+937702403
814+941552976+943995873+944481774+944112871+944223505+944571761+944133666
804+943078094+942593377+943198792+944444180+945649459+946069868+945445434
794+944797986+945325106+946469111+946448316+944818041+942889091+941578137
784+940679080+940142414+940480383+941689215+942873847+943352865+943496504
774+944174959+945743812+947896620+950122985+951546868+951385320+949985045
764+948218235+946292171+944303205+943309278+944098144+945179543+943992691
754+940633643+938546032+940491854+945604762+950734320+953357339+952948550
744+950609034+948399689+948441944+951209416+954447027+955522653+954819777
734+954182098+953636773+951977637+948764595+944767497+941114511+938298345
724+935985989+933926350+932977786+934616868+938991675+943885831+946574047
714+946893072+947238145+949030042+950506096+949040995+944644135+939907604
704+936981396+935408843+933259366+929523793+925078905+921710607+920305003
694+919883189+919110232+918220648+918077157+918426449+918284956+917143837
684+915242787+912956331+909960265+905233798+898742149+892828016+890499083
674+892118628+893759856+889338132+876649808+864135686+864974949+876810467
664+887330147+891218313+890214543+887484886+884541214+881777664+879295398
654+876984225+874823352+872965149+871032721+868047237+863843450+859871143
644+857581801+856540660+856003993+856927915+860165969+864258234+866474758
634+865499923+862408097+858790040+854551694+848641187+842054445+837831639
624+837203802+838049133+838281057+838477533+839448372+841012785+842751327
614+842204596+836875971+829564448+826141684+828552834+834809746+841978814
604+845442946+841276530+832165192+825774261
##END=
