##TITLE=<SNM>
##JCAMP-DX=4.24
##DATA TYPE=INFRARED SPECTRUM
##DATE=2/5/2025
##SAMPLING PROCEDURE=Instrument type and / or accessory
##ORIGIN=Admin
##XUNITS=1/CM
##YUNITS=ABSORBANCE
##RESOLUTION=4
##FIRSTX=4497.3318
##LASTX=599.83466
##DELTAX=-1.4281778
##MAXY=1.7421097
##MINY=0.18965848
##XFACTOR=1
##YFACTOR=1.6224661e-09
##NPOINTS=2730
##FIRSTY=0.20937704
##XYDATA=(X++(Y..Y))
4497+129048639+130205021+131243780+131350473+130552572+129628102+129234299
4487+129378877+129665647+129822432+129870034+129836989+129558733+128923117
4477+128166655+127788704+128144090+129119027+130185770+130775501+130685560
4467+130251218+130106455+130531053+131032119+130937301+130277411+129553535
4457+128931282+128322972+127890071+127776691+127746374+127586384+127457336
4447+127543089+127733672+127822346+127733185+127521846+127376909+127580424
4437+128236630+129001101+129253071+128692308+127720998+127093501+127193270
4427+127732184+128123131+128032326+127506839+126697182+125682375+124612739
4417+123909803+124097483+125170894+126286195+126577171+126184204+125885375
4407+125902026+125747630+125141890+124473276+124263654+124461061+124452758
4397+123844438+122987059+122461894+122374809+122510047+122843519+123511233
4387+124345109+124721508+124064484+122528985+121009365+120361489+120648920
4377+121184114+121344361+121219667+121206395+121249956+121034842+120636521
4367+120373667+120300560+120313409+120396334+120474841+120398979+120189853
4357+120007031+119891851+119756696+119583930+119499362+119621218+119903286
4347+120190101+120333569+120197302+119703546+118968272+118316198+118106953
4337+118421643+118838912+118790566+118294827+117893924+117785890+117673989
4327+117522402+117669700+118041699+118020300+117403209+116895190+117189978
4317+117993179+118472809+118373821+118178765+118380002+119014487+119731962
4307+120078687+119918091+119654071+119816228+120416117+120990960+121285490
4297+121442945+121462379+121077797+120381171+119899667+119787940+119700001
4287+119651719+120148083+121172395+121791782+121163137+119531654+117940599
4277+117214518+117449626+118306665+119435972+120498940+121118107+121169934
4267+121008383+121123250+121571231+121858129+121478957+120614387+120092123
4257+120487754+121518119+122485488+123009111+123192576+123397697+123858352
4247+124261799+124011840+123169119+122524448+122499862+122734428+122867508
4237+122900562+122829007+122676043+122689737+122952940+123160275+123104186
4227+122995977+123177008+123728377+124325740+124481661+124045445+123365194
4217+122928767+123028416+123586213+124118974+124220764+124064668+123987345
4207+123959407+123977913+124337569+124972349+125241218+124842300+124282509
4197+124123842+124285430+124311192+124064769+123974827+124517783+125542021
4187+126346324+126422526+125937524+125509766+125624386+126255125+127029074
4177+127686502+128261804+128897604+129692043+130658503+131643598+132359916
4167+132619372+132443300+131936200+131209623+130438108+129824213+129472695
4157+129333764+129242914+129066337+128877949+128867213+128993634+128997042
4147+128898173+129124198+129899552+130819898+131249400+130928640+130100540
4137+129268299+128879345+129048979+129463979+129636101+129415229+129202393
4127+129445730+129972071+130102047+129482917+128535541+127954040+128023169
4117+128591226+129456108+130460132+131314544+131676212+131438008+130782941
4107+130041614+129589105+129703128+130363964+131216631+131819606+132027372
4097+132075709+132197538+132331821+132380691+132437156+132535042+132568178
4087+132642387+133070530+133839612+134430068+134334653+133600710+132821490
4077+132593867+132917181+133229657+133126986+132795599+132562025+132364389
4067+132014386+131692054+131734614+132071585+132261938+132103179+131891224
4057+131929100+132051692+131940645+131705436+131717054+131991838+132220021
4047+132290373+132307134+132201827+131746774+130916700+130060525+129733537
4037+130227476+131201027+132018041+132427521+132628795+132841144+133133149
4027+133443568+133547598+133308779+133029541+133146264+133658847+134207368
4017+134521488+134503395+134059850+133183423+132157541+131458682+131402190
4007+131928761+132750403+133634352+134442302+135002634+135204770+135213624
3997+135314247+135504471+135503700+135197946+134778611+134460606+134396775
3987+134750131+135434680+135925258+135759702+135121625+134632352+134747458
3977+135501716+136554334+137366710+137596914+137396008+137186110+137196792
3967+137378007+137724566+138395982+139305674+139869909+139608259+138838048
3957+138299060+138262130+138484747+138948277+140061622+141816588+143248590
3947+143571656+143430521+143781296+144175145+143512059+141962453+140763410
3937+140751268+142164975+144917821+148107003+149960590+149510138+148012708
3927+147538634+148566492+149618935+149386610+148638570+149028920+150668247
3917+151680408+150245798+146815557+143564758+142104331+142565262+144713756
3907+149094908+156154340+164331938+170311171+172014283+169583300+163828952
3897+156753026+151941214+151960528+155809195+159041653+158500002+157012445
3887+158760853+163106187+166213372+167353543+168287289+167627106+163613361
3878+159657807+159942079+164043882+169006803+173273960+175813025+175136034
3868+172841822+172324895+173385604+172587565+168702253+164579858+163452875
3858+167067068+176300727+189478185+197190949+190280669+176119026+164723794
3848+159488211+160345452+165443748+172127525+178678332+184766123+189335535
3838+189822044+185995309+181322868+178099925+175547783+172776577+170773066
3828+170481282+171653139+174954332+181857448+190075530+193200219+190480317
3818+187371296+184638848+179048329+171688113+167108287+167868689+173502465
3808+180505542+184794429+187269020+191346449+195612687+195591894+192356093
3798+189754319+187334559+183543110+179918098+178667844+179916188+182913510
3788+187449105+193008342+198104416+202205411+207044197+213894614+220876659
3778+225478491+228754316+233991920+243439022+257316505+273297533+287190023
3768+296719967+302986208+307891323+313495361+321679094+331932960+341209107
3758+348023355+355345346+367679009+387490648+412458077+433777443+445621804
3748+454519705+467613825+483089645+492570233+495165045+499259979+510240836
3738+527701266+546331735+557888702+558227418+552652678+549571173+551894866
3728+556721051+559537645+558376681+555167881+552260106+549257255+545158169
3718+541754627+542439443+548780114+558608051+565552495+563601537+555040183
3708+546661707+542392383+542910338+546331404+549319193+550698046+552645955
3698+556838536+562872159+570494402+580501543+592496783+602150917+602930845
3688+594913678+585608509+579933367+578130790+579188927+582552720+588621427
3678+597532517+605237271+605459714+601314377+599985524+599410442+592374449
3668+579579295+567603783+559555867+555527794+555054511+557607149+562297444
3658+566828521+568097970+567138802+569918108+580512711+595618552+603773630
3648+597839014+585245033+574895246+569445449+567563997+566652219+565478139
3638+565306908+567793346+572517586+578181634+585584447+596083937+605718196
3628+606706166+600230156+594230552+593505914+599334506+609538117+618161849
3618+621587801+623387183+627108354+630963615+632081892+631302184+630794110
3608+630517701+629772085+629688839+631910770+636120177+640302398+643306756
3598+645850504+648542669+650454466+651290455+653288511+658749843+666630312
3588+671963505+670556108+664580457+659444615+657632449+657680574+657510775
3578+657561179+659062916+660983971+661852289+663319126+668527708+676922642
3568+682550467+679958667+671305324+662639564+657011372+654389521+654299662
3558+656609982+660406685+663267621+662836401+659821904+658241916+660805503
3548+665301826+667342643+665414682+661407476+657693138+655298616+653921637
3538+652843919+651909548+651490305+651530275+651467234+651103243+650682310
3528+650457699+650672170+651483251+652514608+652765522+651357023+648614013
3518+646234773+645762629+647101327+649118560+650832050+651205592+649490045
3508+646846225+645301431+644692698+643203818+640779466+639140846+638730125
3498+638401843+637634626+637027583+636984821+637179086+637112960+636792980
3488+636559332+636517305+636685634+637258806+638154823+638773402+638792799
3478+638456214+637618168+635662286+632838308+630592057+629956432+630386109
3468+630711085+630760386+631339729+632504735+633019715+632300404+631671906
3458+632656459+634740847+635664564+633971206+630683605+628052790+626845978
3448+625555699+622924663+620082096+618935238+619765422+621462895+622922826
3438+623541993+623568958+624008848+624866585+624535363+622605639+621000890
3428+620588700+619638165+617240557+615430926+616055052+618155090+619728465
3418+620225003+620344619+620499723+620274598+618815255+615728055+612074040
3408+609817245+609731464+610530789+610434795+608926224+606897787+605922932
3398+607109172+609733631+611733377+612161217+611849025+611628933+611498480
3388+611063072+609698988+607402040+605638955+605731863+606807120+606962848
3378+605855520+604767662+604778279+605775286+606667262+606285233+604730337
3368+603776349+605123754+608295338+611018878+611675112+610378330+607959635
3358+605267396+603109497+602064585+602416306+604084315+606073921+606687063
3348+605351597+603333777+602022852+601694018+601954300+602400656+602951859
3338+603808273+604756604+604848189+603505523+601532522+600404327+600998953
3328+603146234+605763714+607407697+607343371+605898649+603611803+600951856
3318+598911442+598321335+598294223+597235865+595817630+596510197+599770649
3308+603253507+605104834+605620329+605478156+604818983+604075609+603846994
3298+603970577+603811065+603266732+602807959+602869163+603432232+603928771
3288+603832703+603506882+603726055+604189714+603631898+601797984+600163111
3278+600335040+602392133+604826661+605900633+605146898+603590275+602601020
3268+602825777+604049231+605516326+606428397+606590114+606415760+606258525
3258+606035201+605428378+604146034+602225052+600551679+600406384+601977628
3248+603935126+604745436+604021054+602314911+600157086+597983978+596577977
3238+596533856+597304232+597730897+597445854+596902329+596418685+596117221
3228+596166596+596293339+595914690+595261762+595240564+595868401+596057891
3218+595236193+593934745+592665663+591551097+590987698+591399116+592335948
3208+592857468+592629477+591814833+590528852+589152057+588285429+587754101
3198+586650409+584825863+583357005+583270122+584507573+586047738+586597949
3188+585449511+582941141+579995637+577497700+576174614+576226046+576830150
3178+576817513+575985014+574924635+573881156+572735437+571541409+570322436
3168+568991893+567821487+567211321+566972456+566620001+566144072+565784820
3158+565419103+564749313+563750211+562559673+561356608+560578737+560669661
3148+561261496+561167118+559703440+557466667+555450206+554151918+553642852
3138+553632345+553434590+552606279+551517135+550784341+550444523+550030460
3128+549137786+547789462+546518800+545998897+546400837+547117725+547173198
3118+546091511+544315458+542638741+541474029+540814599+540523201+540366958
3108+540127506+539908002+539910463+539934709+539711458+539487252+539502645
3098+539236228+538095505+536493548+535315648+534776568+534621280+534787332
3088+535033250+534692220+533645948+532726897+532458900+532218419+531195255
3078+529536576+528085426+527372984+527170305+526972733+526676853+526501654
3068+526422118+526167861+525760043+525493111+525247267+524351690+522556901
3058+520741722+520013998+520337872+520696058+520320275+519117907+517306696
3048+515342145+513904807+513427372+513730380+514254838+514578014+514646749
3038+514507663+514027913+513132263+512111928+511303639+510584989+509534382
3028+508026399+506423046+505138608+504136201+503140700+502329472+502193618
3018+502646990+502946765+502575059+501662437+500611683+499688628+498850765
3008+497891267+496827545+495924768+495340538+495070815+495002264+494705465
2998+493655225+491930677+490170678+488816990+488015755+488026188+488925732
2988+490000402+490084419+488650425+486324417+484293445+483315100+483259517
2978+483390705+483020763+482035805+480846516+479926436+479460463+479251907
2968+478844897+477968241+476896069+476082821+475611411+475378241+475399291
2958+475371444+474534096+472679131+470635118+469160529+468141663+467294028
2948+466803736+466852449+467150791+467206117+466671813+465515146+464207380
2938+463447474+463324956+463122277+462262556+461043988+460139668+459779131
2928+459672814+459444493+458941305+458255314+457567780+456993322+456528304
2918+456030554+455268039+454186684+453132587+452570473+452573081+452805958
2908+452952428+452852650+452326943+451255947+449769896+448115553+446512898
2898+445330442+445021116+445566514+446294790+446464625+445850749+444753266
2888+443621213+442659363+441742590+440733239+439755225+439038521+438615751
2878+438270716+437766684+437094322+436429344+435881705+435462168+435174259
2868+434833560+433992575+432456745+430721212+429544083+429178145+429193501
2858+429011837+428509274+427997857+427670897+427396728+427073736+426710884
2848+426123238+425076048+423758509+422601218+421660125+420660362+419558581
2838+418601984+417916875+417407405+417020601+416865056+417012592+417246056
2828+417111194+416370134+415345097+414544375+414001842+413309165+412259220
2818+411103435+410169468+409539905+409146672+408916551+408727869+408392680
2808+407775865+406886681+405891180+405080723+404648842+404373828+403729644
2798+402477461+400982226+399839556+399320645+399190559+398964001+398363387
2788+397531146+396744495+396067578+395414466+394760767+394106700+393376110
2778+392515397+391602701+390750291+389974074+389261338+388662156+388157389
2768+387548178+386716745+385911211+385472938+385330545+385037053+384291951
2758+383225878+382203265+381492807+381067649+380615600+379819801+378696014
2748+377566680+376698547+376086066+375555326+374941706+374207884+373484200
2738+372925650+372483813+371950501+371241696+370485243+369832572+369329017
2728+368958046+368637626+368172461+367390990+366352727+365286140+364357059
2718+363629078+363128645+362748343+362226603+361441238+360614434+360036670
2708+359697513+359342303+358792716+358095961+357417060+356863102+356392022
2698+355863413+355215518+354589996+354187872+353980197+353688174+353110484
2688+352329196+351530827+350787048+350091432+349454999+348863532+348242822
2678+347567705+346930721+346382714+345774569+344936266+343986796+343244744
2668+342807206+342449130+341996345+341565530+341304366+341072445+340595524
2658+339893736+339306090+338997866+338720317+338244535+337727755+337368540
2648+337005211+336389644+335621325+335006236+334641988+334369105+334046187
2638+333690535+333346272+332944993+332377075+331649020+330911817+330376962
2628+330168222+330151213+329985969+329472716+328746754+328064253+327556180
2618+327208904+326923567+326612698+326317369+326108445+325863923+325363418
2608+324619639+323916528+323512898+323429101+323505073+323553970+323438432
2598+323092957+322553583+321940845+321367857+320882487+320484184+320135659
2588+319790184+319477992+319302205+319273036+319215763+318930941+318418716
2578+317887130+317539818+317386074+317244158+316905663+316325842+315657962
2568+315071822+314592991+314190536+313899763+313739589+313642309+313566778
2558+313553516+313619385+313691023+313623977+313249994+312528882+311692269
2548+311105909+310929497+310973031+310927807+310696033+310404855+310123412
2538+309763352+309309099+308925453+308739931+308680821+308609698+308504373
2528+308451215+308501949+308589383+308603967+308512970+308360327+308184430
2518+307984489+307763258+307567780+307446291+307352721+307161652+306829291
2508+306467284+306185658+305920729+305517135+304962810+304430287+304057829
2498+303822252+303674790+303640147+303692956+303692828+303563678+303406499
2488+303308356+303157293+302796664+302290647+301880974+301713379+301711102
2478+301681841+301511583+301285888+301171122+301167669+301124007+300973036
2468+300758271+300506346+300256387+300054021+299798368+299329897+298722266
2458+298256146+298102162+298159435+298144300+297826322+297272731+296799980
2448+296632827+296714089+296831097+296796086+296552115+296199017+295896524
2438+295751082+295795093+295965994+296086473+295992830+295693313+295318025
2428+294965772+294686625+294538667+294550129+294654535+294740610+294743127
2418+294672169+294627313+294745515+295001554+295149861+295050047+294914597
2408+295033680+295410511+295816731+296032341+295934657+295531559+294997017
2398+294572832+294382277+294381414+294478069+294636718+294853485+295089557
2388+295291226+295427410+295444823+295231399+294678947+293787375+292741453
2378+291899953+291612559+291960772+292717923+293614546+294571014+295600864
2368+296622871+297514314+298168105+298347125+297893422+297330592+297659756
2358+299242922+301491377+303898739+306751354+310441445+314551515+318150131
2348+320704680+322446311+324000693+325492879+326180046+325347841+323007616
2338+319649554+315912476+312406915+309430515+306843950+304376468+301984701
2328+299815634+297959696+296418888+295206161+294302484+293609807+293037498
2318+292498933+291855079+291075629+290359127+289891281+289635003+289499737
2308+289481809+289511805+289400970+289069252+288683384+288463274+288402676
2298+288275346+287943041+287569847+287435830+287613619+287940745+288239766
2288+288449682+288591395+288690071+288702947+288524037+288126579+287655004
2278+287292078+287106280+287084753+287169854+287198399+286977995+286509836
2268+286020351+285731249+285682737+285789091+285970334+286161660+286255689
2258+286175528+286010303+285936186+285986167+286032052+286011259+286046949
2248+286275747+286619716+286852097+286899267+286917654+287036149+287217006
2238+287413402+287668890+288030916+288499534+289055366+289683110+290394432
2228+291190248+291967182+292588498+293096333+293687855+294440891+295249492
2218+296082377+297103759+298435698+299947686+301388128+302639172+303797087
2208+305081525+306672130+308573476+310636629+312671275+314505924+316072503
2198+317517629+319111724+320991964+323075617+325210408+327315699+329346230
2188+331178271+332669796+333865404+334957854+335994206+336810431+337272693
2178+337438341+337510308+337677572+337939397+338140606+338193875+338115699
2168+337873234+337376769+336590008+335543736+334253935+332644190+330627839
2158+328320127+326013664+323876448+321820825+319646285+317238391+314686413
2148+312108647+309451528+306993267+305889374+307308104+311061347+315863689
2138+320751446+325532408+330223621+334848377+339534888+344341897+349167604
2128+353933835+358658736+363363211+368071838+372926935+378188161+383960583
2118+389962061+395812108+401523473+407416319+413695161+420544053+428510780
2108+438414211+451094708+467509344+488463286+513628104+541168708+568687379
2098+594050320+615536178+632512009+645778866+656340259+664538650+670375582
2088+673467300+673055698+668601623+659759084+646288556+628537646+607209538
2078+583118508+557688044+532419481+507952374+484672755+463360186+444564511
2068+428328086+414539783+402778999+392368412+383128672+375350039+369004298
2058+363756923+359394469+355710807+352515784+349895072+347959506+346587634
2048+345727545+345536990+346201601+347968286+351199275+356392794+364458013
2038+376604389+393541206+415123682+440807668+469761437+500452244+530801434
2028+558911242+583571402+604422113+621686991+635793438+647493238+657575580
2018+665812324+671036262+672692148+671466012+668245053+663176145+655875609
2008+646215376+634512710+620989208+605614965+588555520+570290805+551283781
1998+531971509+513092698+495433593+478993241+462985579+447048341+431813369
1988+417996080+405752791+395029461+385762353+377690006+370474332+363970769
1978+358148568+352912324+348132317+343765896+339977754+337097678+335191648
1968+333646598+331558389+328719312+325813079+323475977+321690666+320239405
1958+319169805+318487047+317848299+316911027+315735955+314673996+314002222
1948+313816076+314264415+315482395+316848243+316898315+314985306+312315587
1938+310377119+309438634+309007781+308707823+308421751+308207538+308215767
1928+308608964+309667910+311495138+313366340+314354972+314758749+315386659
1918+315674200+314423560+312129587+310543905+310506580+311429195+312210960
1908+312206845+311585033+310919799+310549783+310441151+310484575+310742432
1898+311391907+312321208+313033980+313497271+314507026+316247077+317313077
1888+316492371+314603608+313132840+312463894+312277343+312397290+312728364
1878+313089049+313367369+313706232+314803972+317813068+323021797+328225309
1868+329685754+326467256+321639859+318228895+316826421+316566617+316617571
1858+316653794+316687114+316822049+317097908+317629567+318735389+320752842
1848+324001685+328527287+332799147+333604754+330068481+325524032+323034361
1838+322735468+323160736+323573404+325051446+328959168+334264735+337579742
1828+337479927+336000158+334395703+331903901+328743411+326599987+326193124
1818+326665894+327155048+327943829+329807280+332552421+334680820+334942130
1808+333848615+333001091+333701777+336412091+340394021+343675670+344582929
1798+343782354+343867695+346921133+352354178+356075937+354144228+348557806
1788+344373785+343669939+345226452+347355953+349535453+351356619+352076372
1778+352244334+354069762+359350569+367194337+373207019+373361351+369068551
1768+363958793+360059888+358807889+360922658+364581082+366706909+367116748
1758+367608547+368217133+368704671+371100332+377285789+385388443+390506688
1748+390378218+387472096+385010198+384582468+386225570+388540997+389744247
1738+390682364+394779429+402929143+409262210+407384211+400605083+394292369
1728+389944868+388050888+388768804+391209284+395210832+402689618+415014500
1718+428620587+434941787+430879219+422744015+416398789+414030167+416305293
1708+422874028+431342840+438350252+444083733+452273013+463607574+472273150
1698+474067793+471100576+464686064+457071756+453168295+455002393+460765007
1688+469007262+481225496+496968137+506735789+503040738+494204849+489277783
1678+490634373+496963509+504567824+510437636+515957417+522869901+527826025
1668+526850399+523728703+524675454+530286270+535816558+537403819+537324982
1658+540563795+550555322+568095031+586527891+590278856+582587547+580119587
1648+584710802+586879685+579518753+568940094+563160618+564041794+571146302
1638+583347122+595749520+598559501+589988560+580736586+577810699+580639564
1628+585552522+590076876+594327758+597737840+598410826+597798419+600331367
1618+607246238+613429527+613053891+608827107+606514656+607624556+610327486
1608+612386195+613242830+613778015+614603460+615368620+615739701+616323490
1598+617942309+620293481+622060534+622516955+622382718+622710045+623626268
1588+624549985+625115221+625470322+625902643+626785656+629191272+634808223
1578+643852081+651940113+652714090+648729147+648054066+652726140+657964699
1568+659036245+657773813+658189015+662329944+672410889+691209981+714662558
1558+724498981+716820567+708650977+706914049+710300913+716634750+724284510
1548+732874518+743832304+758271147+774958813+791399679+802616534+799662286
1538+785400883+774123632+771100098+772215141+771329337+768312636+767920211
1528+772028370+778212100+784069385+790165313+796413554+799809308+799653469
1518+798628873+797082389+793901620+790724158+790896308+796796207+809289529
1508+825173755+831814862+820415423+804647653+796539268+796501356+801002822
1498+805409139+805576440+802031239+800016211+803214614+810431684+816294479
1488+815811240+809826919+803002200+798843564+798064959+799559349+802548791
1478+807516451+814933150+823772603+830568299+830334652+822921993+815246444
1468+812864486+815606541+819011479+819101852+818077550+821365664+830920167
1458+841774060+843330977+834008873+823880022+818386729+817109234+818105396
1448+819065777+818268288+816046798+814084377+813542212+815052252+819362465
1438+826023189+831311123+831378572+828365765+826484607+826116281+824998740
1428+822475711+820406386+820040558+821025038+823379590+827568424+831409064
1418+830278958+823960550+817175508+812809528+810490757+808948094+807944805
1408+808329589+810190689+811784563+811892644+812266627+815054750+819410223
1398+822727213+823922270+823235434+820756710+817802903+817001227+819136165
1388+821348324+819921603+815771490+813808408+816743921+822984960+829474490
1378+834918556+839966009+844922647+848513916+849749971+849783329+850168774
1368+851025997+852134354+853980832+856417382+857689513+856475867+853926241
1358+852087551+851589396+851512616+850805648+849397663+847788359+846250692
1348+844959311+844221337+844184306+844900017+846612258+849234256+851744868
1338+852958440+852720751+851702547+850719242+850642535+852017530+854498899
1328+857234047+859632757+861405761+862458278+863267449+864626941+866676575
1318+868866472+870733009+872054882+872835692+873685787+875380909+877762132
1308+879970397+881717171+883291649+884617343+885507629+886458531+887932495
1298+889287505+889585884+888903162+887786723+886266396+884302138+882174181
1288+879856145+877023276+873839054+870952549+868854128+867511609+866294877
1278+864427165+861856011+859316304+857609867+857312076+858597727+860710182
1268+862261294+862584507+862325217+862593397+863848115+865456390+866304943
1258+866064683+865497756+865406428+865889594+866624041+867248277+867418958
1248+866927710+866002083+865328692+865458080+866282093+867333581+868334005
1238+869206069+869990920+871108976+873210777+876310210+879384368+881301234
1228+882104454+882850510+884067683+885162668+885694694+886220842+887374606
1218+889232179+891825302+895053388+898165826+900489666+902320568+904211425
1208+906114919+907879694+909781646+912237592+915471042+919250478+922613683
1198+924512475+925121796+925668885+926769380+927881338+928660384+929822304
1188+932240044+935840938+939641240+942593284+944464597+946161335+949047399
1178+953596991+958584415+961834985+962262751+961333156+961882302+965074459
1168+969178284+971844880+972816135+973432730+974421324+975626667+977164922
1158+979444898+982103853+983928363+984284272+983760107+983218382+983206921
1148+984139160+986156613+988802858+991103921+991933737+990859252+989166555
1138+989119458+991470777+994628989+996818518+998034515+999354992+1001398822
1128+1003884305+1005961713+1006938846+1006925547+1006423939+1005698823
1120+1005593975+1007929130+1013242265+1018790444+1020829204+1019292640
1111+1018001258+1019938404+1024672636+1029596359+1031803815+1029952047
1103+1025952776+1023564206+1024253099+1026162545+1027728499+1030138377
1094+1035025950+1041356335+1045670589+1045428639+1042238759+1040695508
1085+1043629331+1049192131+1052917931+1052937769+1051615602+1051642714
1077+1052993536+1053895724+1053547237+1052736082+1051726548+1049719308
1068+1047171959+1046466975+1049196980+1054077499+1058133492+1059137663
1060+1056981712+1053917326+1052948937+1055216789+1059674979+1064740433
1051+1068969604+1070978681+1070054817+1067074486+1064122295+1062800055
1043+1063339575+1064976579+1066193899+1065418306+1063295638+1063012836
1034+1066376776+1071209463+1073741823+1072361685+1068259624+1063572562
1025+1060449764+1060417583+1062993071+1065614114+1065646222+1063002623
1017+1060342051+1060448809+1063927809+1068439195+1070075023+1067177056
1008+1062432978+1059406064+1058221881+1056641747+1054218496+1052878402
1000+1053687866+1055420019+1056112586+1054541856+1050901433+1047263876
991+1046255002+1047807658+1048248943+1044902784+1040462595+1039273931
983+1040956562+1041189916+1038147499+1034378349+1032053187+1029856457
974+1025378649+1018887430+1013185102+1010352821+1010164213+1011143844
965+1011680793+1010752227+1008600684+1005977731+1002622902+997590585+991082613
955+984770377+980060611+976972567+975045634+974302590+974711253+975459440
945+975558337+974642114+972729950+969986279+967031810+964853376+964277265
935+965470852+967167296+966810726+963243410+958680666+956390992+957166732
925+959219967+960829124+961592373+961781422+961828519+961918525+961517356
915+959845599+957192227+955046342+954344517+954427469+954532464+955152365
905+956611121+957737406+957572383+956911703+956800831+957139032+957178708
895+956215903+954277362+952541829+952036694+952024571+951101369+949422632
885+948161522+947587982+947094898+946447664+946146420+946840824+948540722
875+950111011+950176770+948874808+947346546+946047965+945143351+945333429
865+946891154+948450348+947810830+944248950+939465564+935923302+934657343
855+934873504+935230809+935072398+934740148+935281506+937344219+940033298
845+941355612+940068933+937274639+935447043+935541384+936409995+937028206
835+937913790+940044760+943149263+945950024+947673286+948686274+950157740
825+952678564+954659280+953750479+950642670+948678192+949141520+950184852
815+950641568+951430974+952827643+953602428+953249826+952719563+952834991
805+953336378+953287812+951844927+948839467+945263114+943015246+943495547
795+945936578+947782762+948038893+948717353+951404817+954876396+957445346
785+959207917+960684233+961094071+959339215+956432946+955355595+957662756
776+961096863+961688404+958368842+954098158+952394513+953723440+955418121
766+954595578+951094242+947671669+947165065+949787284+953292367+955540382
756+956700759+958449003+961174746+962821816+961536386+958894403+958091918
746+959101600+958350694+954121596+949742024+949489860+953256512+956853953
736+957115006+954971545+952714861+951273445+950998652+952374308+955083446
726+957644461+958768909+958591175+958232401+958669131+959766247+960288721
716+959277791+957039181+954703218+953149754+952174532+951107173+950384114
706+950799610+951281454+950225190+948184152+946423491+944382012+940964363
696+937324821+935836750+936811458+937881535+936998670+934678063+932626665
686+930860126+927377673+921294675+915216969+912737657+913901561+915001616
676+913431106+910253717+906271787+898966474+886457208+874762036+874750427
666+885000878+895577700+902133062+905779216+908373588+909318392+906802784
656+901408460+896215823+893513223+892849385+891929635+888778256+883723236
646+879320519+877548763+877895341+878697678+879169970+879149765+877974473
636+875702505+874196212+873578368+870779738+865307752+861495620+861711414
626+862834613+862187306+860864110+859394407+856930966+854486775+853098482
616+850866999+845786850+838874550+833119248+831814494+836234257+843298869
606+848187030+850197061+853336170+859531656+864683589
##END=
