##TITLE=<SNM>
##JCAMP-DX=4.24
##DATA TYPE=INFRARED SPECTRUM
##DATE=2/5/2025
##SAMPLING PROCEDURE=Instrument type and / or accessory
##ORIGIN=Admin
##XUNITS=1/CM
##YUNITS=ABSORBANCE
##RESOLUTION=4
##FIRSTX=4497.3318
##LASTX=599.83466
##DELTAX=-1.4281778
##MAXY=1.7131171
##MINY=0.26747277
##XFACTOR=1
##YFACTOR=1.5954647e-09
##NPOINTS=2730
##FIRSTY=0.29076248
##XYDATA=(X++(Y..Y))
4497+182243138+181759864+181518844+181508832+181083427+179821279+178277594
4487+177392434+177558606+178746186+180868633+183372420+185106297+185256872
4477+184091165+182559567+181506702+181243883+181450589+181437028+180774376
4467+179708455+178947064+179169629+180605197+182692695+184240246+184392688
4457+183425787+182256568+181361862+180602619+179974992+179902497+180595801
4447+181547330+181994945+181714754+181046498+180310530+179632598+179274514
4437+179562831+180250886+180465457+179742919+178757954+178501355+179014665
4427+179451333+179178128+178255684+177024431+175791161+174825212+174379970
4417+174703011+175739550+176715548+176701259+175814697+175000462+174581595
4407+174046150+173230439+172697068+172879397+173590242+174275402+174376402
4397+173841573+173433167+173894249+174747468+174837241+174152604+173858086
4387+174409894+174992280+174919431+174336073+173404569+172011608+170409402
4377+169206542+168677186+168628339+168810819+169141892+169647114+170285128
4367+170784745+170814147+170436543+170135580+170204545+170415809+170505152
4357+170691236+171347444+172302802+172916327+172873308+172488139+172167563
4347+171973428+171819005+171709245+171559530+171138683+170472258+170004656
4337+170141147+170800474+171516567+171886811+171849191+171569859+171155195
4327+170605311+170000958+169453334+168886993+168202935+167645691+167679164
4317+168442199+169564327+170496504+170839401+170553905+170078141+169940474
4307+170068073+169901359+169321868+168920971+169185845+169943705+170730631
4297+171207722+171208544+170803724+170251299+169742622+169478532+169888377
4287+171221787+172932503+173925406+173595640+172412113+171289482+170609140
4277+170180654+169918712+169921290+169967578+169715014+169365242+169353306
4267+169543331+169485145+169245899+169329153+169949347+170855671+171655859
4257+172040300+171958204+171664228+171354990+170985194+170716435+170958146
4247+171572717+171803557+171405593+171025336+171216034+171905080+172825451
4237+173620297+173697835+172808901+171571316+170782579+170447881+170029388
4227+169525773+169660358+170756353+172008750+172412151+172059054+171934182
4217+172664192+173952678+174992710+175187013+174648467+173961775+173411779
4207+172821603+172236751+172118585+172576623+173067349+173200720+173209948
4197+173317523+173219605+172564351+171614933+171102744+171468617+172367432
4187+173026236+173129346+173047531+173049511+172812226+172037106+171100110
4177+170760313+171458381+172977072+174569024+175497371+175670062+175606833
4167+175694588+175793514+175661283+175359966+175084501+174948813+175034589
4157+175290908+175380700+175047702+174623586+174683080+175203096+175503629
4147+175057397+174095445+173365585+173415926+174144049+174988731+175478206
4137+175575974+175573994+175662012+175649141+175298380+174864401+174913789
4127+175607300+176483606+176880674+176421124+175327463+174315638+173897350
4117+173900432+173974010+174174534+174643592+175092589+175073517+174628406
4107+174297201+174444974+174887508+175292421+175597343+175861806+176090704
4097+176325747+176541942+176463227+175882074+175048412+174421046+174241891
4087+174531086+175199136+175939550+176252878+175877833+175164953+174792355
4077+175066195+175657192+176005731+175797026+175099070+174280539+173787646
4067+173851866+174378251+175022522+175380438+175381223+175510055+176243277
4057+177286802+177855160+177699411+177347790+177290837+177415914+177424133
4047+177436480+177768114+178238816+178229607+177527056+176665637+176255643
4037+176325653+176540952+176813223+177345717+178089586+178538527+178297376
4027+177647482+177337367+177857962+178959243+179884677+180145422+179937315
4017+179678083+179449017+179162923+178862185+178530700+178059587+177643522
4007+177752685+178535202+179584928+180351848+180613864+180611940+180742603
3997+181076871+181290414+181120730+180757640+180677244+181131116+181886268
3987+182492059+182689071+182491350+182066711+181671231+181535151+181770138
3977+182432024+183420575+184254106+184371936+183790502+183057802+182531734
3967+182146528+181870035+181921254+182412803+183064191+183460904+183504446
3957+183413439+183319221+183167002+183142009+183790278+185264325+186715957
3947+187171399+186866999+186797082+187175134+187217630+186410680+185250652
3937+184651174+185209856+186870866+188783954+189668741+189045988+188036386
3927+188143661+189404129+190346953+190051519+189440647+189787094+190942004
3917+191546282+190563970+188367459+186225324+185053752+184975560+185993625
3907+188599177+193016575+197924027+201056768+201698648+200734810+198436758
3897+194845438+191440594+190231047+191666092+193913018+194697590+194409591
3887+195131587+197104524+198670680+199427382+200246979+200274923+198140783
3878+195501963+195117559+197219197+200140020+202735000+204178824+203440857
3868+201501338+200787803+201587468+201656825+199702997+197290814+196520307
3858+198330920+203027818+210010141+215131546+213187096+206407631+199998001
3848+196491448+196467165+199327055+203587304+207864774+211643747+214255482
3838+214143705+211080974+207299928+204740532+203460825+202774619+202470033
3828+202492373+202760572+204099119+207735457+212599423+214973911+213926127
3818+212422398+211348071+209010027+205450424+202752409+202520710+205117782
3808+209122738+211913030+213204168+215039737+217339246+217700879+216311711
3798+215423337+214984203+213647225+211803905+210919435+211479686+213126294
3788+215553252+218452463+221290369+223968434+227201689+231325540+235183882
3778+237416313+238579218+240635092+245202205+252626314+261484552+269264765
3768+274806420+279059421+283499196+289621986+298770615+310740617+323026040
3758+333230558+342159573+352595156+366622227+384280163+402278400+416176658
3748+426356857+436215134+445906268+451974757+454528941+458160963+465971194
3738+477955785+491867567+504525326+513125882+516712103+517334052+518140442
3728+519985967+521036048+519954884+518246989+517852480+518792129+520687117
3718+523975700+529009200+535769574+543694907+550334463+553030124+553558191
3708+555725674+560414763+566067449+570873621+573693575+574394015+573920231
3698+573937715+576164486+581346600+588675276+596311714+601618979+601932569
3688+598066681+593795823+590661307+588209113+586865018+587819610+591195164
3678+595205856+596663932+594321797+591864522+592200639+592931452+590225965
3668+584961737+580983510+579640648+579943404+580753193+581947068+584518512
3658+588923152+593386146+595929421+597917694+602641602+610894983+618063875
3648+618396107+613304887+608235522+606004305+606029858+606528449+607194519
3638+609622953+614569071+620241034+624801945+629092678+634102045+636875488
3628+634424078+630951353+632070847+638554766+647567726+654919190+657467509
3618+656475782+656613711+660268672+665484184+668871283+668923435+665934956
3608+661411627+658333038+658938175+662604269+666837619+669890132+672279899
3598+675424688+679351098+682714885+685115113+688214623+693351383+698419179
3588+698679570+693539672+688868626+688697822+691261308+692950075+692591804
3578+691658880+691852474+693389639+695366816+697607447+700855795+704597204
3568+706770664+706655973+705505546+703697828+700930886+698454745+698117171
3558+699936768+702214684+703418683+703119738+701813973+700828448+701654750
3548+704238709+706428009+706161865+703907710+701503970+699796225+698848955
3538+698996821+700334714+701672010+701317475+699394543+698131367+698746667
3528+699560192+699013334+698362245+699063917+700458223+701347885+701497320
3518+701079574+700087922+698738672+697337194+696019250+695549650+696946869
3508+699459323+700551769+699127278+697137399+696743637+697816881+698828781
3498+698923075+698542912+698315994+698461021+698936375+699363834+699130715
3488+698162151+697620373+698969101+701551864+702427928+700040775+696223005
3478+693539223+693131938+695183758+699003620+702620251+704360648+704584726
3468+704568737+704732891+704785492+704712493+704658996+704202994+702726126
3458+700648528+699329912+699124215+698492776+696156058+693318209+692447674
3448+694355812+697047887+697791402+695994967+692925643+689778164+687055305
3438+685468751+686553726+690849016+695696470+696925425+693767710+690081069
3428+689602054+692111370+694708031+695578117+695580284+696472711+698529986
3418+700031959+699080654+695803914+692069080+689353693+687810326+687118217
3408+687181727+687782606+688602258+689924834+692097248+694179329+694783570
3398+694467590+695043886+696216280+695677791+692744079+689513290+688291059
3388+689648379+692621542+695528057+696777185+695659111+693067008+691143179
3378+691184573+692122652+691794194+689922369+688902623+691108137+696192445
3368+701113197+702968585+701842142+700217483+699840831+700039430+699230538
3358+697249176+695638489+695535229+695867573+694785289+692376020+690265397
3348+689415783+689994023+691886620+693800959+693740363+691897155+690920895
3338+692251540+694398849+695548230+695695499+695324451+694369560+693244014
3328+692867736+693151215+693164216+693025092+693628885+694766834+695465219
3318+695606211+695739059+695819156+695570571+695761624+697531908+700487437
3308+702895585+703987957+704695234+705699662+706198477+705163563+702826995
3298+700446044+698983372+698275796+697768240+697668566+698375096+699215221
3288+699309589+699506545+701425218+704585175+706644989+706549052+705281991
3278+703839119+702618383+701948615+701510471+700189090+697765251+695543747
3268+694777294+695716195+698096399+701263678+703783305+704334198+703386555
3258+702872348+703792794+704929548+704437906+702172319+699475537+697169303
3248+695379219+694671643+695578043+697381875+698759518+699303462+699465898
3238+699676154+700045408+700259324+699648209+698123895+696893969+697108931
3228+697851475+697266436+695524022+694512495+694969692+695884385+696465015
3218+697102805+698233656+699274621+699145136+697671704+695897311+694763770
3208+694109692+693479150+693162946+693576956+694246650+694221171+693342417
3198+692335598+691652156+691096107+690442478+689665415+688781804+688029548
3188+687903424+688495262+689142018+689212178+688889248+688473594+687560172
3178+685812452+683733510+681937598+680422997+679216607+679014122+680317346
3168+682170119+682619919+680693998+677570653+675365587+674934915+675290346
3158+675119168+674231897+673171131+672083840+670775834+669455126+668415505
3148+667604072+667299673+668027796+669123156+668920372+667121546+665243220
3138+664158022+663096210+661409834+659719871+658982184+659387676+660403163
3128+661501363+662612413+663714647+664093391+662823640+660296840+658232841
3118+657797238+658440332+658909409+658716414+658003010+656758215+655149395
3108+653805674+652835466+651519764+649787511+648760069+648943874+649188350
3098+648367353+646828320+645458074+644535312+644049349+644191088+644851666
3088+645120276+644096047+642084724+640423976+640330131+641808867+643282074
3078+642831452+640511321+638587716+638652422+639699813+639968871+639393471
3068+638924693+638496038+637190124+635142712+633827010+634062669+634897788
3058+635125975+634737219+634000579+632456689+629889990+627275845+625814182
3048+625660824+625978822+625774544+624779418+623791054+623726124+624281836
3038+624192399+622931278+621348274+620321131+619693503+618952940+618160111
3028+617657112+617373484+616887932+615941746+614652942+613295547+611903894
3018+610228091+608288310+606697983+606043345+606086718+605871905+604739299
3008+603207887+602458320+602774711+603163542+602829741+602059888+601245877
2998+600108974+598453382+596775486+595514029+594425916+593277320+592549272
2988+592773761+593544473+593878909+593355138+592308756+591248961+590565818
2978+590457702+590771964+591117421+591125789+590445299+588966077+587341828
2968+586557331+586580605+586166894+584518699+582376919+580751138+579460765
2958+577795347+575964393+574979129+575349429+576522384+577455756+577322086
2948+575875778+573657561+571751628+570891404+570817583+570737747+570195036
2938+569223558+568030131+566845558+565789873+564739792+563531122+562268619
2928+561235574+560520676+559902163+559246890+558739221+558345310+557511499
2918+556022153+554621123+554036794+553980158+553726044+553043387+552129217
2908+551135062+550038095+548777759+547376131+545916859+544500475+543313100
2898+542580121+542359368+542509737+542821869+542960097+542449664+541077438
2888+539209311+537607814+536819767+536640557+536207531+534815356+532655419
2878+530603674+529373224+528982302+528929215+528750790+528336032+527734294
2868+526914567+525900724+524924165+524204186+523699544+523246792+522737965
2858+522047201+521126195+520182997+519356359+518442077+517453600+516942532
2848+517099551+517134930+516190462+514297380+512048529+509946312+508290010
2838+507224910+506769507+506851547+507223117+507468565+507248409+506459728
2828+505233313+503900426+502755042+501759617+500689960+499490593+498241838
2818+496934840+495518082+494122843+493115202+492786071+492914398+492853279
2808+492240146+491375215+490694762+490154442+489328327+487921208+486073404
2798+484318811+483273549+483115932+483220574+482621301+481048944+479171590
2788+477660613+476426951+475106803+473900151+473305362+473165416+472647361
2778+471322469+469697473+468446551+467623536+466863621+465955429+465015220
2768+464323185+464031077+463902338+463429488+462297143+460660865+459015135
2758+457846963+457315496+457146149+456864501+456203101+455267898+454297839
2748+453332861+452195548+450785776+449327326+448255502+447781194+447579494
2738+447071863+446036240+444743887+443560210+442667597+442048599+441527443
2728+440987272+440560635+440327927+439960877+439112944+438003948+437087201
2718+436317236+435277055+433905202+432598130+431601098+430721859+429736222
2708+428751294+428007518+427519014+427061556+426440727+425665943+424817338
2698+423848549+422750574+421820900+421360864+421121432+420514687+419386751
2688+418102131+416911954+415769111+414740586+414080531+413809605+413595240
2678+413171218+412615730+412099394+411574876+410858670+409943118+409097801
2668+408594765+408420523+408366988+408262570+407908110+407012582+405536984
2658+403892450+402489477+401355040+400411618+399761687+399453813+399275276
2648+398926382+398208981+397099873+395831317+394783403+394153832+393847714
2638+393700708+393616501+393512494+393323795+393012372+392467531+391558816
2628+390404653+389383002+388732585+388309795+387839261+387247535+386649682
2618+386133384+385689673+385288888+384876410+384331270+383613122+382920564
2608+382477377+382219302+381927418+381546134+381118749+380571929+379808987
2598+378889737+378000522+377330492+376929520+376605508+376093767+375362207
2588+374617758+374098433+373977839+374239500+374479568+374135306+373122883
2578+371974174+371174920+370658622+370113893+369487274+368923081+368411677
2568+367811993+367135463+366549453+366110860+365715380+365321992+365008776
2558+364775993+364523709+364262534+364122251+364131479+364192075+364215536
2548+364083772+363617534+362805279+361921258+361265312+360910067+360731604
2538+360545071+360241905+359902986+359703826+359659929+359592908+359354895
2528+358917946+358280306+357514750+356899488+356743403+357016608+357317196
2518+357262279+356815318+356200131+355593013+355013466+354486147+354127390
2508+354003844+354084390+354374668+354864741+355306957+355325263+354821703
2498+354082298+353452316+353040772+352737344+352431300+352149316+351963269
2488+351860122+351782042+351700226+351580678+351368854+351041366+350636135
2478+350255898+349994124+349766236+349356746+348762069+348277899+348117443
2468+348192534+348350038+348525176+348615249+348504330+348237962+347945667
2458+347626025+347188964+346641770+346104662+345706156+345517830+345516299
2448+345585973+345598376+345495901+345328459+345243243+345374821+345678062
2438+345912601+345822230+345316803+344522966+343700773+343086632+342794972
2428+342835767+343122272+343438963+343544576+343418116+343315977+343464591
2418+343761892+343904491+343761033+343479235+343256689+343159183+343170428
2408+343270474+343394842+343411429+343261658+343080468+343036384+343091077
2398+343064441+342862330+342515416+342123074+341854613+341841089+341954548
2388+341776571+340854033+338993340+336267044+332690873+328010114+321997589
2378+314856903+307122604+299291490+291693382+284500562+277704548+271247583
2368+265284110+260242428+256537929+254213988+253077645+253298324+255538694
2358+260305079+267493136+276851964+288524403+302085872+315012353+323584591
2348+325576039+321881179+316078872+311572130+308698548+305850313+302239155
2338+298307459+294684477+291500125+288555168+285970444+284311956+283951780
2328+284652930+285856948+287154269+288558344+290429609+293025709+296179782
2318+299487268+302639081+305519556+308140202+310572708+312956181+315490695
2308+318235745+320914221+323133073+324789001+326057557+327082383+327918361
2298+328666509+329429711+330206924+330970351+331768410+332653290+333561034
2288+334334885+334865230+335155695+335234634+335113367+334892091+334718784
2278+334560121+334250043+333822023+333505743+333382982+333346744+333340132
2268+333373120+333421350+333501559+333703857+334029364+334326143+334452116
2258+334444719+334501019+334770115+335175906+335527191+335776337+336019206
2248+336264990+336392122+336344377+336221467+336160422+336238278+336482268
2238+336858882+337247825+337517929+337636244+337679879+337796476+338132108
2228+338676388+339188727+339420164+339404250+339399692+339570870+339851621
2218+340104914+340292156+340458776+340626331+340748494+340783686+340792652
2208+340897518+341113415+341325463+341500938+341783258+342259583+342769306
2198+343084502+343213315+343405975+343861565+344503838+345073522+345379453
2188+345422267+345358532+345382965+345538714+345667004+345686468+345808706
2178+346252641+346891065+347428210+347789955+348109522+348462264+348824794
2168+349201184+349608918+349994722+350304912+350569487+350784338+350841235
2158+350752583+350773354+351077193+351483807+351730375+351852912+352086030
2148+352493241+352887862+353094718+353169847+353302508+353550122+353787911
2138+353915267+353964319+353990358+353995812+353989499+354034479+354222580
2128+354601062+355088296+355504398+355753282+355902718+356035379+356125638
2118+356132960+356137256+356296143+356674139+357152220+357538286+357744581
2108+357816945+357826173+357804206+357770956+357742751+357702963+357633551
2098+357607288+357766212+358117011+358448421+358583473+358605589+358692299
2088+358845396+358917311+358823429+358648552+358558330+358620981+358744004
2078+358817414+358846666+358908457+359059013+359270277+359400958+359337075
2068+359190815+359177964+359296354+359319553+359095662+358727379+358490935
2058+358569613+358801648+358827538+358585154+358427537+358633795+359048553
2048+359323775+359329864+359225596+359201163+359235683+359165224+358968007
2038+358828173+358888582+359099846+359326241+359467457+359503919+359529360
2028+359677637+359961041+360267346+360523515+360772474+361088904+361475380
2018+361821173+361977483+361932428+361863874+361966275+362285767+362724248
2008+363112966+363290346+363212079+362993119+362806026+362753275+362813759
1998+362889747+362997602+363368911+364091393+364676992+364443089+363412584
1988+362312890+361665462+361363715+361098430+360777294+360465198+360188220
1978+359919424+359663292+359441306+359192459+358848646+358578019+358686583
1968+359088527+359187154+358595988+357669565+357010406+356815468+356926237
1958+357146168+357286450+357176653+356825517+356422378+356136173+356022303
1948+356125040+356576110+357452996+358414387+358704740+357934737+356613992
1938+355483402+354753561+354267336+353957818+353837299+353768335+353542538
1928+353235374+353300901+354022599+354975360+355535705+355805473+356206631
1918+356384945+355586961+354038812+352839259+352635616+353062552+353256855
1908+352744293+351816748+351035987+350608378+350406416+350331288+350420837
1898+350717802+351119484+351418018+351669966+352265764+353193383+353628090
1888+352918086+351535885+350359568+349720733+349504762+349514101+349553141
1878+349518173+349458026+349527812+350110273+351807446+354738057+357657087
1868+358518693+356803139+354156941+352229899+351361905+351162857+351316290
1858+351647886+351944852+352027004+351901104+351824855+352160412+353128789
1848+354879161+357473991+360074388+360729998+358767764+356125002+354719751
1838+354667673+355039468+355332996+356122163+358161954+360911748+362618933
1828+362610079+361983908+361361959+360267981+358757154+357702029+357502384
1818+357758815+358073114+358600284+359723738+361346829+362715879+363176775
1808+362928040+362736950+363312723+365010233+367497058+369618441+370309840
1798+369927473+370055165+371921573+375069650+377164545+376273948+373685095
1788+372056102+372291313+373546457+374940949+376410719+377854786+378729542
1778+379123789+380258600+383334687+388039280+391965018+392689293+390687907
1768+387910766+385734504+385297294+387145508+390059009+391938306+392556146
1758+393139765+393881524+394610619+396445683+400497768+405623918+408891954
1748+409059284+407712275+406827245+407364577+409324980+411776576+413455443
1738+414742342+417851864+423615244+428561138+428537041+425380970+422603642
1728+421171829+421136338+422530904+424937670+428212804+433426449+441612024
1718+451055506+456783544+456424900+453371117+451331326+451656423+454498680
1708+459640260+466097840+472257335+478065695+485499237+495015980+503028023
1698+506779071+507908352+507555349+506327926+506572290+509949562+515893684
1688+523530682+533679760+546391353+556300999+558362308+556815803+557290783
1678+561566573+568891214+576691059+582628904+587616266+593590536+599422506
1668+602455929+603832376+607007052+612718055+618275400+621325522+623278528
1658+627126410+634817317+646954294+660315445+665985390+663916385+663333886
1648+666528288+669035885+666665470+661733660+658150428+657075466+658603515
1638+662322808+665413501+662850688+654526026+646140918+640712311+637470987
1628+634882246+632631154+631103478+629295014+625563243+620993926+618374177
1618+617975297+616618612+611958737+606308779+602506737+600768058+599771475
1608+598299538+596131906+593729735+591522577+589677725+588229361+587250523
1598+586824110+586750663+586497968+585685713+584405987+582932295+581444592
1588+580080623+578957804+578077070+577273071+576470530+576234086+577647818
1578+580887647+583586186+582575779+579340732+578003100+579481201+581205235
1568+580791971+579146615+578219594+579326348+584265780+594729681+607473066
1558+611312281+604532219+597136073+593183512+592173479+593134609+595205221
1548+598181297+602947795+610342072+620085696+631152568+640734726+642991273
1538+637983699+633874381+634970637+639399374+642963926+644863247+648065195
1528+654051495+661197113+667701952+674145523+681162104+686876580+689765088
1518+691095435+691937726+692301526+693023523+695662249+701410498+710863022
1508+722325225+728270430+722827327+713869509+709543808+710689528+714976525
1498+719115357+720430760+719388524+719276597+722466217+728370178+733659885
1488+735165071+733453814+731429639+731055678+732416285+734482899+736715087
1478+739772382+744411897+750337301+755848173+758172936+756383300+753617703
1468+753384659+756132174+759230863+759885688+759246628+761020424+766927000
1458+774174009+776138260+771177759+765067802+761409927+760269661+760562330
1448+760572716+758787862+755388435+751908837+749737020+749676424+751981163
1438+755725262+758158814+757064799+754164636+752341153+752006567+751736538
1428+750769468+749907152+750043512+751323125+753710353+757017802+759649729
1418+758840911+754383857+749300445+746065696+745048491+745264126+745753302
1408+746373981+747100983+747239435+746416794+745786925+746728890+749027801
1398+751378192+753115227+754224933+754483755+754260200+754909570+757032970
1388+759175945+759283539+757917776+758085591+761536573+767351396+773882909
1378+780597705+787426147+793429855+797509287+800125748+802774786+805967319
1368+809078411+811832501+814568884+816766926+816797262+814093232+810259845
1358+807140908+805198550+803901452+802706344+801403867+799913550+798247945
1348+796566650+794949088+793476479+792749253+793588705+795872000+798278355
1338+799603771+799875444+799889341+800398168+801896181+804494635+807788710
1328+811083980+813846738+815911111+817413906+818797153+820735327+823583936
1318+826875470+829847512+832399118+834963875+837703470+840431634+843089339
1308+845777902+848476926+851051172+853389459+855352141+856774988+857707763
1298+858458152+859131208+859231703+858069172+855565833+852396462+849328856
1288+846612423+843912503+840700169+836857069+832918107+829475493+826486715
1278+823623910+821108990+819608511+819390112+820059806+821039727+821920872
1268+822438366+822445464+822058427+821826354+822511215+824301150+826414164
1258+827969710+829000140+830114628+831560936+833122310+834641917+836222343
1248+837929117+839562892+840913563+842093279+843318274+844609917+846032465
1238+847728480+849574005+851436565+853548458+855908115+857911592+859348262
1228+860987716+863443683+866179991+868184142+869117140+869534961+870356257
1218+872273361+875372871+879115326+882688845+885444356+887310129+888951525
1208+891225182+894160911+896859113+898930658+901290763+904669045+908366893
1198+911382645+913709874+915714547+917340029+918790596+921017405+924540116
1188+928187754+929974775+929634511+929168871+930308015+932769587+935448138
1178+938051673+940781181+943441875+945772242+948025426+950459203+952831113
1168+955015034+957314617+959430844+960122206+959117777+958408483+960184595
1158+964189907+968080751+970037754+970665980+972117818+975339939+979049220
1148+981553754+982628193+982996625+982936478+982476367+982197222+982810803
1138+984439871+986837409+989640664+992114115+993515743+993946191+994151141
1128+994697999+996043439+998696586+1002258001+1004890302+1005223841+1004401574
1118+1004849506+1007443402+1010974257+1014062485+1016197466+1016910421
1110+1015973612+1014549718+1014320037+1015435421+1016555961+1016946285
1101+1017353123+1018737117+1021419479+1025366361+1030107118+1033936470
1093+1034295637+1030471068+1025360384+1022796076+1023879481+1026780915
1084+1029116438+1029887000+1030100991+1031947263+1036774917+1043613221
1075+1049422664+1051013551+1048003552+1043807935+1042086442+1043025941
1067+1044819313+1047294258+1051654927+1056965704+1059843826+1058769014
1058+1056069317+1054480522+1054282745+1054961106+1056913327+1059914210
1050+1062177182+1062307714+1060496485+1057558439+1054442790+1052358468
1041+1052255208+1054443164+1058445486+1062158279+1062364126+1058347980
1033+1053956304+1054058592+1059787564+1067675800+1073027448+1073741823
1024+1070488096+1064955780+1059617656+1057117232+1057684338+1058467603
1015+1057304100+1055623104+1055880880+1058304420+1061349237+1062760577
1007+1060274648+1054211240+1048143349+1044921900+1043607542+1041963456
998+1040279770+1040159475+1041087542+1040933175+1039276238+1037715014
990+1036762588+1034819931+1031048037+1027079785+1024853425+1024100720
981+1022852712+1019966296+1016163544+1012606911+1009169155+1004863926
973+1000027830+996362259+994125364+991394211+986899275+981500331+976589741
963+972785120+969875916+967040831+963543151+959465587+955230519+950739095
953+945833287+941080052+937338045+934971888+933611355+932542146+931555426
943+931151204+931591813+932355801+932904601+933371512+934043298+934943794
933+936031757+936916414+936925679+936300890+936239173+936865232+936409978
923+933434349+928991566+925648402+924966977+926488377+928484159+929135547
913+927451263+923853311+920136484+918361194+919241666+921581000+923565499
903+924400767+924158832+922898645+921209280+920499313+921179467+921608571
893+920199845+917463911+915035887+914136362+915172695+917290790+918501738
883+917656831+915976731+915472686+916655765+918550006+920059376+920490945
873+919558917+917970421+917298486+918443010+920311324+920434383+917401970
863+912699916+909388133+908740780+909328658+909958528+911554645+914702722
853+917473997+917647492+915724335+914018607+913676326+913664969+912462464
843+910218321+908529554+908461710+909771883+911604631+912885440+912568862
833+910987314+910066121+910883382+912438106+913634185+914596398+915618909
823+916988707+919673758+924203737+929136145+932210624+932589816+930838436
813+927838076+924874402+923584552+924648830+927101061+929298805+930064735
803+928945017+926155361+922698401+920144853+919651866+921047441+923107406
793+924640685+925178951+925209361+925842219+927632677+929942497+931975114
783+933655812+934836873+934889624+933944147+933067411+932381130+930768351
773+928110795+925936812+925264577+925715274+926687126+927651506+927938197
763+927572604+927459482+927901511+928137245+927834340+927728465+928577630
753+930399843+932723262+934901878+936061943+935303858+932560826+929354021
743+928054607+929548063+931983782+933007114+932715416+933237842+935881649
733+939963696+943646751+944806667+942276206+937167166+932240661+929637724
723+929559345+930831412+932260610+933316370+933479180+932001490+929499197
713+928410637+930227246+933297093+934697301+933799046+932570838+932349076
703+931692159+928566423+923627814+919445720+917282272+915802116+912557056
693+906907136+900990697+896721558+893415304+889494871+885391007+882903359
683+882623019+884058269+886047924+886367491+883755140+879883349+876879626
673+873473475+866123654+854890087+847887255+853752437+865905927+872562369
663+871771483+868391782+866360285+864832086+861249900+855929633+851814263
653+850789287+851594668+851750006+850097925+846707763+842638269+840814562
643+844117229+850945969+855204051+853042620+847318355+843627679+844262405
633+846765221+847031365+842622205+834061884+824993782+819798892+818943002
623+818181928+813951791+808292083+806024179+808694885+814018664+819707512
613+824678624+826988742+824961953+820096417+815414239+812933390+812864576
603+813528292+813127507+812114486
##END=
