##TITLE=<SNM>
##JCAMP-DX=4.24
##DATA TYPE=INFRARED SPECTRUM
##DATE=2/5/2025
##SAMPLING PROCEDURE=Instrument type and / or accessory
##ORIGIN=Admin
##XUNITS=1/CM
##YUNITS=ABSORBANCE
##RESOLUTION=4
##FIRSTX=4497.3318
##LASTX=599.83466
##DELTAX=-1.4281778
##MAXY=1.8423854
##MINY=0.3771925
##XFACTOR=1
##YFACTOR=1.7158551e-09
##NPOINTS=2730
##FIRSTY=0.40528676
##XYDATA=(X++(Y..Y))
4497+236201036+236543288+237091447+237373100+237115486+236507300+235744411
4487+234572956+232872065+231468528+231377255+232273624+232781174+232390550
4477+232119997+233001289+234679809+235999489+236524912+236715535+236793937
4467+236406735+235523237+234787808+234655458+234780739+234511036+233725064
4457+233061402+233233301+234109331+234722345+234310322+233195142+232445088
4447+232647122+233254700+233394154+232995523+232574989+232285573+231973369
4437+231913621+232652732+234146396+235579564+236159629+235890205+235306943
4427+234528683+233169488+231321901+229875168+229532916+230072026+230817286
4417+231410343+231882583+232333841+232823797+233385052+233906706+234050607
4407+233602180+232934350+232703380+233020360+233314743+233125094+232589093
4397+231902175+230822670+229227416+227699658+226990977+227234504+228037481
4387+228921674+229414878+229213382+228525196+227886737+227514715+227086574
4377+226273211+225250450+224481413+224101314+223772523+223224086+222651194
4367+222548927+223309992+224809752+226276564+226881327+226581751+226127626
4357+226221956+226854440+227480568+227730922+227816063+228155311+228706023
4347+228975395+228679848+227978097+227025957+225810212+224579286+223958074
4337+224324277+225333438+226334836+227048762+227483920+227440272+226701699
4327+225661691+225028130+224847686+224594275+224242731+224352345+224972654
4317+225380994+225110857+224434916+223745462+223253978+223323036+224265849
4307+225671192+226604191+226652164+226350919+226464320+227100226+227590738
4297+227217900+226088929+225037457+224570184+224406536+224177441+223919845
4287+223704524+223411686+222977814+222373068+221471037+220409665+219827707
4277+220312834+221668572+223067107+224041201+224854338+225648612+226016379
4267+225848180+225643767+225557148+225124266+224192570+223236331+222692514
4257+222586165+222698246+222827036+223051944+223730681+225083571+226821596
4247+228261868+228940032+229131384+229344656+229370170+228685458+227593691
4237+226761535+226029944+224864221+223455925+222417949+221992448+222212528
4227+223206926+224812566+226254627+226780224+226579701+226470556+226634864
4217+226429704+225601335+224727476+224211884+223799653+223285537+222878465
4207+222744829+222834244+223200569+223976745+224993896+225845679+226326655
4197+226467881+226240176+225643905+225009736+224806765+225195600+225972349
4187+226796446+227342590+227407428+227000356+226351927+225850316+225806738
4177+226156771+226555315+226790263+226873928+226797002+226512050+226125785
4167+225859973+225792912+225762969+225601178+225403869+225441351+225826156
4157+226356060+226670679+226540621+226046670+225525416+225310876+225456635
4147+225653406+225449132+224701458+223847209+223539191+224000123+224933991
4137+225944716+226654074+226620952+225758887+224706252+224202817+224229148
4127+224241324+223991179+223629821+223327743+223253526+223613842+224310851
4117+224868459+225024187+225090519+225473778+226066262+226358579+226077830
4107+225509454+225156416+225266794+225709612+226079740+225971290+225384642
4097+224737793+224338224+224124658+224020879+224061731+224059959+223694745
4087+223008018+222359607+221987758+221969313+222292216+222649179+222610308
4077+222313145+222445131+223224920+223953818+223893827+223135123+222257947
4067+221584455+221160136+221042723+221148950+221160066+221024729+221222160
4057+222133413+223463966+224542273+224918776+224615083+224022182+223548778
4047+223362394+223583794+224384842+225496288+226122450+225832600+225042963
4037+224355055+223996980+224046168+224599138+225502975+226236581+226254557
4027+225451529+224312987+223586590+223700373+224438286+225253351+225892904
4017+226494073+226980903+226840337+225836630+224493849+223521544+223185058
4007+223403558+223976884+224637332+225275844+226060270+227046366+227873189
3997+228083282+227531198+226391059+225045916+224024752+223728250+224115383
3987+224831672+225564912+226071664+226112567+225728474+225402219+225622351
3977+226353090+227109831+227525536+227666535+227691911+227470859+226927598
3967+226560821+227046261+228348712+229628218+230034387+229427418+228334452
3957+227391292+227007564+227471831+229053589+231692690+234522326+236063701
3947+235594518+234199527+233504758+233608745+233167630+231500244+229608922
3937+228998409+230424456+233508961+236742613+238127600+236901381+234567016
3927+233347866+233901826+234933584+235144632+235021192+235848485+237618173
3917+238586691+237044552+233474849+230136360+228726917+229435824+232068585
3907+236948068+243909547+250970671+255331383+255944658+253476379+248778400
3897+243455996+240110733+240485569+243644361+245946038+244903355+243128490
3887+244234604+247612920+250067547+251191220+252360400+251877027+248032168
3878+244153006+244220396+247975216+252851259+257225780+259621699+258543219
3868+255918587+255059544+255457272+253846022+249609983+245902042+245787999
3858+250569209+260302695+272259455+277491229+269758645+257081827+247531217
3848+243227909+244079362+248839990+255273858+261469495+266686992+270016988
3838+269775683+266260831+262370327+259757906+257570342+255038042+253114831
3828+252721080+253803312+257177077+264158357+272193558+274746769+271237649
3818+267557689+265090488+260713328+254503969+250119184+250096136+254370125
3808+260123831+264153650+267504107+272931140+278343706+278662302+274779197
3798+271157127+268244364+264734376+261598945+260711226+262422260+266100240
3788+271353673+277574373+283361479+288182186+293513883+300309872+306939469
3778+311940464+316986895+324632114+335730943+349578382+364053390+376091245
3768+384153350+388684554+390365609+390831579+392572036+395941893+398411144
3758+398630199+399533307+405174376+416610055+429916456+437793444+438974105
3748+440313030+445959762+453837896+459256576+462575334+468763451+480664162
3738+497653059+515476873+527798395+532425093+533416190+535501556+541084232
3728+551091953+564495099+577459405+586262913+589950307+588945696+585051614
3718+582221544+584100083+591323344+600886460+606721122+603462112+592366583
3708+579725198+571254267+569704033+573613712+577816507+578094998+575542690
3698+573793583+575120420+580203395+588719416+599103866+607479790+608628284
3688+602220799+594153137+589139949+588123041+590195971+594132850+599592902
3678+606274049+610507587+607571289+601005957+597436741+596012847+591280061
3668+582614843+574473120+569652170+567960589+567838417+568176830+569092270
3658+570515989+571504898+572585202+576626606+585407397+596026117+600579102
3648+594802173+584170600+575231510+569993015+567004507+564068139+561260475
3638+560926716+563924222+567861795+570732578+574007671+579127399+582494790
3628+579305776+573025813+570108691+572369412+578337154+585197721+589667057
3618+590808186+590702723+590182701+588256920+585582682+584957753+587015468
3608+588550244+587363261+585727469+586766400+590443650+594179468+596569343
3598+598956579+602652170+606578489+609045274+610879209+614240139+618650908
3588+619890205+614958790+607185632+601821734+600720067+602563659+605014534
3578+606565428+606973664+606379582+605332591+605815027+610102546+617794349
3568+624609583+625668731+620725366+613389555+606694304+601799224+598662907
3558+596751090+596067663+597328081+600091386+602159453+602371560+602403449
3548+603582234+603974422+601441080+597657880+595762459+596272129+597623837
3538+598265093+597080611+593883781+590318317+588710106+589569375+590972981
3528+590769905+589093817+587469280+586063728+584125372+582297897+581780377
3518+581983314+581317012+579798772+578885382+578975179+578826815+577629272
3508+576343634+576063475+575878949+574026846+570998911+569079660+569066842
3498+569724528+569822384+569372254+568987501+568927544+568783835+567970454
3488+566586405+565557478+565698721+566620448+566748247+564811037+561176618
3478+557298863+554531286+553653467+554373021+555042831+554109120+551975642
3468+550376846+550230045+550903571+551165284+550350237+548687141+546699040
3458+544761204+543409739+543181617+543674856+543838123+543553240+543579988
3448+543863342+543484737+542234428+540560459+538376542+535534001+532796229
3438+531311163+531599693+533234652+535016620+535710329+534950271+533135163
3428+530706069+528157165+526260771+525589120+525896061+526214709+525704866
3418+524335059+522627568+521082858+520127053+520125282+520819443+521190544
3408+520501524+519064118+517654433+516585071+515565628+514312018+513017800
3398+512165931+512199661+513305775+514912561+515596753+514513809+512647185
3388+511470554+510989439+510186549+508813199+507659877+507236113+507059890
3378+506496481+505891352+506159700+507415568+508814554+509632520+509839034
3368+509742151+509498328+508998420+508250450+507591235+507239865+507143086
3358+507458712+508411945+509483287+509763445+509302964+508970178+508918523
3348+508396591+507112691+505677577+504533426+503538090+502902184+503372079
3338+504946664+506381986+506561093+505617933+504351957+503398897+503034222
3328+502937130+502285731+500714377+498866651+497634752+497314541+497633189
3318+498064143+498038854+497222869+495726860+494232901+493634651+494119379
3308+494997614+495724151+496405493+497108026+497509940+497309678+496409315
3298+494932516+493429282+492534477+492305487+492476257+493064225+493990607
3288+494496455+493960593+493096079+493185425+494302932+495438886+496223990
3278+497231136+498494021+499020260+498105203+496216625+494496316+493955800
3268+494677473+495443992+494844144+492949105+491133545+490311029+490248363
3258+490468182+490868185+491262179+491033571+489786596+488052705+486898271
3248+486860998+487483147+487874223+487576314+486805313+485976683+485224128
3238+484460457+483709188+483174264+483004710+482968131+482519565+481422240
3228+480130870+479310612+479008604+478574627+477697642+477153548+477662627
3218+478358073+477754820+476043682+474864758+474923812+475106462+474015529
3208+471693253+469505828+468674280+469150219+469818987+469739681+468956001
3198+468027084+467206409+466351760+465350206+464312352+463435506+462826105
3188+462377747+461815693+460967749+459821339+458235361+456137663+454012314
3178+452433630+451363504+450589864+450240299+450255723+450089434+449395273
3168+448399764+447445210+446611856+445715175+444548062+443247417+442235164
3158+441666892+441262478+440743776+440125586+439571557+439091206+438369289
3148+437049921+435232660+433414356+432033573+431333506+431229502+431027955
3138+429998541+428536923+427851481+428246482+428680980+428209313+427005309
3128+425814018+425148446+425099710+425340927+425304071+424717839+423878163
3118+423157532+422438082+421374522+420065540+418997013+418353673+417822744
3108+417124623+416367135+415834643+415743318+416134845+416686860+416788259
3098+416170798+415292320+414751803+414540321+414236054+413719194+413260623
3088+413019093+412811327+412380234+411674054+410863210+410185028+409691754
3078+409147278+408366516+407614413+407288748+407200271+406720163+405782040
3068+405051370+404828147+404558514+403803180+402892222+402204140+401541798
3058+400608678+399560159+398795897+398493368+398461062+398361504+398044141
3048+397543712+396801683+395737393+394597688+393821164+393482056+393203078
3038+392687330+392068167+391609735+391267501+390684882+389605690+388230846
3028+387043030+386333272+386064681+386072462+386140513+385977871+385389695
3018+384456505+383532520+383139603+383521821+384053722+383614917+381929068
3008+379988280+378893734+378815123+379123801+379064121+378320703+377244428
2998+376472212+376234017+376167077+375805980+375079131+374227887+373371015
2988+372398780+371298849+370308169+369639262+369235646+368881878+368456795
2978+368037964+367746203+367486783+367020709+366347981+365718501+365179895
2968+364475035+363477962+362407698+361543184+360965637+360595404+360305345
2958+360005768+359708658+359468586+359231676+358856823+358339407+357858743
2948+357517759+357174170+356609684+355793004+354964096+354472177+354449042
2938+354632630+354591848+354093954+353229266+352294513+351581941+351155676
2928+350831992+350437581+349970083+349457183+348870778+348271277+347854669
2918+347677021+347444175+346831543+345948688+345213536+344804502+344520313
2908+344158313+343745492+343340035+342863262+342288772+341813562+341603017
2898+341490502+341180018+340642697+340053339+339496809+339002528+338644349
2888+338389965+338118873+337886861+337838402+337855528+337611184+336930848
2878+335944926+335011285+334517629+334558619+334800358+334811161+334452948
2868+333874428+333287641+332815175+332394225+331811225+330972798+330115892
2858+329604590+329534107+329639327+329570964+329187148+328602654+328028581
2848+327586337+327275748+327062841+326911698+326767919+326607675+326439337
2838+326191692+325759835+325209488+324738064+324433971+324239441+324058319
2828+323725985+323037173+322018147+321036602+320434808+320161389+319941222
2818+319685275+319479386+319260470+318855221+318335755+318002935+318001684
2808+318173843+318202884+317776585+316826547+315692851+314813608+314270799
2798+313867913+313531340+313363975+313354422+313260457+312866811+312260570
2788+311694209+311223793+310726629+310233320+309896366+309649312+309274841
2778+308764894+308223682+307548141+306636939+305758947+305248305+304984230
2768+304632963+304228583+304025160+303967461+303791654+303446988+302998873
2758+302355568+301474588+300618967+300082341+299801384+299450777+298838111
2748+298084271+297443536+297017723+296686222+296316441+295963542+295758659
2738+295650556+295424484+294978280+294417615+293897490+293517739+293279821
2728+293004873+292444625+291615231+290850883+290404748+290145015+289754530
2718+289144104+288548841+288188595+287948541+287538412+286914838+286364404
2708+286148874+286195405+286186096+285896975+285386367+284850158+284401175
2698+284047512+283774856+283551963+283312986+282994703+282569306+282046923
2688+281491851+281030519+280779331+280715675+280655335+280441821+280126786
2678+279865368+279694668+279524436+279275854+278956442+278661885+278485349
2668+278360589+278107369+277713514+277405722+277330168+277297949+276967351
2658+276257090+275495538+275064288+274958773+274892667+274759831+274676009
2648+274606621+274344786+273892138+273525031+273430076+273507298+273549904
2638+273435860+273129405+272651138+272107773+271658147+271384433+271250641
2628+271206976+271233394+271232716+271018003+270518581+269919844+269496168
2618+269332501+269281281+269171007+268978630+268797248+268730673+268827504
2608+269012291+269095088+268970067+268735137+268492582+268185554+267799671
2598+267525904+267525609+267699089+267827045+267808773+267693965+267584594
2588+267524845+267438557+267216410+266886056+266627139+266592488+266746029
2578+266885847+266823632+266551863+266250306+266130791+266260658+266533035
2568+266802998+266998189+267070408+266963138+266715755+266481554+266381684
2558+266441727+266632524+266846055+266924458+266830476+266681608+266568467
2548+266482509+266412322+266356099+266233510+265891189+265257715+264501148
2538+263937652+263683008+263498413+263108987+262552265+262105071+261988006
2528+262185471+262437823+262429781+262098888+261720648+261626040+261859616
2518+262120147+262051159+261623904+261172055+261020130+261195867+261505084
2508+261720665+261703001+261499126+261322382+261331118+261450372+261468523
2498+261291552+261069996+261023031+261129275+261111056+260790688+260311206
2488+259909934+259633875+259386509+259139664+258984196+258994582+259104318
2478+259159985+259094053+258971898+258856413+258721215+258531409+258336062
2468+258243938+258305996+258411668+258346830+258021860+257594015+257284382
2458+257133412+257001740+256746088+256351800+255955010+255735607+255719767
2448+255725794+255583526+255344514+255173570+255099336+255003686+254831440
2438+254670171+254604968+254618864+254676771+254792812+254951806+255052527
2428+254989392+254734522+254327051+253850329+253425194+253157645+253070784
2418+253126642+253310004+253638569+254069159+254438072+254553209+254377750
2408+254106015+253991868+254078156+254179103+254169047+254165347+254345774
2398+254730197+255267206+256043330+257323132+259503540+263141710+268951013
2388+277648017+289790640+305758044+325747746+349640076+376867387+406503158
2378+437551393+469245852+501025938+532021164+560745108+585793817+606699028
2368+623634291+636701176+645950750+651325139+652054212+647156769+636803374
2358+622103684+603735149+581342857+554777367+527181838+505092006+493856415
2348+495221081+507843500+526908140+544727265+555906303+560497047+561122636
2338+560355770+559862670+560259477+561513677+563048904+563643160+562186891
2328+558740507+554157822+548707427+541806634+533065653+522879346+511980085
2318+501003880+490433236+480486132+470956573+461254751+450742084+439139873
2308+426643829+413744344+401070444+389243585+378563970+368842417+359664541
2298+350753137+342071766+333737944+325864986+318442782+311424194+304890716
2288+299001933+293833816+289378218+285602435+282396574+279558931+276947429
2278+274587741+272561984+270849978+269343235+267966915+266717370+265598525
2268+264584188+263666768+262905460+262361261+261958809+261492474+260856221
2258+260192351+259680093+259245544+258654258+257857986+257066126+256467806
2248+256047325+255697865+255379008+255092684+254781453+254351818+253818197
2238+253343560+253060171+252916358+252808254+252765301+252831007+252855254
2228+252635713+252214468+251835307+251645206+251585023+251525899+251394730
2218+251201989+251033790+251005253+251162510+251417067+251606404+251635740
2208+251534341+251376024+251219583+251146808+251239835+251453715+251615904
2198+251620941+251556451+251596226+251810053+252087623+252244672+252222440
2188+252155084+252205523+252379072+252522607+252478386+252250004+252027197
2178+252000189+252166096+252372228+252480471+252420965+252189752+251876384
2168+251608314+251430875+251312993+251230838+251149657+250984723+250707951
2158+250450511+250377076+250482383+250605180+250608046+250471162+250264509
2148+250084759+249990082+250013721+250254956+250838946+251740126+252780134
2138+253830946+254904893+256066048+257378590+258927052+260801266+263045938
2128+265628104+268459008+271463079+274621836+277949956+281444399+285036560
2118+288582710+291915920+294877888+297311811+299105625+300201838+300476682
2108+299738925+297986797+295534359+292763065+289860063+286858372+283790679
2098+280695214+277577169+274509373+271706971+269345875+267352963+265507738
2088+263705379+262027294+260606458+259491051+258625374+257947018+257463385
2078+257198111+257108575+257081184+256982408+256762085+256541814+256523229
2068+256782667+257189357+257491574+257490549+257211363+256873349+256673730
2058+256663899+256790778+256942356+257001166+256933689+256812472+256767938
2048+256920297+257283930+257760096+258246196+258649377+258841320+258798905
2038+258718714+258802431+259019194+259202486+259294558+259408150+259655186
2028+259972740+260218977+260405570+260679146+261139436+261822759+262692501
2018+263484657+263798459+263521409+262978339+262575748+262466811+262552995
2008+262671745+262752337+262828360+262952338+263163056+263477535+263805892
1998+264005147+264209161+264863652+266070678+267138876+267290175+266624239
1988+265829842+265303742+265051825+265032841+265180979+265345062+265432983
1978+265472184+265500270+265522398+265576727+265832587+266576509+267859646
1968+269110806+269507318+268947366+268194394+267907670+268069079+268418156
1958+268878012+269377556+269725644+269865393+269974834+270253290+270785800
1948+271645833+273037542+275068283+277095637+277756554+276472723+274390970
1938+272989048+272611016+272757869+272974858+273122110+273240739+273419516
1928+273815733+274783956+276515832+278412521+279645410+280402220+281259561
1918+281604748+280442238+278456968+277372218+277841505+279084815+279938682
1908+279849111+279126205+278426295+278069592+277975210+278089688+278586643
1898+279607459+280876544+281808658+282350425+283244414+284732693+285693222
1888+285130786+283737427+282730089+282337016+282212968+282251596+282476696
1878+282789438+283093757+283513039+284683227+287640975+292584305+297408104
1868+298730181+295887466+291793643+289144052+288357802+288530673+288816512
1858+288932952+289017156+289254813+289638906+290206501+291288090+293312405
1848+296659092+301360788+305882057+307018115+303812219+299496006+297133920
1838+296915004+297409980+297908811+299452757+303277885+308310387+311342491
1828+311134031+309734454+308442077+306525710+303959749+302105492+301653105
1818+301990233+302478886+303395055+305349738+308068162+310144427+310428858
1808+309403266+308624415+309409623+312180813+316099246+319205966+319992321
1798+319205098+319292289+322146606+327218848+330826032+329442713+324858395
1788+321566315+321326591+322910485+324800070+326707545+328441263+329374627
1778+329967180+332154675+337470740+344992084+350661882+350850889+346907723
1768+342198558+338676099+337759826+340109962+343893682+346054290+346379121
1758+346723370+347344478+348102035+350769603+356894428+364557954+369237418
1748+369158633+366873526+365266392+365478291+367322960+369590004+370850283
1738+371954278+375986477+383713468+389713307+388127467+381999169+376153530
1728+371855380+369597542+369670352+371335359+374441905+380715303+391339303
1718+402955097+407747319+403086717+394914842+388598405+385965435+387341460
1708+392207847+398466481+403427493+407525658+414002896+423211132+429894085
1698+430456765+426727999+419783888+411786326+407229069+407820719+411904816
1688+418291805+428253395+440999653+447921115+443026243+434075169+428838758
1678+429153654+433712440+439254854+443257318+446899934+451407968+453673344
1668+450685149+446349900+446046536+449890353+453479092+453660318+452887858
1658+455676209+464864749+481114812+499050794+504859716+499770696+498433855
1648+503661478+507929788+504574763+498112672+495410887+498265621+506413319
1638+519321142+533636635+541104658+538605498+534562148+536004348+543460074
1628+554023110+565124579+576607153+588233507+597896110+605534555+614956011
1618+628702642+643049051+651242811+654115331+657109988+662128594+668015641
1608+673286720+677264381+680106331+682396580+684524117+686651029+689106073
1598+692260731+696103332+700191666+704100894+707890763+711787138+715510033
1588+718675182+721692071+725287201+729315162+733040836+736742403+742065380
1578+749849167+757344702+760229449+760508670+764122698+772617494+782253071
1568+789053855+794542391+802462628+814139802+829932824+851376745+876459636
1558+891608553+890936520+886316839+883788500+882821892+882302009+881635882
1548+881183529+882141939+884939911+889120162+894095207+895707170+886506298
1538+871032098+861069292+858757576+858608274+854835704+848639633+845265225
1528+846254620+849139089+851964922+855376290+858890691+859723698+858071996
1518+856995826+856574320+854893369+852489251+852293053+856830753+866391297
1508+876493401+876197923+862219592+847720685+840636304+840034580+842988594
1498+846117407+846065023+842670467+839971010+841439437+846401213+849895743
1488+847114723+839388808+831851727+827686345+826742247+827480281+829489503
1478+833664890+840293305+847884229+852980231+851499716+844019535+836579164
1468+833343428+833792863+834692705+833650578+832422813+834799349+842176568
1458+850577920+851170404+842450925+833082827+828103960+827261018+828377970
1448+828579239+826073479+821957980+818784424+818038748+819940491+824179448
1438+829268572+831705135+829481305+825847476+824374325+824681197+824259483
1428+822272911+820303221+819489111+819576163+820703467+823515404+826471224
1418+825875614+821418783+816779858+814200385+813217659+812496229+811454518
1408+810684734+810676258+810554468+809551316+809093614+811144451+815504433
1398+820148430+823149479+823099734+819559142+814671496+811703378+811592218
1388+812183799+810811595+808182934+807835836+811408804+816973068+822025510
1378+826507768+831616693+836767858+839721108+839885486+839149744+838975501
1368+839489617+841204124+844855321+849119428+850779954+848570227+844861157
1358+842469753+842197549+843120249+843920672+844198851+844469943+844946820
1348+845083756+844430272+843436778+843369665+845424045+849455340+853596754
1338+855891379+856231043+855851153+855650022+855811344+856357488+857411704
1328+859078621+861320445+863871573+866419504+869084779+872351153+876251836
1318+880077763+883199976+885583668+887376474+889019700+891711237+896464657
1308+902648293+908410631+912548988+915152430+916656984+917317623+917584199
1298+918023630+918596939+918787856+918718520+919212280+920433236+921382267
1288+921070045+919544163+917623661+916045950+914832844+913501701+912073986
1278+911240493+911120093+910804120+909612134+907967241+906796932+906797210
1268+908252158+910751180+913054003+914111623+914258632+914774069+916471277
1258+919123491+922028941+924637872+926660155+927968511+928694318+929405187
1248+930795524+932853308+934415596+934165833+932348572+930748698+930552361
1238+930943992+930385690+928644851+926628196+924925916+923643474+922930590
1228+922794696+922797962+922603223+922324558+921937234+921288197+920849323
1218+921295909+922219859+922418072+921599863+920719613+920644788+921637171
1208+923809103+926723308+929068441+930065966+930590364+931944851+934312981
1198+937020706+939420377+941106470+942242944+943577770+945500148+947774278
1188+950269408+952947884+955276760+956929574+958745793+961540639+964579343
1178+966660402+967748244+968209142+967913108+967405454+968148143+970447909
1168+972756082+973777853+973964533+974265499+974651295+974699788+974816784
1158+975831400+977573975+978827098+979104096+979598412+981484245+984125621
1148+986135954+987406029+988718623+990202542+991628659+993214082+994772201
1138+995375037+995276312+996530269+1000320417+1004900080+1007370129+1007041443
1128+1005492911+1004463637+1004835676+1006630289+1009313141+1012164748
1120+1014475909+1015928356+1017168557+1019215225+1022815358+1027895937
1111+1032956507+1035696884+1034774254+1031190101+1027815137+1027410931
1103+1030553500+1034944260+1037255907+1036456039+1034900977+1035053058
1094+1036561155+1037865412+1039429437+1043538058+1050330226+1055384821
1085+1054213957+1048781764+1045323083+1046183116+1047494598+1045906257
1077+1044153122+1046397169+1051440578+1054784209+1056176630+1059462596
1068+1064742151+1067342050+1065906624+1064523999+1065124959+1065050135
1060+1063152282+1062427031+1064451537+1066483268+1066611102+1067037471
1051+1069838779+1073193456+1073741823+1070974558+1067290222+1064957038
1043+1065059722+1067655036+1070765091+1071266215+1069022237+1067423822
1034+1068658952+1071103504+1072048366+1071176870+1069892969+1068974091
1025+1068240781+1067065122+1064750210+1061650716+1060112953+1062069998
1017+1065605310+1066922281+1065652067+1064206984+1062794763+1060083495
1008+1057558004+1058553722+1063437964+1068305532+1069129924+1066265533
1000+1063406075+1062859027+1063176459+1061711993+1058772846+1056881038
991+1056755219+1057289969+1058190367+1059253823+1058268318+1053423260
983+1046896000+1042720336+1042116735+1043091541+1043723418+1043826519
974+1043436833+1041896360+1039119925+1036340711+1034692760+1033928464
965+1033284985+1032234173+1030277545+1027608935+1024991111+1022408929
957+1019437963+1016644437+1014930485+1014101299+1012828028+1009909446
948+1005678618+1001810450+999442320+998013078+996316564+994098917+992220379
938+991613583+992058988+992091085+990793845+989238853+989048699+990025103
928+990343299+988813039+985965600+983111561+981176887+980564811+981242263
918+982474683+983314151+983635751+983766851+983331728+981784239+979713671
908+978129637+976830383+974888969+972441707+970822172+971109521+972849179
898+974082710+973181131+970648276+968659758+968842825+970772080+972347707
888+971493163+968050739+964153252+962318275+963124812+965189057+967122968
878+968425974+968690118+967328336+964582748+962012098+961302548+962672667
868+964688767+965546507+964370293+961680145+958894956+957099718+956385931
858+956834323+959215792+963563686+968021351+970032517+968550334+965054137
848+962259916+961589272+962053991+961791375+960290017+958253006+956169029
838+954023289+951690453+949761614+949826713+952735915+956503344+957641694
828+955509363+953192714+953025765+953969238+954573741+955688192+958281282
818+961226542+963114946+964213626+965117012+965460636+964953884+964071550
808+963800735+965303622+968587712+971374986+971276748+969412035+969127812
798+970952507+971709231+969308795+966015256+965310153+967257055+968523517
788+966893144+964220991+963567994+964924982+965941126+966084175+966970331
778+968975800+970766383+971605157+971338789+969574537+966980544+965516077
768+966355892+968602093+970481118+971138423+970936667+970621806+970430957
758+969739332+968168777+966623094+966061040+965877973+965007519+964127269
748+964664034+966212913+967201336+967076628+966265853+965729505+967338827
738+972328115+978872188+983533414+985057977+984499050+983087662+981524054
728+979913690+978148326+975794995+972317763+968872560+968567912+973050101
718+979420416+983564748+985521793+987060390+987151611+983900660+978480765
708+973960364+970866844+967749564+965221502+966054857+971393883+978507096
698+982576255+980435865+973513014+966750372+963724660+963461766+962504816
688+959399902+955482545+952148711+949438207+946731386+943554149+940507594
678+939194305+940400463+942992998+944597457+943134310+938059081+930051167
668+921467165+916477321+916430009+919125714+923007152+927103823+929709836
658+929775282+928123857+926146247+924216783+922427868+921472793+921271245
648+920436710+917523200+913447371+911336369+912235794+913210600+911024425
638+905295157+897280087+889371384+884432812+882919574+882728656+882977377
628+884842507+888186277+891124520+892418494+890738168+885808142+879998769
618+875059989+872062693+873499994+881274541+892297468+899858171+901741364
608+899839691+894636697+887426080+881137398+876765326+873448374+871795977
##END=
