##TITLE=<SNM>
##JCAMP-DX=4.24
##DATA TYPE=INFRARED SPECTRUM
##DATE=3/5/2025
##SAMPLING PROCEDURE=Instrument type and / or accessory
##ORIGIN=Admin
##XUNITS=1/CM
##YUNITS=ABSORBANCE
##RESOLUTION=4
##FIRSTX=4497.3318
##LASTX=599.83466
##DELTAX=-1.4281778
##MAXY=1.7892915
##MINY=0.25938404
##XFACTOR=1
##YFACTOR=1.6664076e-09
##NPOINTS=2730
##FIRSTY=0.27924186
##XYDATA=(X++(Y..Y))
4497+167571166+168500857+169749977+170538884+170671942+170520714+170494227
4487+170661373+170895333+171223597+171669378+171870057+171306044+169896842
4477+168213315+167216183+167634262+169250472+170858403+171236456+170274699
4467+168987951+168368335+168460063+168775773+169214829+169928068+170626695
4457+170809489+170497124+170133450+169839559+169215884+167989835+166641690
4447+165984965+166154990+166478926+166347567+165885494+165731940+166329200
4437+167389570+168043917+167702633+166660433+165700339+165360611+165614924
4427+165929846+165642430+164588086+163310405+162431845+161981790+161571777
4417+161056695+160736980+160993618+161882694+162927827+163317058+162667558
4407+161538030+160813524+160788826+161151803+161484878+161466547+161010035
4397+160448669+160199829+160191280+160005553+159607183+159494530+160014352
4387+160886259+161540820+161599784+160927553+159697569+158586032+158303033
4377+158706911+158857246+158097222+156753530+155722401+155654619+156562170
4367+157988486+159422207+160561751+161235161+161207852+160341793+159055349
4357+158241190+158375804+159007795+159444026+159562633+159647458+159855004
4347+160104452+160160054+159756408+158883536+157900872+157315612+157552273
4337+158674935+160024564+160516826+159805733+158782722+158471860+158910201
4327+159464396+159679363+159406809+158630510+157689588+157321836+158014150
4317+159445868+160746423+161165914+160557315+159490095+158897074+159335755
4307+160468538+161373603+161494053+161158295+161064045+161517481+162325416
4297+163112517+163530559+163423880+162975113+162535627+162349864+162634133
4287+163558011+164697215+164937221+163637578+161604362+160237099+160028963
4277+160453033+160953664+161455548+162089452+162927219+163956972+165068026
4267+166076961+166817813+167131001+166864080+166133386+165515935+165543763
4257+165935229+165876480+165188100+164534505+164419671+164758522+165371860
4247+166082219+166465567+166292162+165960804+165911479+166052031+166175968
4237+166353630+166576806+166593725+166356133+166148480+166146459+166246360
4227+166387842+166686848+167148885+167495767+167440093+167064239+166807977
4217+167018760+167596723+168139364+168385880+168458132+168597897+168698960
4207+168433201+168023493+168276160+169349408+170189624+169868102+168835148
4197+168137594+167984076+167820400+167443545+167321897+167835137+168745459
4187+169562390+169993882+169903799+169309687+168593068+168278825+168546551
4177+169247736+170212695+171229535+171963341+172199823+172100137+172077835
4167+172366235+172747079+172837430+172597656+172346402+172332613+172475239
4157+172447090+172014132+171402368+171159304+171560106+172388143+173293583
4147+174018733+174294793+173974326+173377514+173198922+173842216+174889442
4137+175452686+175115086+174293076+173641502+173465271+173763740+174422879
4127+175188626+175694337+175697145+175310167+174965163+175049487+175574996
4117+176299645+177083186+177858429+178342035+178194365+177536621+176879628
4107+176461961+176129047+175922378+176219810+177057934+177825290+177981955
4097+177711546+177543078+177649900+177819853+177814416+177549391+177227815
4087+177328450+178064169+178904671+179110411+178639932+178083180+177900546
4077+178142358+178662967+179241555+179669774+179887049+179906865+179731528
4067+179535160+179657291+180166829+180689691+180844585+180623036+180285723
4057+180112783+180213507+180392384+180327304+179985483+179658525+179575435
4047+179767261+180233912+180856782+181269406+181283874+181296089+181753012
4037+182370445+182465750+182009149+181747325+182230287+183162124+183802807
4027+183800231+183553698+183729893+184414410+185004677+185077483+184909157
4017+184837138+184634939+183994436+183131488+182414297+181886339+181604555
4007+181893170+182819570+183955627+184960145+185828636+186426826+186458088
3997+186037273+185633019+185369013+185030036+184753726+184998542+185758817
3987+186462022+186731769+186672412+186433318+186115069+186049095+186548492
3977+187409562+188162396+188662276+188982546+188993384+188527144+187764813
3967+187157752+187104082+187729098+188771155+189719768+190196542+190148576
3957+189728209+189202539+188909454+189050238+189502153+189902902+189909250
3947+189493890+189032622+188920399+189109059+189200393+189011948+188783066
3937+188786482+189010141+189262755+189454921+189652130+189850698+189867169
3927+189563710+189036860+188518845+188304772+188736835+189908589+191353093
3917+192317962+192455367+192047357+191632587+191598303+191903980+192103871
3907+191868569+191382459+191065945+191126143+191507631+192050326+192575137
3897+192976708+193264858+193413511+193236064+192568126+191731880+191471791
3887+192023052+192748989+193068686+193341760+194061169+194841866+195022622
3878+194701744+194317288+194049204+194053371+194511778+195230776+195776118
3868+196091112+196361234+196523533+196460366+196429194+196827385+197685021
3858+198704061+199588040+200085005+199925461+199328433+198819754+198588941
3848+198680329+198944657+199013851+198684245+198288808+198409562+199287657
3838+200642562+201977741+203014165+203743553+204230754+204587239+204896224
3828+205077927+205055214+205050045+205357957+205837611+206197172+206765835
3818+207802044+208556971+208259772+207543260+207507420+208368812+209646171
3808+210746101+211398838+211860249+212477897+213220949+213914068+214740728
3798+215766528+216524800+216728375+216902281+217722789+219118380+220425964
3788+221363434+222471413+224360142+226941848+229774272+232628425+235385628
3778+237947053+240544139+243675604+247568899+251897549+256002915+259596149
3768+263237492+267593415+272629044+278032246+283882410+290403820+297433678
3758+304606000+311822944+319144975+326832523+335780440+346568782+357558141
3748+366737873+374476999+382367317+390974613+399625867+408065337+416541255
3738+425538497+436249006+449363220+463252535+475110350+483248794+487863733
3728+490468169+492874592+496224620+500493930+504770715+508206730+511130363
3718+514731950+519516610+525116681+531490386+539104466+547924261+557071586
3708+565604305+573151784+579584327+584601553+588302254+592171745+597872469
3698+604922660+610871509+613644271+613824329+614541556+618387297+624126615
3688+627844233+628530127+628693660+630177260+632548844+634094752+633604368
3678+631183495+627986520+626168629+627136020+629976313+633310138+636734671
3668+639953894+642028243+642677510+643013303+644487746+647168155+649615854
3658+651297682+654126171+659433049+664387752+664784066+660468329+656578020
3648+658159625+664874703+673464328+680866373+684634783+684157276+681945290
3638+681746561+685095551+690463879+695256909+698023448+698660625+698085399
3628+698285415+700041641+701954818+703036668+704192987+706731109+710283049
3618+713508281+715938740+717593956+718796202+720420872+722096404+722084243
3608+720626468+719883989+719994155+719456342+718750204+720513512+725731827
3598+731527444+734273738+733922779+733296618+733448348+733155762+732620811
3588+733464086+735493868+737052438+737673233+737934199+738231506+738850226
3578+740004471+741148700+740949972+738691415+735728937+734100905+733850670
3568+733226083+731881837+732039790+734877436+738878984+741886601+742869373
3558+742541735+742530432+743492028+744289734+743568286+742077676+741757478
3548+742997781+744653283+746182094+747807479+748894193+748349942+746325954
3538+744128275+743120323+743901504+746004254+748425556+750257754+751090727
3528+751322864+751738778+752802314+754370971+755455753+754390858+750800145
3518+747263228+746638641+748275758+749165317+747810841+744536035+739923492
3508+735508104+733954398+736823735+742520488+747054627+747869573+746023068
3498+744208110+743626589+743147936+741940254+741830159+745147316+750640904
3488+753670698+751585833+746975150+743969893+743812942+745141450+746224587
3478+746328529+746430469+748433854+752171146+754284555+752128009+747429408
3468+744050300+743669010+744910243+745971418+746463805+746283962+744701427
3458+741605963+738331729+736255734+735637227+736146926+737404971+738954670
3448+740292263+741247278+742359101+743850355+744792422+744287659+743275486
3438+744021185+747137967+750100802+750117327+747550949+744777256+743387656
3428+743828179+745406636+745896591+743983056+742152503+743370630+745720897
3418+744408628+739252549+735125883+735393645+739195892+743781179+747049548
3408+748572349+749767799+752351418+755696903+756954519+754859423+751925489
3398+751207261+752357141+752788722+751941942+751964190+754094553+756489244
3388+756057234+751874769+746271443+742768220+743315404+746577763+749374276
3378+750495041+751886001+754881957+756990716+754776655+749056796+744302324
3368+743741262+746756319+749936053+750537105+749355319+749414122+752103973
3358+756062742+759230602+760343856+758919989+755255594+750835699+747730219
3348+746939524+747576416+747911923+747872649+749387653+752960768+755612419
3338+754286128+750074048+746609812+745721898+746634420+748189843+750044503
3328+751818899+752454431+751787781+751261342+752080580+753657607+754780590
3318+755370625+755762717+756031481+756462275+757533393+758886939+758976432
3308+756671233+752542851+748384351+746060911+746598724+749460835+752395700
3298+753244626+752427104+752173650+753111567+753576484+752514951+750774034
3288+749192573+747947405+747942540+750328218+754278975+757007456+756846570
3278+754873731+753127019+752847740+754366035+757018759+759144543+759546150
3268+758867052+758459221+758206911+756970185+754659693+752433471+751504066
3258+752263428+754091763+756390309+759117717+761276766+760574633+756506413
3248+752148540+750779686+752446419+754755481+755517132+754447515+752886942
3238+752209275+752365511+752326667+751766892+751387748+751980715+753854977
3228+756548619+758741505+759258572+758058187+755641892+753021288+752400063
3218+755293293+759688436+761326913+758582908+754102851+751266636+751197317
3208+752621899+752949608+750794136+747535282+745258341+744300893+743797561
3198+743494460+743709356+744204605+744123697+743101080+741679860+740391055
3188+739397983+739034505+739796228+741127955+741426621+740501222+740273878
3178+741816209+743345449+742661916+740460446+739261634+739921274+741347787
3168+742736887+744066897+744686834+743494317+740359937+736056933+731918178
3158+729608902+730043487+732453129+735290632+737561994+738567299+737552622
3148+734548010+730793406+727816550+726348188+725937996+725338232+723665347
3138+721368804+719870111+720296755+722287622+723915940+723693532+722288409
3128+721322663+721371809+721842735+722029660+721542925+720249541+718550330
3118+717231623+716797610+717365468+718706566+719948443+719739699+717353307
3108+713524877+709914206+707932568+708063194+709786084+711894127+713111610
3098+712881047+711553040+709573405+707050020+704510109+703030015+702924355
3088+703196552+702837224+701874912+700922759+700463350+700555918+700750427
3078+700647557+700718235+701792788+703683646+705002782+704401016+701836211
3068+698679225+696521463+695694070+695127857+693831398+692119095+691081312
3058+691233686+692155507+693296446+694433093+695064690+694167906+691343137
3048+687857011+685694742+685616410+686721580+687793701+688230504+687770380
3038+686525856+685205002+684213718+683056755+681515998+680221684+679339065
3028+678188540+676569808+675185287+674642037+674861297+675255321+675121261
3018+674188280+672732651+671138170+669810878+669088357+668621938+667767575
3008+666833807+666554814+666530133+665725560+664165345+662825391+662404541
2998+662972471+663943152+663933351+661767292+658176221+655392013+654565407
2988+654781233+654806414+654494800+654196277+653935669+653583923+653259790
2978+653369885+654207008+655234775+655263462+653895179+652117564+650964392
2968+650340664+649583448+648566697+647755185+647389489+647045183+646108982
2958+644455054+642391721+640182167+637970896+636034184+634765266+634288903
2948+634231316+634013773+633318150+632310770+631559063+631417062+631294162
2938+630315755+628844603+628017925+627627549+626295607+624122680+622957347
2928+623653471+624894489+624895133+623184119+620537118+617909575+615831362
2918+614515230+614033216+614173786+614535618+614984082+615611316+616235259
2908+616362236+615667186+614351984+612993359+611964232+611092700+609992394
2898+608452853+606521720+604638588+603412878+602741936+601722466+600009270
2888+598478742+597982993+598210480+598185370+597377971+596056581+594806156
2878+593934517+593340834+592659482+591600489+590475467+589998782+590197654
2868+590188247+589455998+588455450+587631025+586807817+585672958+584102048
2858+582064111+579741172+577626690+576254401+575886309+576346362+577012619
2848+577102862+576232368+574770945+573473412+572599163+571728096+570596958
2838+569464568+568562740+567842580+567191060+566350432+564988016+563384056
2828+562427217+562403789+562459981+561719039+560325218+558934438+557784163
2818+556790555+556031121+555599862+555305953+554890111+554348006+553767163
2808+553098581+552326557+551657654+551275040+550916533+549980547+548228471
2798+546145179+544406015+543244187+542459358+541748999+540897354+539826557
2788+538625885+537513776+536701799+536233877+535915789+535420934+534502081
2778+533166276+531664220+530238172+528948866+527863297+527135089+526671102
2768+526076310+525174626+524290146+523831560+523783202+523626894+522724673
2758+520948918+518887838+517212449+515998078+514851488+513455664+511843119
2748+510327757+509264329+508719291+508323049+507606716+506539961+505542918
2738+504892972+504366605+503579773+502431609+501040578+499481865+497867281
2728+496527184+495736740+495243673+494446289+493217575+492130432+491593120
2718+491257148+490580446+489459681+488030771+486346905+484513884+482834775
2708+481636965+480960835+480478499+479829661+478984670+478106021+477186917
2698+476128532+475045001+474146250+473397726+472552341+471504221+470457281
2688+469643516+468948322+468076755+467078031+466310335+465889520+465571325
2678+465110736+464426523+463581639+462810331+462341265+462075434+461634518
2668+460794570+459756107+458890978+458247792+457511357+456509200+455403886
2658+454302328+453176162+452234739+451783843+451674714+451436926+450889957
2648+450163823+449290897+448206150+447027261+446047638+445486719+445325868
2638+445330661+445204828+444742844+443866806+442640452+441345245+440410797
2628+440056797+440023640+439810854+439152502+438154386+437118213+436371084
2618+436039189+435809771+435150167+433965018+432832235+432398365+432670884
2608+433041337+432933567+432304616+431524687+430907612+430414330+429782018
2598+428926582+428113818+427592565+427194643+426553531+425631530+424749196
2588+424128616+423674608+423227218+422819208+422594475+422574123+422629421
2578+422649988+422583495+422318845+421741400+420937399+420169525+419619014
2568+419258076+418980477+418745551+418562238+418414193+418261462+418085553
2558+417868690+417569917+417200752+416871576+416700925+416720097+416854443
2548+416934206+416791311+416429729+416047831+415870598+415993391+416312516
2538+416547371+416461885+416142116+415922713+415993463+416214618+416322031
2528+416148983+415678665+415093209+414753696+414905318+415385437+415758357
2518+415709176+415247550+414632406+414137658+413817960+413542365+413282937
2508+413214691+413447078+413772248+413785304+413272028+412461875+411821872
2498+411594528+411639918+411678083+411520845+411128967+410600347+410092329
2488+409743123+409661142+409849891+410109462+410159466+409865916+409288078
2478+408634984+408199003+408124498+408238062+408262063+408112730+407859884
2468+407533819+407127312+406707213+406400714+406263793+406222909+406176554
2458+406085702+405909328+405558906+405052569+404639302+404597918+404894759
2448+405171141+405132726+404840499+404538971+404317601+404071443+403721343
2438+403294948+402789685+402178082+401619738+401411494+401583683+401796290
2428+401798150+401724682+401769071+401812529+401573990+401004737+400416848
2418+400202310+400410338+400699955+400794347+400789805+400845675+400856227
2408+400698774+400534848+400575302+400777644+400999836+401224748+401466113
2398+401655113+401722786+401640805+401379589+400979806+400622445+400437093
2388+400214399+399416050+397519076+394341666+390054078+384937667+379148631
2378+372663043+365473140+357874655+350426899+343509443+337064381+330898168
2368+325081126+319925476+315711464+312615106+310908240+310996194+313148877
2358+317461860+324066521+333072490+344383729+357236906+369412809+377690284
2348+379770857+376029989+369775250+364718106+361668354+359176766+356260966
2338+352897597+349246329+345442866+341783299+338833805+337210244+337060088
2328+337892704+339038436+340156733+341385125+343173328+345860604+349278449
2318+352804921+355847806+358303089+360545657+362970643+365619003+368283245
2308+370781234+372990180+374823165+376317388+377594604+378693300+379564474
2298+380202617+380676154+381093678+381588748+382247243+383019303+383743326
2288+384269192+384602374+384927652+385385916+385854123+386084829+385994085
2278+385678751+385260190+384833545+384457334+384107841+383725406+383348050
2268+383133869+383194496+383442621+383693500+383871269+383977465+383934221
2258+383664671+383275655+382992477+382944082+383076961+383235630+383329057
2248+383408820+383517234+383557831+383460148+383357063+383462866+383855495
2238+384412516+384894244+385146697+385274855+385513179+385909314+386251045
2228+386313818+386100138+385832412+385742025+385867966+386066802+386202435
2218+386287242+386436754+386722686+387099362+387490132+387901825+388386808
2208+388928127+389440294+389857925+390157342+390345090+390512485+390835831
2198+391412882+392121382+392734558+393170610+393534553+393897280+394166258
2188+394266982+394330363+394540144+394891998+395285450+395746074+396335036
2178+396947283+397459056+397994938+398784560+399797376+400767020+401579105
2168+402401598+403377359+404427553+405484758+406694372+408218712+410047261
2158+412147865+414605722+417469980+420603323+423739134+426589478+428975048
2148+430972889+432847973+434803429+436916193+439217815+441627779+443916273
2138+445963940+447976804+450266800+452896561+455661776+458366686+461027922
2128+463808983+466778757+469719023+472182353+473813604+474607340+474727128
2118+474144032+472711832+470563728+468116064+465657455+463171591+460536930
2108+457695672+454658653+451506424+448395830+445450986+442628112+439784707
2098+436881641+433989556+431128445+428302818+425639721+423243528+421017950
2088+418904505+417117805+415830037+414812893+413695311+412442703+411327088
2078+410503701+409844884+409200159+408633481+408290356+408132903+407958998
2068+407644737+407213871+406687397+406055049+405423558+404995769+404834060
2058+404784807+404679219+404482064+404243096+404038215+403942284+403944680
2048+403904834+403678993+403313762+403063634+403150873+403521648+403954767
2038+404401692+405019948+405845124+406658103+407248352+407637047+407974950
2028+408323728+408578398+408548174+408114912+407364814+406537385+405797624
2018+405108976+404373900+403608708+402894486+402239210+401581895+400888955
2008+400195764+399565418+399036762+398620526+398296286+397971831+397528375
1998+396982300+396487194+396092884+395659300+395099347+394544401+394163540
1988+393957621+393824313+393718617+393656952+393597148+393405179+392990731
1978+392430957+391908560+391561106+391415279+391410450+391440352+391401937
1968+391237832+390948537+390605197+390362294+390367409+390585918+390789261
1958+390808504+390692758+390529797+390284212+389933110+389575963+389277548
1948+388964110+388589114+388269739+388155638+388232146+388331081+388335517
1938+388296136+388298568+388286085+388130635+387867917+387690577+387663787
1928+387634743+387491384+387338796+387353997+387571648+387831219+387899357
1918+387693367+387399173+387256242+387284893+387350671+387349240+387274770
1908+387232671+387342444+387541710+387625300+387529298+387393343+387331499
1898+387324775+387312828+387267402+387215824+387221046+387308285+387437838
1888+387532803+387498144+387309108+387112024+387082981+387186172+387252773
1878+387233959+387205094+387232957+387360006+387585955+387794306+387815767
1868+387635065+387437981+387398028+387541280+387797203+388054985+388197415
1858+388169408+388037638+387948575+388004194+388166690+388279933+388227138
1848+388085997+388063391+388260081+388553882+388771211+388921474+389140412
1838+389498167+389932287+390360255+390806036+391317130+391794566+392056855
1828+392113405+392176966+392381060+392687881+393038089+393422956+393810506
1818+394163754+394536890+395013181+395569772+396122751+396645756+397160927
1808+397678781+398190698+398676432+399135089+399627691+400224057+400909879
1798+401634975+402419446+403319807+404336308+405397412+406460232+407610721
1788+408956577+410479987+412058909+413588828+415064201+416535425+418012300
1778+419456483+420897017+422450722+424133909+425748099+427148966+428472145
1768+429847366+431249915+432674282+434143145+435598881+437012517+438511676
1758+440174439+441860810+443429967+444961138+446593427+448316460+450048828
1748+451784916+453525690+455220359+456833833+458334029+459681101+461000417
1738+462595721+464592274+466780295+468863229+470874161+473119162+475671591
1728+478296988+480736747+482985288+485270742+487784220+490485195+493181234
1718+495703618+498000340+500159603+502404353+504981928+507928202+511015010
1708+514028208+516981672+520020837+523264775+526746538+530319438+533663063
1698+536800341+540209386+544124625+548283375+552421272+556543717+560667056
1688+564837932+569379224+574606804+580022418+584682676+588729471+592856208
1678+597374645+602291398+607442397+612554696+617596173+622891605+628630064
1668+634383760+639532471+644008737+648239703+652751236+657710517+662818595
1658+667746114+672427905+677104330+682258477+687973830+693532803+698722290
1648+703749960+708388328+712263900+715744804+719450763+723362174+726912684
1638+729616485+731422428+732650928+733819623+735154712+736294721+736603545
1628+735943404+735028235+734348494+733459007+732152389+731196587+730899853
1618+730168462+727555584+723255299+718805502+714908612+711480788+708459292
1608+705823380+703367024+700807728+698237056+696200335+695022126+694392388
1598+693902791+693481011+693081621+692488439+691612258+690631204+689702943
1588+688718527+687487237+686094203+684874073+684100476+683883147+684209784
1578+684932805+685851050+686911653+688186938+689670823+691361593+693404538
1568+695963263+699011083+702456005+706319272+710695816+715760542+721802460
1558+728736583+736086979+743940134+752374525+760827229+768735038+776114835
1548+783075785+789418872+794850940+799081333+801858817+803526481+805625796
1538+809131810+812705855+814838721+815650448+816805480+819506276+823246858
1528+827097607+830692827+834169868+837763514+841228823+843815804+845573675
1518+847753327+851224645+855449459+859054980+861290287+862599122+863851873
1508+865558095+868040704+871380180+874759574+877323163+878982170+880117529
1498+881005872+881711080+882490830+883526467+884387912+884545078+884435770
1488+885378767+887821602+890873286+893567358+895464511+896519105+897103273
1478+897899906+899286359+900829834+901644065+901572457+901568093+902112845
1468+902567246+902597506+903082453+904934324+907540477+909672342+910576280
1458+909660539+907259195+905380212+905167891+906169190+907891722+909990752
1448+911969242+913612226+915074364+916062715+915942319+914772336+913446976
1438+912921467+913622527+914943452+915659892+915463595+915286828+916056706
1428+917195284+917101070+915423821+913828910+914016336+915667189+917012365
1418+917149644+916985968+917324908+917802702+917762999+917001706+915789874
1408+914515662+913400906+912481374+911622719+910473553+908832931+907286951
1398+906779541+907125350+907006170+905881183+904579716+903537212+901897090
1388+898877884+895360067+893317551+893806648+896525042+900608643+904962223
1378+908539559+911175400+913682188+916383557+918299524+918830899+919170627
1368+920849736+923644746+925915321+926630974+926215489+925778257+926047378
1358+926969772+927949896+928705967+929922592+932214485+934875363+936832822
1348+938293458+940070072+941903629+942890836+942995923+942907361+943069105
1338+943724667+945205978+947443145+949665575+950999878+951091373+950215120
1328+949087773+948431209+948511331+949145790+950048440+951014614+952035443
1318+953234684+954395868+954896481+954491226+953734082+953349858+953451154
1308+953548658+953341274+953296134+954005993+955210313+956120331+956301891
1298+955667933+954289349+952667112+951327158+950112751+948716212+947427764
1288+946480189+945204475+942872451+939856821+937031479+934438060+931540824
1278+928583497+926406420+924920460+923129467+920600502+917762785+915242189
1268+913746500+913639624+913954028+913021189+910583290+907998026+906233430
1258+904818148+902845381+900270489+897795892+895756094+893962884+892686025
1248+892519703+893111240+893452255+893510629+894112896+895364860+896576334
1238+897463174+898358814+899465916+900487174+900920257+900629889+900131493
1228+900186290+901209265+903071365+905124182+906510063+906962103+907138584
1218+907820829+909207354+911260671+914130795+917622573+920684916+922317526
1208+922810986+923295075+924190070+924906940+925226637+926140948+928716197
1198+932517371+935828590+937639327+938806663+940790232+943901434+947419824
1188+950834699+953956990+956192297+956937852+956573945+956261115+956867746
1178+958417303+960436426+962435090+964019914+965029010+965714546+966607968
1168+968297307+971068782+974327135+976956681+978686510+980406824+982431027
1158+983467450+982689346+981456053+981582172+983337540+985990979+988955602
1148+991990618+995171426+998553895+1001585692+1003357227+1003346496+1001671178
1138+999265256+997917362+999150368+1002739221+1006779471+1009328109+1009764912
1128+1008849814+1007788496+1007347830+1007855383+1009403508+1011744332
1120+1014401634+1016664053+1017625936+1016765636+1014993171+1014160055
1111+1015192830+1017831246+1021227665+1024055225+1025109103+1024531301
1103+1023898202+1024914667+1028241981+1033155479+1037844853+1040414236
1094+1040687936+1040196407+1040170725+1040474041+1040900328+1042458183
1085+1045328449+1047049193+1045585552+1042614490+1041298287+1042894628
1077+1046899753+1052144394+1056110031+1055810507+1051904388+1049496749
1068+1052482834+1058670114+1062057592+1060074809+1056247954+1054640023
1060+1055273338+1056645054+1058774415+1061332853+1062796208+1063228504
1051+1064330455+1066101704+1066858133+1066578925+1066902200+1068124690
1043+1069317994+1070107974+1070032216+1068319270+1065549655+1063971341
1034+1065042889+1067626509+1069185651+1068096433+1064842372+1061271618
1025+1059416671+1060355304+1063296321+1066648101+1069868183+1072754402
1017+1073741823+1071411086+1066655613+1061560698+1057604575+1055734892
1008+1056304539+1057855455+1057703439+1054661985+1050169838+1046869779
1000+1046088670+1046517747+1046200553+1045363645+1045685990+1047178603
991+1047863567+1046821992+1045261276+1044146592+1043239506+1042401096
983+1041961074+1041543157+1039896454+1036527218+1032408636+1028591510
974+1025271849+1022295780+1019485747+1016672137+1014015765+1011662422
965+1008881433+1004864720+1000315844+996466884+993002791+988821113+984133385
955+980160452+977528116+976041512+975226065+974493458+973349229+971627555
945+969223564+965885591+961771587+957899592+955349666+954238630+954073094
935+954446301+954820009+954685162+954574137+955716149+958121284+960121092
925+960355661+959299279+958254843+957636122+956996584+956196518+955613780
915+955323341+954867080+953949693+952838228+952099683+952179303+953029588
905+953912423+953726069+952066990+949861872+948327338+947620699+947202638
895+947087893+947729005+948794401+949224337+948639739+947747533+947220451
885+946839947+945812680+943823602+941837744+941467398+943369416+946385832
875+948292643+947629355+944795142+941146771+937624876+934818349+933469667
865+933842302+934953052+935708909+936440229+938101883+940497790+942016872
855+941456596+939699369+938699429+939099176+939687279+939445056+939153544
845+940179309+942372123+944105386+944276072+943438664+942632373+942076748
835+941668202+941880594+943180273+944781193+944955098+942720793+938923554
825+936016302+936502609+940820492+947115578+953008628+956689477+957079638
815+954805987+952422099+951980359+952876142+953080522+952033583+951069554
805+951026561+950759657+949104799+947248207+947097479+948268177+948848054
795+948524493+948921594+951114622+954261808+956602131+957120915+956035202
785+953983673+951697861+950730542+953084671+958817908+964552004+966150849
776+963188800+959042677+956618441+955682598+954570775+953045398+952148256
766+952021278+951771329+951141949+951072201+952726773+956383586+961001137
756+964399416+964713748+962163894+958729060+956280216+955412189+955848134
746+957519231+960565121+963814246+964767043+962718375+960433135+960779301
736+963210905+964711316+963442899+960661838+958407860+957100241+956608998
726+957661589+960279403+962258323+961947710+961096424+961910153+963431453
716+963464431+961986197+960454167+959432623+958982943+959864204+962328071
706+964804957+965480192+964299837+961835040+957737776+952313291+947897903
696+946632562+948163090+950117329+950014889+947127239+942767864+938103242
686+932809598+927568677+925215120+926615522+927885799+924922105+919483671
676+916554673+917045558+915833869+906986068+891073159+879170812+883935013
666+900203101+913432311+917384999+915285183+913501630+914150968+914128864
656+910294497+903499226+897301072+894920045+897172092+901366145+903686152
646+903013635+900881555+898887112+897551308+896823350+896235891+894447760
636+890431976+885864501+883810897+884259217+884538711+884264153+885490006
626+888258619+889813756+888629323+886911297+888183935+893073111+897517757
616+897080525+893325564+891465967+892998641+894983999+896235104+899047784
606+902779782+901864040+893004650+881644694+876294465
##END=
