##TITLE=<SNM>
##JCAMP-DX=4.24
##DATA TYPE=INFRARED SPECTRUM
##DATE=2/5/2025
##SAMPLING PROCEDURE=Instrument type and / or accessory
##ORIGIN=Admin
##XUNITS=1/CM
##YUNITS=ABSORBANCE
##RESOLUTION=4
##FIRSTX=4497.3318
##LASTX=599.83466
##DELTAX=-1.4281778
##MAXY=1.7079127
##MINY=0.22014996
##XFACTOR=1
##YFACTOR=1.5906176e-09
##NPOINTS=2730
##FIRSTY=0.24085718
##XYDATA=(X++(Y..Y))
4497+151423685+151712224+152577823+153410606+153628406+153187175+152493632
4487+152012455+151935139+152140986+152322429+152077695+151161489+149913303
4477+149127652+149224762+149874725+150538871+150976720+151143343+151034325
4467+150709250+150230809+149724300+149585080+150167443+151121496+151607704
4457+151350351+150914937+150839542+151023149+151048050+150653772+149866556
4447+149041596+148743688+149232659+150103027+150616168+150313708+149349340
4437+148428412+148291309+148981911+149711354+149592481+148455833+146985931
4427+146163397+146406032+147133798+147362016+146774351+145999304+145826799
4417+146338769+146806306+146460255+145357576+144271497+143757682+143651522
4407+143518082+143292721+143298436+143743273+144360869+144570426+143949214
4397+142666722+141555002+141492507+142497233+143636917+144080293+143934543
4387+143724565+143505116+142974550+142182126+141491168+140867941+139905072
4377+138777408+138405333+139284994+140750221+141682316+141662268+141279859
4367+141328330+141770461+141827878+141134241+140182529+139551368+139420008
4357+139807372+140551035+141149792+141216362+140973361+140951459+141328874
4347+141702110+141462342+140520757+139620346+139612130+140415974+141014844
4337+140608200+139547359+138902127+139227342+140000112+140308540+139949356
4327+139623091+139985517+140794476+141248439+140990158+140396058+139892463
4317+139454314+138987677+138768808+139115880+139838840+140388676+140508944
4307+140426813+140466141+140731063+141029879+141025701+140711905+140549977
4297+140735803+140784996+140359344+139936231+140125749+140843322+141554262
4287+141909334+141898823+141662980+141296788+140773904+140114872+139619859
4277+139729869+140583852+141809901+142795319+143163993+143052259+142977136
4267+143344902+143948689+144025873+143078865+141635100+140877160+141356238
4257+142344345+142809783+142721413+142809483+143381166+144133485+144827610
4247+145360237+145415228+144803759+143969290+143561166+143652758+143809291
4237+143745531+143515908+143170841+142673523+142153394+141843476+141794284
4227+142011072+142675856+143738917+144568655+144610578+144129541+143774516
4217+143759424+143990190+144514357+145238928+145632026+145317387+144622663
4207+144073679+143798105+143835503+144386772+145255023+145760426+145699392
4197+145651446+145950646+146171594+145928453+145437842+145114819+145165220
4187+145572060+146063654+146220000+145888264+145406881+145336432+145931338
4177+146822606+147397146+147515419+147501011+147499278+147339682+146946903
4167+146472031+146095084+145888573+145759395+145625318+145779940+146663245
4157+148049939+149065110+149313151+149333198+149605212+149804970+149463547
4147+148774050+148262680+148066370+147951741+147803799+147794937+148146993
4137+148858673+149666527+150234444+150373889+150192774+150093294+150408270
4127+150938077+151130752+150800243+150325821+150101163+150130719+150200756
4117+150182563+150167161+150404064+150965038+151421727+151215224+150466268
4107+149930718+150008455+150415867+150964551+151836952+152888949+153587842
4097+153820725+153938043+153967047+153546454+152585112+151431676+150548755
4087+150317745+150885718+152000670+153186773+154107372+154648346+154842361
4077+154910608+155148325+155537038+155665232+155206473+154301181+153360093
4067+152704406+152523329+152934113+153778906+154488104+154563770+154191124
4057+153954606+154031809+154180388+154351497+154674521+154968587+154897689
4047+154588652+154623914+155324624+156293311+156873874+156927535+156854304
4037+156910766+156912930+156644579+156215265+155957509+156097797+156543450
4027+157062362+157666533+158585662+159789340+160776163+160989794+160404846
4017+159609546+159175144+159054763+158821159+158298116+157692389+157323134
4007+157422099+157984676+158769540+159610220+160504580+161218565+161260328
3997+160579094+159834981+159612918+159800563+160056463+160393492+160953933
3987+161654540+162305909+162699971+162574775+161969966+161535152+162013416
3977+163422125+164947655+165620944+165142550+164108305+163340228+163102483
3967+163193242+163543873+164210081+164928338+165311814+165443156+165662089
3957+165865266+165703965+165451643+166044629+168034782+170584009+171804474
3947+170879387+169458087+169526418+170595138+170566134+168945330+167208473
3937+166561695+167293067+169371975+172122654+173881020+173467884+171823828
3927+170976441+171758289+173134172+173816867+174107973+175132194+176764746
3917+177311135+175436210+171916011+168789013+167367807+167743751+169923947
3907+174562722+181789265+189570572+194610717+195515869+193103005+188297888
3897+182570008+178625750+178389560+180934083+182705415+181447496+179789163
3887+181130459+184607302+186885301+187786911+189155206+189306034+185900895
3878+181941891+181719229+185281078+190202267+195054693+198291355+197644071
3868+194558574+193093337+193839980+193656832+190805932+187381176+186319782
3858+189508423+197997251+210167372+217107024+210612622+197904300+188022071
3848+183529270+184016845+187950873+193460981+199479481+205712568+210709882
3838+211565794+207872079+202970039+199353948+196875751+194970454+194019736
3828+194058033+194629509+196996075+203289999+211582807+215394131+213403546
3818+210533573+207420871+201220554+193571095+189044100+189793702+195082516
3808+201670844+205892586+208415151+212304699+216560317+217191393+214618335
3798+211972054+209004258+204551122+200192941+198103148+198394142+200155057
3788+203028159+206577099+209571088+211682728+214462055+218670326+222275063
3778+223276463+223053370+224623905+229723163+237727282+245629925+250543038
3768+253134121+255777066+259313341+264376682+272425187+283207265+293366416
3758+300218251+305883047+314850381+329793834+348971957+365110787+373488957
3748+379631098+389528185+401465582+408257423+409468314+412529192+422234719
3738+438813290+458495832+474303291+481271854+481479227+480811240+482749288
3728+487067560+491978050+496274813+500058875+503301345+505463404+507500754
3718+512003879+520776524+533957938+550646904+567703476+579377366+582902754
3708+581476283+580192133+582640108+588844116+594947211+597714828+598727151
3698+600889884+605108817+611362813+619644867+628855979+635284111+634087835
3688+625939521+617546773+612863480+611541708+612480472+615776566+622535881
3678+632063637+638361215+635488337+628922606+626586261+626797794+623094785
3668+615644962+610310094+609530926+611751629+615235049+620175479+626937342
3658+633060335+634880756+634164578+637621654+648713706+663661468+672802694
3648+671018547+663542830+656450008+652363916+651449809+652155643+653212072
3638+655439746+660154778+666757608+673613302+680200843+685741548+686864977
3628+682125738+676981718+676330219+680502723+687779310+694917698+697893850
3618+696667821+695794333+697296462+699236870+700907325+704778474+711276080
3608+715406090+712827972+706181075+701208381+701068308+705398796+711629447
3598+717016964+720156871+721382302+722668738+726352748+732717476+737867641
3588+736076224+728086757+721386199+719854317+721344454+722088586+720097215
3578+716248175+713049436+712169278+713622392+717519097+724709648+734280610
3568+741225789+740543712+734793385+730631749+730550433+732189187+732234754
3558+729858239+726930351+725570769+725972550+726972695+728559437+731757802
3548+735969202+738923320+739317083+737113167+732069649+725203312+720429223
3538+721355172+726565518+730615336+730800076+730058942+731938195+736209477
3528+740371863+742577727+742388116+740718709+738974208+737271826+734624159
3518+731252146+729105638+729796933+732715003+734999710+733994394+730438915
3508+727574356+726948113+727310474+727420793+727714729+728610699+729349210
3498+729351159+729161023+729449487+730086372+730524277+730275384+729593382
3488+729726110+731495568+734210236+736618378+737823423+737098403+734166993
3478+729917221+726307856+725189072+727056859+730500295+733273945+734520510
3468+734913373+734679993+733711925+732975438+733418739+734288179+734166243
3458+733040640+732180493+732181093+732185215+731734119+732047990+733701283
3448+734624459+733276493+732080291+734085302+738347741+741455272+741752355
3438+739800780+736536313+733164600+731262114+731211975+731359692+729830884
3428+726930426+724893638+725653733+729341491+734312612+738160078+739114506
3418+736831448+732432384+728020056+725409337+725033711+726130610+727896995
3408+730075130+732548624+734918244+736458670+736681707+735909621+735412733
3398+736347526+737797717+737546575+735117749+732439729+731496018+732085762
3388+732149541+730477137+728763588+729366448+731692599+733269223+733790917
3378+735396845+739098093+743171144+745161691+744280034+741642110+738846501
3368+736803418+735650085+735213154+735273635+735631274+736147947+736673913
3358+737115190+737694667+738924070+741078147+743719144+745959408+747350992
3348+747829068+746737490+743721767+740758880+740863654+744166492+747384868
3338+747947782+746853281+746393716+747026179+747491440+746897573+745633246
3328+744467772+743877054+744385183+746425718+749388979+751547853+751572735
3318+750102234+749359976+750619806+752434981+752612976+751650978+752152137
3308+754685962+756112021+753045110+746373781+740583733+738924145+740580286
3298+742443875+743261303+744537097+747067175+749141810+749399996+749103813
3288+749271840+747969066+743614670+739010032+738327355+741865522+746362539
3278+749018675+749355104+748279864+747168276+747158383+748086505+748784771
3268+748989296+749805375+751510381+752364457+751306979+750249951+751276551
3258+753445468+754582088+753885547+751966722+750304511+750141205+751115719
3248+751417523+750080874+748336673+747827494+748667631+749627455+749554608
3238+748174341+746204929+745165813+746221342+748801109+750922360+750986738
3228+748843078+745666072+743450240+743579746+745293594+746860176+748091152
3218+749758610+751439183+752285165+752596638+752430184+750615984+746789427
3208+742518895+739848969+739766754+741807440+744468747+746198034+746256791
3198+744767628+742671784+741555623+742265056+743837857+744521133+743252235
3188+740197165+737210970+737068949+740596774+745256796+747727967+747356089
3178+745884463+744495502+742550222+739302843+735675267+733294705+732554995
3168+732496388+731825402+729759536+726961379+725426649+726193789+727935068
3158+728852323+728851723+728843929+729193549+729705425+730140782+730168437
3148+729353182+727692470+725752361+724334546+723901513+724390905+725424326
3138+726001105+724832183+722051338+719455533+718481994+719034716+720526801
3128+722673759+724665130+725327796+724742998+724115856+724025997+724132494
3118+724042410+723213665+721117595+718258358+715961959+714823840+714143936
3108+713290984+712488995+711960705+711718557+712238827+713708055+714961065
3098+714595107+712896472+711506462+711429493+712020512+711562146+708908933
3088+704909329+702021312+702139875+704683368+707095183+707458367+706295891
3078+705393250+705277460+704642149+702289991+698978459+696747113+696644588
3068+697759698+698438253+697679582+695276461+691851012+689312091+689776377
3058+692946263+695807149+696008227+694152357+691912917+689824642+687624323
3048+685470621+684190480+684404674+685590608+686616909+687082843+687089139
3038+686327245+684891968+683954702+684137719+684406847+683618048+681970601
3028+680218230+678618673+677108750+675650690+674170371+672731271+671798053
3018+671745366+672180948+672345528+672061860+671596000+670899609+669788994
3008+668496038+667368936+666396821+665426430+664422987+663319118+661979846
2998+660565329+659744978+660096921+661058319+661144731+659725267+657735844
2988+656329421+655747171+655552463+655107513+653793048+651565224+649332380
2978+648155064+647929854+647489625+646275811+645061473+644594114+644624692
2968+644756146+645048957+645533628+645928215+645744224+644570656+642824206
2958+641755337+641909199+642300264+641662404+639758869+637227892+634744955
2948+632507538+630527934+629240374+628997626+629170749+628890304+628284446
2938+627812029+627234650+626343626+625527322+624857986+623777275+621993877
2928+619814992+617722633+616192774+615472513+615091079+614161907+612479423
2918+610691266+609313584+608313365+607621320+607371902+607468881+607390676
2908+606694172+605496434+604165668+602661066+600711702+598717933+597731053
2898+598100608+598729737+598284412+596809264+595393397+594484986+593517667
2888+592202864+591103379+590444535+589385071+587431548+585586807+585028277
2878+585431933+585340949+583774668+581159077+578816063+577631440+577361225
2868+577274663+576944417+576131523+574722439+573256547+572613441+572773075
2858+572724735+571823443+570482747+569365163+568507414+567418796+565782329
2848+563954675+562637100+561943444+561145539+559664470+557953319+556872946
2838+556442685+555845446+554637965+553286289+552286032+551481307+550596241
2828+549694237+548728979+547412940+545895073+544744963+543962084+542882685
2818+541368978+540141636+539575612+539116085+538195232+536906810+535573908
2808+534330866+533252516+532335410+531332005+529997829+528433084+527022801
2798+526164528+525967534+526000023+525570549+524459186+523043095+521632587
2788+520161898+518586136+517124928+516038109+515391144+514942783+514161779
2778+512610636+510476757+508523795+507376458+506924200+506495588+505641737
2768+504633985+504007592+503759561+503372056+502518317+501292362+499891522
2758+498521710+497351477+496219653+494836950+493438059+492547034+492033921
2748+491190899+489771436+488190240+486699991+485075964+483213161+481514077
2738+480420438+479774072+478952260+477666161+476307441+475328018+474562977
2728+473504300+472158994+471178260+470907333+470677101+469537821+467577252
2718+465872996+465090905+464738062+463975569+462645328+461131321+459648153
2708+458176078+456822154+455780340+455087246+454649490+454286493+453704468
2698+452732840+451553613+450451880+449483887+448546471+447581176+446641549
2688+445887300+445407988+444974804+444224489+443157081+442143633+441371060
2678+440572106+439434736+438081112+436920509+436103381+435374201+434480253
2668+433486329+432618800+431991545+431563833+431225155+430831842+430248468
2658+429421634+428384017+427223451+426073603+425023433+424022613+423019133
2648+422126310+421454463+420932769+420470282+420031515+419453462+418543551
2638+417405657+416350914+415565563+415038622+414649994+414254582+413757283
2628+413043841+411964254+410621497+409456473+408781703+408474240+408268028
2618+408025280+407648980+407040162+406237086+405425391+404716896+403998283
2608+403159046+402364588+401797852+401261581+400433286+399360519+398355952
2598+397621076+397198797+396970064+396599834+395854354+394952762+394268511
2588+393841024+393504557+393239887+393030865+392636915+391911707+391140895
2578+390688113+390479503+390130595+389424348+388449310+387435488+386629339
2568+386169662+385933846+385612481+385060509+384473950+384079325+383779544
2558+383318668+382667656+381986741+381347383+380778023+380426080+380351659
2548+380304594+380012607+379544499+379113451+378724935+378275488+377764061
2538+377209129+376613014+376100426+375811212+375664244+375487973+375248785
2528+374942671+374504016+373998398+373634913+373444815+373182056+372648184
2518+371959137+371393974+371074445+370913388+370815284+370748883+370654827
2508+370483951+370307268+370211038+370135081+369942547+369595812+369197366
2498+368893275+368713481+368489358+368007534+367258644+366464823+365904645
2488+365757564+365984274+366268392+366205100+365660173+364895356+364318990
2478+364149239+364272561+364393111+364346645+364206422+364037945+363741799
2468+363284445+362865576+362644787+362483505+362145539+361602261+361006446
2458+360517165+360246013+360204531+360218246+360060112+359721022+359376311
2448+359103473+358854954+358664855+358629444+358732868+358888417+359039844
2438+359078553+358853717+358419972+358075973+358004662+358062295+358046219
2428+357970937+357935338+357913117+357831539+357687794+357479183+357187084
2418+356904391+356834204+357084559+357488964+357652719+357295043+356626269
2408+356217892+356387793+356866243+357169697+357156656+357079013+357165500
2398+357327382+357323822+357091754+356775934+356500960+356248807+355919572
2388+355419462+354698863+353700442+352225781+349935716+346622310+342442836
2378+337784725+332984667+328280464+323867460+319766642+315729115+311527663
2368+307346222+303737832+301214649+299957760+299901551+301000943+303374460
2358+307210309+312514674+319141823+327217814+336740512+346281871+353221017
2348+355704217+354133139+350998290+348597231+346821402+344399545+341074635
2338+337385529+333693499+330079712+326628070+323647983+321647319+320895093
2328+321079571+321571137+321916972+322098864+322500346+323577047+325418978
2318+327656394+329818678+331749343+333637777+335644550+337610664+339285429
2308+340712050+342114688+343475320+344535121+345229939+345842991+346632802
2298+347520492+348269345+348824764+349313857+349815579+350325656+350871408
2288+351462539+351991203+352352626+352589116+352781576+352882827+352756919
2278+352364130+351886542+351622434+351706973+352010838+352332054+352542538
2268+352560487+352388188+352170509+352072031+352155108+352435441+352901526
2258+353440307+353887805+354164503+354294946+354343210+354370790+354413884
2248+354492539+354653859+354975486+355489124+356085688+356512202+356551211
2238+356267356+356003886+356079468+356533224+357173332+357790169+358260975
2228+358532727+358633566+358677334+358762172+358883808+359018709+359225109
2218+359566147+359978459+360314551+360534440+360798660+361288165+361917518
2208+362344107+362356060+362161615+362171845+362547058+363071825+363450224
2198+363606485+363687463+363881796+364266790+364758207+365198323+365522798
2188+365793501+366066714+366349520+366692132+367160315+367680098+368054900
2178+368195535+368240464+368423106+368864571+369462335+369947530+370125525
2168+370093861+370158951+370535963+371166066+371785001+372155643+372309881
2158+372527147+372986412+373532013+373899807+374062364+374213828+374507389
2148+374929293+375381176+375777524+376062091+376211869+376257811+376246831
2138+376190360+376133664+376216703+376529825+376965069+377326868+377530119
2128+377638303+377779013+378020187+378303780+378572721+378904691+379345894
2118+379722007+379848252+379817150+379849376+379978020+380086953+380159912
2108+380294851+380531753+380826213+381151700+381472241+381651623+381584884
2098+381412210+381404416+381636372+381939338+382133296+382160988+382065808
2088+381960810+381957175+382067944+382219895+382317100+382283337+382156679
2078+382096536+382146824+382125764+381934054+381756097+381769737+381902390
2068+382000118+381996109+381865179+381633673+381424314+381338951+381351317
2058+381353790+381227020+380910414+380516726+380292078+380354995+380539210
2048+380576758+380409705+380251308+380298074+380439196+380372757+380009047
2038+379610413+379476861+379603706+379732312+379707879+379655305+379715674
2028+379767648+379606479+379285113+379067809+379127203+379434816+379808606
2018+379924809+379487915+378590970+377735282+377344592+377415078+377677574
2008+377892180+377922683+377734907+377431941+377183123+377038628+376843808
1998+376456978+376130441+376423290+377440860+378417359+378499537+377696835
1988+376572169+375471560+374504241+373766292+373266557+372963628+372932451
1978+373218929+373612842+373780757+373567650+373150542+372957146+373256964
1968+373709671+373599989+372730661+371715977+371174272+371058894+370967236
1958+370733594+370458133+370201258+369913655+369586257+369335227+369303076
1948+369563998+370244014+371462437+372744338+372935524+371533860+369533458
1938+368113469+367374959+366835053+366340526+366074208+366097479+366208660
1928+366286791+366665377+367669531+368809374+369347031+369563286+370065644
1918+370196649+368861236+366607931+365082307+364997057+365695173+366075108
1908+365594109+364601009+363787178+363420246+363248996+363003737+362809254
1898+363048592+363730182+364275896+364476600+365071440+366385119+367192279
1888+366267380+364278557+362698748+362014385+361867979+361909724+362008764
1878+362131262+362244055+362384165+363108923+365531230+370004114+374512223
1868+375614518+372514556+368095070+365077136+363835143+363459592+363253118
1858+363067816+362977769+363018389+363152654+363514227+364487542+366412099
1848+369544924+373888715+377915526+378443890+374676016+370024649+367535117
1838+367228628+367560711+367849887+369182002+372733959+377370374+380009909
1828+379600183+378116641+376668661+374546285+371874336+370044922+369701110
1818+370170568+370653590+371276273+372751870+375052016+376889562+377105405
1808+376154012+375491083+376273399+378901019+382699808+385823789+386636871
1798+385713657+385577744+388361324+393620834+397470624+396038082+391062390
1788+387305533+386772747+388319767+390347711+392409269+394256708+395335208
1778+396139895+398556131+404079898+411737845+417330112+417178160+412887056
1768+408157371+405035563+404711462+407462291+411206483+413032562+413139134
1758+413597949+414604652+415855751+419025037+425661404+433783637+438668308
1748+438480683+436005352+434412428+435025105+437716241+441141802+443559312
1738+445624804+450529786+459143285+465869886+464743946+459227898+454628768
1728+452199717+451997552+454024896+457626317+462715589+470960844+483757601
1718+498285707+506766890+505590999+500144350+496179782+495996129+500227539
1708+508659109+519293694+528803651+536726792+546450680+559347714+570525466
1698+575529150+576051069+573708317+570300705+569885283+574553400+583013486
1688+593922147+608557461+626601138+639162380+638881560+633575733+632110328
1678+636794708+646032689+655713146+662717158+668855251+676579487+683265430
1668+684838382+683975237+686235587+692439183+698586345+701588128+703741006
1658+709331475+721059138+739353206+757886051+762317416+755922484+754293773
1648+759410663+762859420+757734212+748815798+742998245+742090883+746143099
1638+754434371+761768216+758418687+744426328+731292616+724882771+723499956
1628+723275495+722206250+720401943+716557025+708907509+700418607+695990540
1618+695444039+692724874+683998320+673906563+667281625+664081237+661826658
1608+658566388+654327857+650120804+646302717+642498719+638560419+634969716
1598+632286749+630478994+628931224+627076553+624820700+622373849+619988603
1588+617865178+616099093+614663591+613410169+612392149+612571868+615519991
1578+621176411+625320810+622908284+617260408+615495633+618570563+621275301
1568+619308063+615171158+612946932+614516024+622024492+637887485+657196988
1558+661961709+649644227+636520483+628569538+624778356+623711735+624269890
1548+626567488+632378408+642973722+657262715+672520150+683652523+682731820
1538+672295015+664919050+665576845+670327027+672602291+672038102+673924026
1528+680659808+689948826+699136143+708453116+717718077+723535854+724250158
1518+722325038+719192850+715090945+712053413+712910637+719402023+732035399
1508+747904163+755584031+746391168+732222837+724649392+724742099+729623510
1498+734849220+735930006+733076239+731740414+735975273+744553135+751533389
1488+751622724+746301983+740724480+737970766+738118858+740031087+743412843
1478+748984874+756955680+766271004+774387278+777069945+772726566+766495915
1468+764248755+767036570+771152490+772340748+771945936+775143401+784435867
1458+795715732+798590708+790452624+780868097+775485452+773769205+773389307
1448+771996449+768687315+764856637+762262481+761267132+761947261+765103431
1438+770356346+773978302+772617895+768953221+767062801+767074043+766884131
1428+766095033+766280822+767792993+769376062+771087138+774449933+778310439
1418+778012232+772457213+765951213+761527867+758998389+757226532+755994432
1408+756098081+757827294+759672522+759893460+759350257+760412082+763770530
1398+768098994+771714580+772997268+770877216+767077340+765311854+767248590
1388+770737518+772065923+770763524+770336336+773651690+780391145+788472420
1378+796339801+803486808+809240582+812406946+813220926+814063836+816638356
1368+820230184+823654059+827043010+830247296+831396207+829196863+825045793
1358+821007292+817674400+814720507+812154605+810350597+809165487+807831461
1348+806002646+804334514+803779544+804831701+807420087+810799594+813471244
1338+814100634+812881649+811295732+810591546+811055607+812463979+814659876
1328+817538299+820737264+823689808+826127553+828394498+830935893+833541141
1318+835608731+837201993+839131834+841874682+845092083+848307460+851453813
1308+854494493+857040909+858740593+859768093+860589793+861468002+862424304
1298+863296517+863621180+862918718+861278540+859287319+857363398+855444799
1288+853164964+850097528+846090953+841581571+837392879+834137031+831891595
1278+830389617+829339633+828543490+827911701+827483089+827308541+827321582
1268+827528506+828233066+829776864+832095222+834600717+836444446+837218181
1258+837577319+838584883+840286291+841662512+842099817+842165319+842892738
1248+844839367+847729032+850684125+852954442+854480328+855695416+857097643
1238+858936275+860806760+861886121+862179907+862837552+864591047+866883173
1228+869161585+871888694+875396957+878720331+880690568+881660809+883177177
1218+886158051+889890401+892857035+894537983+896017627+898405984+901337169
1208+903708812+905244141+906653113+908772715+911902805+915584867+918996526
1198+921715391+923778185+925190454+926269891+928076522+931325774+935332499
1188+938960001+941988165+944738882+946957787+948244222+949306872+951389451
1178+954519691+957571688+959979754+962040975+963635361+964147836+963692544
1168+963275548+963756547+965287679+967425119+969408396+970665978+971346481
1158+972195386+973856623+976387226+979410668+982584976+985847494+989303670
1148+992632365+995026492+996070780+996082022+995613763+994967360+994670652
1138+995609641+997568112+999170292+1000059892+1001726451+1005463372+1010369216
1128+1013840831+1014091823+1012505606+1012584598+1016171554+1021630269
1120+1026034204+1028241193+1028868260+1028487538+1027260833+1025108105
1111+1022027404+1018974583+1017740684+1019531651+1023879002+1028930539
1103+1032669484+1034337017+1034731529+1034614390+1033817047+1032662664
1094+1032587045+1034112256+1035799349+1036619251+1038014732+1042147290
1085+1049051474+1056006172+1059265017+1057003019+1051298559+1046729594
1077+1046666191+1051049965+1056799093+1059848691+1058505222+1055273507
1068+1054362022+1057275895+1061373228+1062992346+1061577004+1059994310
1060+1061073897+1064509463+1067305297+1067333926+1065561845+1064573317
1051+1065811413+1068205615+1069659703+1069703696+1069497747+1069346357
1043+1068088625+1065649681+1064104759+1065087292+1067591363+1069498796
1034+1070535289+1072004591+1073741823+1073553411+1070765146+1067861916
1025+1067040665+1067276293+1066214319+1063530603+1060903246+1059657356
1017+1059748339+1060312153+1060154018+1058449538+1055913464+1054549160
1008+1055599518+1058066492+1059531073+1058481315+1055677761+1053092374
1000+1051888603+1051737513+1051676058+1051047342+1049825809+1048204742
991+1046142698+1043963814+1042544425+1042048737+1041551999+1040561373
983+1039768826+1039083002+1036825875+1032549947+1028258805+1025692154
974+1024595854+1023880726+1022841760+1020871673+1017527764+1013692439
965+1010919689+1008824369+1004903306+998299952+992008221+989215984+988980581
955+987563066+983100374+976870772+970814294+966181027+963537107+962346377
945+961584858+961169811+961417205+961541015+960521459+958873637+957953309
935+958090159+958651874+959356734+960476792+961951640+962903969+962565217
925+961449806+960676371+960405219+959938834+958966869+957924680+957277827
915+956832952+955977601+954646123+953459890+952714334+952068530+951386753
905+951028964+951334291+952373183+953726994+954450966+954055480+953127058
895+952295090+951358873+949870085+947842965+945886294+945023899+945711147
885+946895207+947063834+946212081+945767131+946704547+948258312+948358589
875+945551663+940843226+937231688+937008126+939544499+941837150+941745492
865+940331350+939879055+940785893+941749089+941883616+941310360+940266447
855+938806138+937067258+935486212+934884701+935939406+938356316+940728934
845+941704122+941202214+940058024+939007441+938105550+936770174+934392311
835+931261396+928808737+928597092+931062192+935089152+938765668+940974980
825+942218697+943375927+944195378+943593418+941194344+938207850+936557780
815+937180875+939392285+941921239+944205121+946291298+947906594+948411875
805+947846188+947112474+946566123+945599403+944299178+944038593+945464502
795+947254345+947953959+947869571+948165980+949166124+950575096+952230487
785+953788000+954667783+954960969+955498851+956412584+956581286+955250407
776+953229658+951641492+950744547+950581766+951170236+951847442+951986091
766+952045597+952631294+953363585+953854027+954386288+954713274+954015084
756+952444531+950797009+949223682+947752881+947027711+947600293+949466130
746+952434038+955592083+957195687+956888711+956711166+958420593+961065112
736+962409630+961957411+961588605+963460888+967169480+969716196+969026400
726+965436820+959675701+952736742+947078673+944716773+944573028+943942963
716+942165036+941201539+943166754+948046817+953213320+955426229+953994849
706+950936107+947961679+945221379+943021510+941884815+940364400+936347633
696+930898062+927430418+927242980+927830251+925926641+921333844+916359426
686+912811292+910957520+909854325+908728872+908304907+909628590+911954517
676+913053065+912046025+909664339+904886652+895860392+887414583+889283719
666+897852438+900971586+895747899+888250223+884215919+883510009+883370986
656+882603096+880420315+875713751+870270400+868244629+871045559+875837786
646+879024609+878684882+874318570+867651887+861630183+856929166+852997236
636+850902740+851067770+851187907+849619977+848096489+848849539+851541649
626+853987113+854092262+851637579+848407887+845390215+842057024+837989593
616+833701749+831256734+833301016+840109795+847480589+849797073+846724391
606+843285751+842961763+844000729+843056943+840894547
##END=
