##TITLE=<SNM>
##JCAMP-DX=4.24
##DATA TYPE=INFRARED SPECTRUM
##DATE=2/5/2025
##SAMPLING PROCEDURE=Instrument type and / or accessory
##ORIGIN=Admin
##XUNITS=1/CM
##YUNITS=ABSORBANCE
##RESOLUTION=4
##FIRSTX=4497.3318
##LASTX=599.83466
##DELTAX=-1.4281778
##MAXY=1.8331805
##MINY=0.36408129
##XFACTOR=1
##YFACTOR=1.7072824e-09
##NPOINTS=2730
##FIRSTY=0.38548237
##XYDATA=(X++(Y..Y))
4497+225787113+225838067+226397078+227292204+228249788+228895416+228961365
4487+228407084+227402788+226303566+225505478+225217105+225329923+225438587
4477+225155957+224613459+224392553+224742791+225242084+225447891+225410151
4467+225281745+224964953+224490708+224273224+224592547+225124483+225326083
4457+225116087+224894815+225017443+225401981+225629904+225497256+225384229
4447+225783849+226529901+226832186+226114431+224633952+223230438+222590117
4437+222823992+223563969+224096273+223632048+222188262+221039710+221437253
4427+223009741+224318906+224796956+225062235+225535660+225900228+225789592
4417+225163986+224215776+223365617+222919215+222523819+221526715+219943962
4407+218489789+217699539+217612835+218218034+219559912+221270652+222495331
4397+222562676+221622112+220538461+220177034+220744633+221698569+222284741
4387+222230244+221876114+221605720+221321886+220677288+219686136+218787641
4377+218294684+218117593+218103593+218211296+218353249+218450496+218538841
4367+218540429+218136288+217178076+216024950+215175838+214779447+214752076
4357+215150561+216142411+217669724+219337261+220649289+221323387+221416131
4347+221157852+220762980+220416059+220125923+219547222+218404098+217068312
4337+216113033+215531469+215099991+215031529+215425633+215736996+215687490
4327+215929239+216936712+217987196+218046861+217167881+216304333+216021249
4317+216016047+215940236+216054049+216598955+217090324+216977995+216554774
4307+216431133+216508097+216283211+215881933+215934702+216544772+217117835
4297+217190784+216878810+216541787+216403221+216406119+216237197+215697056
4287+215082657+214943987+215428740+216089188+216383514+216261810+216161176
4277+216423837+216911226+217258827+217181724+216442288+215122876+214043188
4267+214112802+215115492+215823158+215422124+214280170+213344022+213251942
4257+213880567+214564459+214891462+215037691+215218413+215390442+215584343
4247+215928924+216357731+216736003+216997947+216927198+216372638+215719313
4237+215486554+215684907+216096659+216635823+216966108+216577520+215716048
4227+215369599+215903369+216482611+216280139+215676877+215682009+216503663
4217+217375643+217743318+217824768+217868722+217646630+216913321+215856517
4207+214997088+214872522+215593839+216533478+216829340+216353245+215788264
4197+215644165+215619237+215191164+214440992+213900624+213888789+214352176
4187+215137557+216034132+216685136+216816806+216549014+216330116+216599846
4177+217429634+218418185+219154968+219766417+220605038+221453068+221548150
4167+220545548+219084742+218135607+217983059+218171532+218286497+218301561
4157+218271764+218264624+218419773+218565182+218183367+217215292+216344814
4147+216161665+216504065+216720345+216324006+215458852+214823017+215002692
4137+215954253+217164617+218032076+218147599+217621371+217110748+217192774
4127+217782821+218280317+218120752+217227564+216147386+215637077+215903212
4117+216407568+216590018+216511955+216511099+216577624+216521625+216422964
4107+216383199+216128045+215468365+214922761+215204692+216201744+217050839
4097+217176156+216762675+216209128+215649716+215112891+214699202+214489363
4087+214544838+214923406+215486764+215881357+215818079+215250514+214445095
4077+213981498+214263570+214927526+215229637+214945610+214379722+213805140
4067+213466721+213706007+214517345+215302830+215469622+215124203+214917349
4057+215220752+215663104+215661952+215254198+214983420+215076845+215241664
4047+215223964+215072166+214841817+214470964+214062197+213993613+214508128
4037+215237143+215471891+215134415+215047117+215774072+216664241+216763600
4027+216291154+216268601+216943886+217589915+217777340+217815726+217845907
4017+217459885+216521695+215578565+215122283+215095715+215340744+215892633
4007+216593946+217031725+217138416+217341673+217922679+218595730+218855144
3997+218519884+217795617+216912849+215969073+215208882+215126332+215960939
3987+217264902+218295033+218740108+218805150+218704201+218429514+218035427
3977+217761612+217718688+217751488+217746897+217794307+217964102+218254221
3967+218834057+219949495+221399164+222453611+222563025+221915337+221065475
3957+220312964+219700101+219345744+219601841+220913991+223209054+225331651
3947+225958339+225296338+224675410+224554493+224181126+223133208+222012498
3937+221607588+222359104+224297663+226641113+227782404+226843987+225074769
3927+224416520+225213631+226240288+226744854+227478076+229230274+231322376
3917+232013965+230259428+226866767+223703111+222136802+222474017+224619708
3907+228786229+234892512+241351703+245582549+246342810+244162416+239923087
3897+235008071+231613018+231353029+233658460+235570695+234869802+233673978
3887+235130682+238399510+240048281+239784940+239925601+239959151+238055871
3878+235775105+235885043+238533415+242249675+246006904+248310608+247435050
3868+244917336+244025666+244814468+244340642+241435073+238559477+238493126
3858+242407844+250463543+260561019+264940677+258063886+246865652+238524879
3848+234952543+235856973+239965278+245370336+250636009+255289290+258409009
3838+258215544+254901278+251235675+248916209+247376624+245883892+244812408
3828+244518065+245010813+247370113+252810660+258959798+260554246+257597654
3818+254764981+252736891+249233349+245032842+243003547+244385591+248405237
3808+252581812+254775752+256555949+260357552+264222398+264147808+261380282
3798+259463351+258099130+255932613+254180554+254595222+256991826+260362946
3788+264407047+269004347+273633032+278485713+284828560+292888537+300569281
3778+306149371+311244812+318875982+330505309+345288551+360077903+371098051
3768+377421068+380469863+381303876+381430292+382916286+385819568+387917081
3758+388199345+388955783+393328267+402656998+414884228+424515471+429008785
3748+432802288+439789297+447976719+452296730+453567667+457413817+466956733
3738+481788677+498405707+512032804+520860513+527047198+533458578+541407063
3728+550490153+559103537+565932219+571298857+575564859+577967084+578711617
3718+579601943+581906484+585662806+589787484+591244502+587391613+580305350
3708+573895437+569968081+568846254+569678382+570254988+569157774+567630304
3698+567659770+570016016+574647860+581480663+589912539+596874411+596929083
3688+589200264+580158755+575426747+576196277+580669378+586160686+591961734
3678+598971365+604667677+604064887+599517878+596603633+594211184+588001177
3668+579559700+573418574+570074563+567492646+564798417+563466594+565271684
3658+569514959+573050357+574170369+574989823+578022210+582794017+585322100
3648+581815050+574259046+567657012+564843907+565387732+566851592+567218133
3638+566532252+566190428+567326255+570311336+574959799+579541406+579924635
3628+574269414+567351217+563876636+564807878+569296689+575168224+579173224
3618+580287510+581230867+584160682+588126441+591641172+594790444+597364296
3608+597774861+595608572+592746067+591030282+590718448+591329827+593114109
3598+596606357+601004920+604148047+604733800+604342297+605975132+610472216
3588+614521729+614035475+609970112+606100396+603629674+601539073+599537428
3578+598752188+600018795+602771118+605934564+609409076+613841783+618650352
3568+621235027+619497527+614768627+610178327+607342425+605847214+604660765
3558+603691817+603695867+604647777+605140316+603941368+601823746+601049677
3548+602828303+605718319+607210667+606623936+604860880+602325152+598837792
3538+594740939+590984896+588290318+586841400+586609724+587517436+589079748
3528+590153362+589756832+588091739+586251806+585210905+585166881+585399500
3518+584773283+582817897+580149887+577790290+576644408+577166342+578626921
3508+579537880+579530932+579434016+579284977+578068748+575751673+573759036
3498+572932355+572342202+570552159+567551647+564674445+562892955+562068718
3488+561677110+561585640+561990585+562847255+563499237+563067306+561362413
3478+559096799+557046103+555490773+554410770+553649305+552827441+551737768
3468+550902010+551019454+551794744+552071143+551306744+550014058+548643901
3458+547181054+545948136+545665733+546348856+546906366+546316563+544922666
3448+543973060+543892692+543736705+542595258+540852730+539520209+538788313
3438+537893449+536249652+534108430+531952614+530015451+528624173+527999458
3428+527717299+527276570+526903710+527036376+527370553+527080609+525820460
3418+524084531+522689273+522099504+521992953+521440890+519888702+517865307
3408+516473645+516376834+517365751+518584494+519122104+518704557+517756731
3398+516708743+515732044+515118815+515079714+515168739+514750109+513796977
3388+512631510+511388782+510116938+508965819+508040547+507267560+506467028
3378+505588153+504979951+505231946+506423039+507604216+507672469+506813390
3368+506220968+506411029+506714938+506468180+505894681+505580263+505755801
3358+506252284+506721432+506918929+506894071+506778548+506520827+506017117
3348+505377355+504890192+504711478+504642666+504230041+503348025+502753753
3338+503434432+505196580+506562093+506446360+505333505+504367734+503917963
3328+503349945+501993090+500116081+498537779+497364178+495953558+494298939
3318+493410568+493859571+494758905+494715858+493487025+492182399+491805489
3308+492185541+492635801+492999305+493464088+493984766+494423854+494674871
3298+494525239+494061782+493927021+494455799+495063896+495117940+494771298
3288+494463828+494246885+493959455+493599582+493284676+493234193+493728163
3278+494580155+494925609+494309762+493638683+494001768+494989254+495254411
3268+494295762+492712398+491110461+489883828+489579919+490291041+491136156
3258+491245291+490684220+489856527+488924690+488268031+488453832+489295142
3248+489845145+489626526+489003347+488205503+486883456+484859991+482738039
3238+481447133+481469058+482567599+483795105+483818950+482047690+479536749
3228+477934218+477562021+477311074+476305050+474927143+474113972+474136246
3218+474341808+474049874+473368112+472822508+472494579+472017542+471202416
3208+470193564+469141247+468049933+466918958+465913912+465303720+465159359
3198+465098856+464531431+463345575+462153470+461630104+461764760+462001603
3188+461885974+461255499+460103298+458628091+457175962+455951458+454963274
3178+454130693+453242845+452053114+450606745+449256209+448303216+447775207
3168+447418895+446819771+445747169+444370065+442916749+441319699+439488669
3158+437674677+436318834+435759020+436093442+436932343+437331806+436568315
3148+435015534+433641887+432779211+432036808+431150043+430217927+429334340
3138+428553323+427989180+427604101+427162220+426553110+425933422+425541046
3128+425498349+425619179+425341664+424199936+422512989+421252037+420970786
3118+421103801+420632838+419299758+417733501+416529944+415765023+415312842
3108+415149489+415260335+415457413+415363081+414675978+413616433+412852489
3098+412708826+412754386+412450093+411855786+411316361+410804691+410037674
3088+409020583+408072408+407422486+407079161+406971039+406966256+406809571
3078+406281492+405489164+404747528+404049847+403028741+401694579+400740015
3068+400708594+401229935+401438220+400902390+399882332+398879589+398218845
3058+397953967+397847521+397393699+396254661+394835732+393969112+393881692
3048+394004966+393888639+393619852+393224648+392413154+391152167+389923998
3038+389161275+388790649+388497912+388091956+387412847+386289449+384901732
3028+383822846+383377753+383189508+382624841+381592423+380654128+380323931
3018+380497583+380733134+380800480+380602459+379917346+378725101+377482373
3008+376667318+376327519+376209412+375983461+375374980+374438955+373580049
2998+373021108+372511812+371779184+370902404+370085603+369448179+369103912
2988+369026617+368820182+368068248+366946804+366094358+365871759+366040454
2978+366119006+365818867+365147440+364306340+363573467+363131307+362883257
2968+362512666+361759579+360601339+359300064+358333211+357980809+357921668
2958+357623240+357098234+356803507+356900038+357077217+356964695+356394198
2948+355440368+354404284+353610281+353128635+352770647+352343708+351820726
2938+351243142+350572064+349763851+348915664+348190751+347660438+347306535
2928+347066375+346816580+346406050+345748517+344904240+344110865+343621538
2918+343436819+343344093+343182520+342864646+342352452+341840817+341607884
2908+341544519+341295980+340888871+340644976+340495588+339975294+338905555
2898+337646140+336670210+336146600+335906580+335703147+335485122+335345718
2888+335239865+334961477+334428720+333804982+333273866+332805626+332242007
2878+331592678+331099372+330936472+330999035+331059432+330994077+330804261
2868+330515608+330073064+329357961+328427172+327636730+327302343+327322277
2858+327336277+327114411+326627319+325924296+325121530+324411838+323963394
2848+323788659+323753887+323744635+323733847+323639760+323324469+322854484
2838+322491260+322268102+321892868+321238023+320583668+320189581+319937796
2828+319589165+319175457+318918715+318813490+318500155+317710375+316711403
2818+316035716+315830294+315765183+315544086+315186063+314784086+314290954
2808+313671336+313088725+312748752+312585398+312290113+311713855+311057021
2798+310577539+310296707+310084233+309861843+309597350+309204765+308604662
2788+307885964+307272979+306853372+306447799+305854120+305116325+304433656
2778+303933611+303649253+303554013+303504403+303301285+302898785+302443881
2768+302092003+301841370+301483452+300742131+299629555+298552590+297827293
2758+297296177+296694643+296107563+295766018+295661108+295602630+295456140
2748+295182499+294794592+294324572+293751945+292992470+292032547+291051048
2738+290335335+290030885+290018142+290085487+290141364+290155381+289995344
2728+289492803+288645978+287665684+286839858+286350636+286135107+285939582
2718+285602786+285213727+284870786+284453151+283843710+283204314+282792597
2708+282652513+282639246+282589619+282405336+282121449+281853621+281574744
2698+281112981+280460667+279852815+279457104+279186170+278864316+278433397
2688+277982509+277651019+277473736+277317173+277041561+276671511+276283028
2678+275822870+275223850+274618738+274251917+274209220+274319036+274299729
2668+274026874+273663859+273434051+273324672+273173538+272929555+272648042
2658+272372011+272141958+271965199+271750577+271421200+271037098+270711160
2648+270509211+270436088+270374590+270085310+269442423+268653010+268106428
2638+267984078+268088134+268079580+267812870+267376732+266903814+266504106
2628+266331694+266484730+266778742+266822452+266465302+266022478+265892553
2618+266074724+266222943+266066100+265628252+265116896+264726911+264529711
2608+264478425+264488497+264500716+264476068+264380828+264232156+264148856
2598+264250694+264455139+264491691+264200421+263709383+263281013+263103259
2588+263203369+263425566+263546257+263507784+263433160+263389589+263337815
2578+263312800+263394861+263497625+263432339+263160060+262786205+262404635
2568+262122301+262080267+262281203+262531714+262677681+262774073+262938142
2558+263134103+263192913+263019278+262704407+262409610+262201604+262030954
2548+261821063+261560201+261325016+261195562+261158451+261131184+261045894
2538+260882035+260681343+260526509+260419870+260220208+259811266+259293923
2528+258881787+258619301+258368877+258119571+258070729+258272136+258443816
2518+258338731+258040530+257755386+257565063+257487786+257556283+257748753
2508+257931081+257904827+257577649+257128052+256853906+256800281+256725884
2498+256498694+256307743+256371858+256604931+256728066+256623382+256393050
2488+256143377+255925229+255805638+255766973+255629402+255279200+254867291
2478+254645739+254716803+254980353+255211576+255209743+254956439+254593371
2468+254249139+253971414+253782139+253692834+253673423+253642456+253488930
2458+253164598+252776429+252480427+252274603+252049543+251831605+251755811
2448+251802611+251805770+251719991+251632135+251523664+251285232+250950706
2438+250668739+250474331+250311694+250219491+250269956+250374937+250334264
2428+250061008+249683714+249445527+249475272+249638870+249724439+249762737
2418+249953706+250285248+250494039+250439053+250279819+250216401+250223419
2408+250141829+249947596+249792273+249773473+249812435+249816135+249834237
2398+249996421+250389006+251066875+252200485+254223898+257808836+263644290
2388+272235575+283899814+298914278+317627040+340327207+366883649+396472267
2378+427701680+459076222+489469736+518359626+545564314+570370163+591084186
2368+606374944+616958237+624564096+629365543+629933911+625775892+617999383
2358+606885776+591026372+569281956+542496631+514816198+492838395+481688794
2348+483141587+495991543+515270892+532699067+542631845+545999038+546439034
2338+546455303+547036797+548378151+550083498+551039074+550082939+547235586
2328+543534425+539448849+534234392+527014556+517956323+507978613+497714450
2318+487384443+477365083+468125901+459525679+450631114+440528419+429114080
2308+416889084+404378613+392055306+380392952+369613976+359613224+350270843
2298+341567561+333384502+325554124+318131205+311293934+304988128+298981239
2288+293268449+288117602+283684197+279868542+276574281+273819689+271563955
2278+269665667+268009861+266490473+264963370+263412684+262045512+261044952
2268+260325136+259649118+258889275+258079945+257307116+256632215+256063166
2258+255544741+255011303+254457895+253916567+253382065+252828587+252292670
2248+251858714+251538955+251243879+250919896+250626443+250387959+250077487
2238+249581230+248989472+248496217+248193321+248062994+248077029+248200809
2228+248352764+248431525+248380449+248231619+248098552+248084867+248164676
2218+248196096+248084465+247879462+247698251+247629824+247711308+247890512
2208+248031731+248063727+248077064+248187648+248385843+248584370+248718223
2198+248759768+248735173+248743185+248867925+249069909+249231167+249300380
2188+249338679+249429485+249593624+249775184+249866758+249787158+249589452
2178+249441739+249447884+249542914+249600327+249561173+249408468+249107526
2168+248678493+248294967+248172112+248303852+248419603+248285942+247974335
2158+247740949+247713822+247796616+247822765+247700486+247450393+247200284
2148+247100436+247187576+247410925+247796581+248449749+249417388+250689808
2138+252261634+254072310+256006539+258043131+260293157+262876627+265854743
2128+269234312+272962966+276963864+281207226+285719078+290496454+295391587
2118+300112179+304392669+308097775+311106282+313227954+314316196+314368354
2108+313466996+311670110+309006185+305612215+301801361+297880673+293969552
2098+290053630+286092182+282061383+278028331+274171061+270669597+267622669
2088+265041084+262851892+260964986+259360902+258050515+257002945+256180052
2078+255565217+255127857+254816948+254566332+254291452+253966561+253709679
2068+253688330+253902463+254128501+254151403+253996900+253818290+253663525
2058+253524226+253469554+253536585+253639767+253723312+253848489+254068487
2048+254338199+254561689+254704723+254867012+255152330+255461685+255586478
2038+255512081+255452224+255575708+255813406+255966635+255981228+256025584
2028+256239210+256542054+256795079+257009753+257332340+257915650+258752892
2018+259545673+259888422+259699094+259316441+259119415+259192992+259358161
2008+259423063+259374500+259324750+259323738+259346308+259427758+259619635
1998+259874946+260236268+260969385+262094843+262988136+263012941+262380528
1988+261803415+261619987+261700128+261817135+261818357+261706150+261641336
1978+261711963+261823926+261908413+262033887+262327217+262944985+263923656
1968+264899533+265302488+265030645+264575463+264370372+264422182+264617863
1958+264979028+265481901+265934727+266192098+266337908+266589239+267099164
1948+267921097+269154416+270867321+272587976+273253242+272357732+270750680
1938+269604659+269248347+269341160+269542201+269734566+269921171+270100095
1928+270328978+270933776+272214400+273806213+275040178+275961890+276891875
1918+277241345+276245096+274567190+273646177+274010518+275059484+275862163
1908+275913013+275437145+275017852+274921477+274976778+275037717+275283706
1898+275968575+276929755+277630910+278031263+278879084+280430678+281587103
1888+281311979+280170793+279315693+279038091+279024964+279070175+279130241
1878+279219476+279406046+279817431+280897347+283448751+287641141+291734381
1868+292897125+290549118+287130500+284931900+284311932+284509726+284823725
1858+284976622+285020820+285195433+285727492+286729728+288209176+290153146
1848+292789352+296340286+299748081+300523232+297979684+294710035+293041207
1838+292978889+293361315+293736968+295054233+298319622+302594003+305237225
1828+305286661+304397452+303476718+301809425+299507852+297956083+297833577
1818+298480636+299073616+299687963+300985153+303036896+304838425+305371741
1808+304892295+304598091+305533070+308041217+311461651+314173161+314885087
1798+314247733+314388254+316856044+321021255+323773193+322446328+318723033
1788+316257792+316442965+318255666+320322072+322208612+323744600+324573202
1778+325131410+326963592+331394099+337821643+342953602+343632954+340751283
1768+337000896+334024683+333125734+335011261+338254551+340335760+341016544
1758+341711642+342493497+343196170+345421950+350628621+357254290+361435456
1748+361605862+359908370+358821316+359332113+361256742+363534226+364954342
1738+366230201+369902489+376520233+381517432+380128144+374953662+370057254
1728+366599186+365029263+365485772+367215103+370041963+375409822+384304527
1718+394041798+398401120+395102215+388629635+383347554+380982476+382019711
1708+386128749+391561615+396064774+400001067+405996505+414113929+419790446
1698+420254636+417322726+411896982+405602523+402064122+402714812+406267143
1688+411883716+420674208+431844652+438128882+434567718+427543912+423543242
1678+424184785+428381486+433296223+436836998+440256000+444698832+447284205
1668+445151710+441643892+441501207+444916194+448357923+449344083+449739391
1658+453031383+461517339+475784616+491398694+497059675+493656384+493115387
1648+497818627+501669072+499357409+494568704+492881337+495820125+503208202
1638+514570382+527158009+534379870+533674508+531747610+534470083+542376883
1628+552905993+563768618+575028820+586840702+597316606+605648774+614514746
1618+626267452+638462354+645939527+649188996+652649055+658085970+664350789
1608+669768014+673860748+677252519+680438728+683266809+685692076+688281639
1598+691575726+695529998+699768944+704043290+708361904+712694483+716704895
1588+720105882+723056225+725830543+728462698+731066365+734305710+739279902
1578+746418289+753735635+758020524+760625239+766147339+775950071+786767694
1568+794578974+800082781+806461134+815269920+827608101+846005259+870000276
1558+886682347+887297218+882368132+879203918+877873491+877039234+876090116
1548+875874989+878302280+883935332+890920874+896540240+896778968+887292539
1538+873308119+863992689+860063763+856737557+850813898+844994766+843163003
1528+845294101+848700465+851809030+855285497+858628810+859233555+856838033
1518+853752441+850648136+847361660+845065497+845287258+848937797+856338722
1508+865079081+866912589+857358083+845830419+839655115+838673110+840595225
1498+842808646+842889432+840909014+839930780+842137707+846182123+847981208
1488+844895336+838835870+833250299+829710641+827868963+827194743+828224647
1478+831542544+836342594+840964804+843511913+841741316+836032436+830816653
1468+829408722+831263457+833421996+833748354+833830746+836921994+843800007
1458+850094850+848143409+838720311+830148368+825635503+824286643+824962260
1448+826366630+826702414+825071325+822247503+819736632+819112126+821376588
1438+825412066+827334181+824759770+821010850+819869856+820830634+820828470
1428+818713989+816647967+816628416+818464229+821362623+825064203+827958757
1418+826774891+821431470+815627699+811780326+809799629+808800378+808519266
1408+809287191+810774721+811509270+810667960+809436195+809107184+809535485
1398+810375049+811842889+813304375+813247887+811706313+810454369+810351937
1388+810185267+808398052+805855481+805388428+808433173+813770520+819389048
1378+824560353+829506825+833811265+836462831+837578689+838587296+840239681
1368+841984304+843514567+845356524+847362079+848164496+847062603+845143770
1358+843786601+843458917+843968702+844803588+845310231+845131411+844520172
1348+844090056+844355806+845568859+847773970+850785898+854034739+856516913
1338+857330712+856646227+855685169+855426122+855826493+856457283+857341045
1328+858872146+861284845+864420431+867876579+871431389+875186454+879051073
1318+882555958+885606150+888774275+892449600+896388093+900247196+903957783
1308+907545619+910868264+913557326+915496408+917413147+920185299+923388476
1298+925558815+926050865+925561678+924907427+924449381+924306172+923961731
1288+922338113+919235903+915998233+914038064+913336054+912845959+911900053
1278+910781682+910080649+909879486+909790531+909711420+910176867+911764106
1268+914240833+916557733+917862534+918242098+918238467+918239305+918652942
1258+919822773+921510489+923199811+924965032+927046485+928894796+929807536
1248+930087949+930629364+931809948+933293988+934280461+933789319+931543360
1238+928629465+926587462+925913591+925862130+925448842+924260787+922596322
1228+921191324+920559207+920486590+920446302+920508934+921304159+922847968
1218+923878151+922950400+920147874+917076107+915300133+915350406+916964318
1208+919616304+922630396+925276447+927147800+928266729+929070543+930404321
1198+932938095+936469723+940016223+942723370+944616159+946207657+947579001
1188+948525674+949623517+952167555+956661218+961826518+965427132+966321438
1178+965570760+965067958+965458832+966253080+967522271+969881485+972820796
1168+974740886+975130085+975353382+976647570+978367545+978740475+977236186
1158+975718631+976536829+979692734+982934872+984799662+985874183+986963926
1148+988044383+989176300+990846630+992757084+993891864+994328473+995335894
1138+997557554+1000334734+1002639205+1003892965+1004183782+1003979198
1130+1003693059+1003668620+1004570677+1007469141+1012785819+1018954560
1121+1023182543+1024270192+1023696029+1023565109+1024541737+1025948970
1113+1026641973+1025768475+1024091023+1024410748+1028717632+1034878901
1104+1038183392+1036964754+1034790225+1035562199+1038900275+1041252715
1095+1039865592+1035712600+1032376758+1032579597+1036480105+1041650503
1087+1044805849+1044865898+1043813301+1044157254+1046509136+1049911660
1078+1053651224+1057876274+1062481237+1066538919+1068713168+1067845186
1070+1063894544+1058817292+1055741824+1056107841+1058267079+1059916810
1061+1060969128+1063241690+1067561771+1071677337+1071878849+1067264390
1053+1061184046+1057448183+1057220277+1059740994+1063826117+1068337585
1044+1072119672+1073741823+1072464393+1069968813+1068917054+1069447437
1035+1069579824+1069153548+1070044782+1072131542+1072554117+1069265546
1027+1063514841+1058961129+1059001557+1063614969+1068933812+1071593269
1018+1072258063+1073154673+1073597776+1071004024+1065426203+1059693583
1010+1056011694+1054669118+1055300257+1057733554+1061281102+1064229839
1001+1065174977+1064912648+1065643845+1067870532+1069476903+1068474719
993+1065449804+1061766448+1057384015+1053202116+1051937254+1054071913
984+1056169705+1055269185+1052561550+1050117431+1047097613+1042124398
975+1036644192+1033295363+1033066899+1034980356+1036807929+1036178326
967+1032426124+1027526085+1024681525+1025424383+1027363046+1026133794
958+1021346451+1017533083+1017369276+1018104383+1016014551+1010972979
950+1004991715+999386384+994596667+990775549+987892027+986075765+985830543
940+987088213+988380027+987872825+985504535+983162708+982459091+983322954
930+984859501+986373634+986965044+985442950+981802885+977919624+976071941
920+977062045+979677164+981703177+981696893+980040667+978177344+977050524
910+976322469+975023045+972774642+969989852+967262596+965146161+964075270
900+963919143+963789620+963023441+962351525+962953966+964472289+965390265
890+965311643+965416170+966355163+967053403+966080476+963265102+959670074
880+956568212+954617190+953913015+954532843+956297505+958216478+959292535
870+959494676+958779469+956480583+953182028+951081233+950961205+951117821
860+950457006+950090081+950772611+951510022+951980077+953665279+956937092
850+959499005+959332265+957477879+956209038+955933652+955698135+955612182
840+956170704+956225726+954380766+951276251+948952508+948952020+951382803
830+954507776+955303769+952269149+947688764+945306997+946256604+948799105
820+951514421+954862761+959054366+962716216+964647897+965232952+965169202
810+964133782+962155738+960676307+960914756+962015113+962336722+961680097
800+960920063+960627640+960878587+961733652+963147937+964597972+965258298
790+965055738+965279245+966982183+969318214+970700799+971051525+971442400
780+972091694+972131773+970751841+967636713+963198350+959191779+957815828
770+959366409+961942705+963883533+964805769+964478573+963409219+963582941
760+965703216+967211555+965699795+962949148+962781361+966190797+970105271
750+970690745+968148593+966721041+968998281+972884336+975446667+976814659
740+978361889+980197213+981881228+983263115+983392708+980817599+976072220
730+971868746+970352378+971082527+971475148+969278415+965501984+964051600
720+966943081+971003696+971792707+969629629+968053772+968432986+969421135
710+969887839+969965902+970532454+972205995+973549060+972024523+967197799
700+960938287+955345315+952614219+954831759+960890178+965434185+963955731
690+957960712+952355381+949845837+949731744+950161790+949743824+947957098
680+944960391+940357733+933895661+927335487+923169577+921736230+921115076
670+919627755+918121930+918299493+917780910+914324692+910575771+911575442
660+918447310+925147761+924863368+918908498+914895084+916871103+920764350
650+920141590+914784064+909233545+905379120+902653331+902345058+906296887
640+912786120+916409148+913010395+903920287+894335547+888449942+886886234
630+887774884+888628831+888400367+887441055+885832240+883648844+880709882
620+876531055+872370382+871800339+876469749+883763774+889735542+891359368
610+887975209+880939393+872673139+865694021+861243439+859877193+861431335
600+865111898
##END=
