##TITLE=<SNM>
##JCAMP-DX=4.24
##DATA TYPE=INFRARED SPECTRUM
##DATE=2/5/2025
##SAMPLING PROCEDURE=Instrument type and / or accessory
##ORIGIN=Admin
##XUNITS=1/CM
##YUNITS=ABSORBANCE
##RESOLUTION=4
##FIRSTX=4497.3318
##LASTX=599.83466
##DELTAX=-1.4281778
##MAXY=1.8434643
##MINY=0.39355579
##XFACTOR=1
##YFACTOR=1.7168599e-09
##NPOINTS=2730
##FIRSTY=0.40986392
##XYDATA=(X++(Y..Y))
4497+238728812+239763837+240350680+239760782+238540731+237508501+236774682
4487+236197595+236038364+236658015+237983259+239506166+240466566+240135034
4477+238548629+236979688+236902963+238376102+240027029+240601582+239992173
4467+238771549+237409991+236191953+235512589+235776197+236774509+237645391
4457+237994299+238545852+239946172+241453508+241772681+240827140+239880140
4447+240010121+241001576+241688683+241174416+239771006+238663613+238662120
4437+239591692+240819780+241900753+242589439+242611224+241796462+240445701
4427+239306767+238976728+239296439+239409079+238632663+237188495+235835945
4417+235063851+234880475+235170121+235849555+236675495+237321809+237732930
4407+238038720+238141761+237881190+237559101+237661135+237978885+237587864
4397+235952995+233701564+232071798+231759499+232516265+233710365+234893945
4387+235797878+236134184+235681679+234544290+233158204+231927044+230963623
4377+230360099+230441563+231357837+232633835+233652283+234356210+234822792
4367+234588468+233347344+231941191+231595199+232330302+233132861+233573249
4357+234168268+235109609+235763178+235704888+235375386+235391113+235784338
4347+236147238+236151265+235724798+234948642+234017803+233204621+232660619
4337+232339294+232218964+232355854+232561276+232399407+231795014+231311872
4327+231539843+232335874+232847155+232461308+231698587+231749778+232944763
4317+234165629+234193264+233138363+232005366+231457597+231608374+232424698
4307+233642753+234531046+234375079+233336356+232551243+233047265+234440538
4297+235124016+234177746+232522653+231554111+231390368+231233966+230774900
4287+230337758+230086874+229907021+229956250+230744852+232368196+233949497
4277+234399259+233659278+232709015+232484534+233150532+234140442+234639693
4267+234309758+233631487+233219168+232896523+231971760+230422659+229230000
4257+229390550+230938818+232927925+234193108+234303422+233786795+233292612
4247+232868315+232336291+231954523+232199418+233198320+234703087+236257170
4237+237238904+237153239+236048415+234487389+233123435+232344658+232179456
4227+232404354+232688341+232762289+232736633+233097710+233966457+234592617
4217+234168650+232952279+231919597+231542030+231501185+231446887+231449422
4207+231697164+232213670+232910254+233598436+234012405+234108259+234175038
4197+234385390+234465899+234088088+233377461+232822141+232804175+233306534
4187+233972775+234372041+234263740+233707015+233026643+232740712+233274872
4177+234408720+235237455+235178036+234742821+234819459+235552219+236351132
4167+236624062+236184402+235320203+234641447+234621137+235294409+236327767
4157+237122167+237135360+236424576+235596865+235173384+235262712+235568241
4147+235426178+234391500+232981285+232248647+232673031+233895269+235229296
4137+236049075+236056660+235561072+235228359+235300432+235289999+234705066
4127+233884246+233652995+234156134+234601053+234386032+233911499+233866540
4117+234265928+234591922+234478501+233982565+233426013+233112273+233084066
4107+233186846+233389925+233832865+234513809+235165226+235498650+235463516
4097+235232178+234969646+234628775+234072657+233379527+232753731+232209469
4087+231719817+231548053+231999655+232906782+233657473+233754838+233292074
4077+232904196+233111510+233713021+234090276+234006329+233750932+233652387
4067+233837829+234356470+235174304+236016510+236429489+236179559+235525868
4057+234896132+234444461+234156152+234135078+234454442+234899465+235166962
4047+235227526+235292603+235388510+235132331+234263688+233268275+232908344
4037+233256090+233826633+234472217+235439613+236692003+237752841+238134366
4027+237688388+236769631+236097123+236115680+236498576+236615990+236354048
4017+236128803+236246859+236627499+237042925+237308373+237405772+237572710
4007+237955208+238256223+238178960+237940314+237872077+237957968+238163928
3997+238626361+239170606+239296838+238946836+238669862+238860859+239348480
3987+239751217+239849467+239658019+239413401+239438276+239903053+240775376
3977+241893671+242939111+243497416+243332492+242573816+241617530+240861284
3967+240464223+240463164+241098038+242513078+244168900+245266677+245623310
3957+245390201+244468597+243153021+242736467+244419993+247683795+250434634
3947+251308519+251148247+251191122+250971848+249391658+246871308+244847379
3937+244192369+245265149+248159838+251918154+254355738+254041304+252250432
3927+251603581+253071895+255085425+255865261+255954259+256988902+258875333
3917+259496720+257215155+253031935+249412940+247797165+248184800+250612403
3907+255905377+264238870+273357111+279476564+280741643+277940152+272233696
3897+265293927+260153987+259342246+262276217+264780910+263575094+261393983
3887+262545745+266424702+269044778+269968309+271666729+272616940+269699163
3878+265622699+265331526+269161168+274322390+279393225+283354081+283777076
3868+281104004+278935912+278124258+276074656+271785739+267886958+267284353
3858+271550738+281703571+296262942+305125282+298150032+283486683+272010290
3848+266921228+267633210+272200923+278325045+284576180+290669421+295515375
3838+296334529+292314098+286533017+281782813+278383231+276037925+275140571
3828+275717867+277269467+280775787+288063683+296935415+300462097+297377157
3818+293521217+290357660+284742909+277168943+271862464+271734774+277042538
3808+284814427+290539995+294034442+298360384+302524891+302391751+299078372
3798+296528945+294236496+290104085+285460931+283166434+283898690+286761457
3788+291344480+297326053+303147094+307577952+311809914+317268194+322590973
3778+325710630+327715794+331706888+340080549+353517754+369889400+384792055
3768+396016592+404753672+411782804+417611829+424221576+432435641+439558752
3758+442905911+444442392+448516357+457463963+469437663+478590031+482346020
3748+485836527+493510913+502903108+506586816+504636332+505348000+514195794
3738+531334587+551546551+565881718+569448845+566652197+564923417+567752005
3728+574572694+582748674+588868839+591034292+590211146+588549648+587643042
3718+587838153+589002986+591834386+596541627+599660139+596100996+586820799
3708+577630936+572897726+573826377+578056465+580683172+579023097+575252423
3698+572408039+571729768+574025585+580363495+590676010+601759352+607465686
3688+605234339+599978287+596789995+596541072+597979060+600708322+606425210
3678+616460577+626574058+628333181+622875907+618763164+616921969+610953658
3668+599128618+587150613+579613186+576749361+576411041+577380937+579995736
3658+583645629+586006749+586907314+589975138+597403032+606103173+608466793
3648+600253179+587212618+576969746+572035349+570798374+570174331+568522901
3638+566958612+567221005+569246582+572119365+576535885+584057653+592361671
3628+594173772+588152344+580893871+577705543+580287256+586796913+592508942
3618+594574132+595205708+596869080+598716316+599373235+599861707+601210819
3608+601923842+600453219+598086753+597511627+599858999+603739554+607318485
3598+610644258+614091403+616049386+615385592+614800329+618049655+624861040
3588+629882750+628486075+623254325+619370993+618556388+620194070+623662531
3578+627937960+630534393+629233607+625046221+622099699+624346044+632005293
3568+639990745+642003235+638386114+634167205+631438013+629236176+627238338
3558+626159603+626153771+626925605+627998159+628167579+626868043+626023026
3548+627836585+631089938+631837470+628473855+624026784+622650315+625718069
3538+630819352+633899049+633205885+630705688+629204167+629381364+629879278
3528+629610636+629010792+628379979+626508789+622601433+618398424+616215960
3518+615883715+615453152+614009401+612233961+610885265+609904017+608872984
3508+608154824+608730713+610533163+611934351+611496358+609532334+607446175
3498+606377162+606671425+607858199+608978317+609576356+610135026+611001846
3488+611462197+610382629+607505681+603532014+599225062+595512955+594062122
3478+596161821+600738873+604301001+603944524+600209435+595698346+591928400
3468+588903209+586836977+586348575+586966889+587349681+587172693+587239905
3458+587899116+588537983+588268230+586805940+585181659+584889409+585796224
3448+586028760+584579454+582759020+582246906+582909901+583198124+582067001
3438+580017087+578384508+577827956+577574000+576357854+574336373+573049023
3428+572951746+572627105+571103677+569191069+567944651+567447569+567276066
3418+566918062+566043222+565150329+565215355+566330646+567417261+567389626
3408+566253782+564881305+563748586+562668637+561669162+561142987+560973150
3398+560528214+559876572+559673094+560023009+560578138+561038176+560983739
3388+559976661+558182405+556386655+555266503+555090001+555936477+557710910
3378+559869107+561286925+560915589+558815856+556127179+553831744+552039362
3368+550646124+549944870+550112971+550728682+551246489+551507494+551588906
3358+551554570+551473887+551311445+550754060+549487471+547755636+546440338
3348+546355836+547475225+548948833+549817944+549721812+549132834+548859714
3338+549066594+548994069+547993865+546480923+545567477+546109101+548033304
3328+550159805+551033291+550291730+548784724+547501887+546985538+547348819
3318+548030735+548041220+547229010+546643677+547182385+548457480+549242193
3308+548658180+546894058+545105599+544410351+545092094+546632845+548103190
3298+548836002+549146409+550069783+551792140+552791441+551554466+548852909
3288+547051987+547442070+549180015+550526836+550417546+548965497+547153951
3278+546173953+546564209+547771085+548673039+548603257+547695714+546484603
3268+545687946+546010365+547445090+548959630+549425292+548797639+548040768
3258+547984978+548665471+549687199+550573739+550646437+549467647+547773966
3248+546998071+547449742+547856698+547188391+546088826+545737175+545910067
3238+545173367+543081028+541088883+540644294+541458170+542275762+542368700
3228+541562322+539635654+536670940+533730042+532324098+532905820+534311660
3218+535109983+535112796+535016733+535115330+534965317+534004934+532394053
3208+531169298+531042615+531194989+530054354+527443826+525062639+524566669
3198+525813990+527213720+527508018+526708167+525335413+523677872+522127574
3188+521268218+521130390+521042591+520468194+519527912+518645018+518105269
3178+517975391+518043784+517768893+516671342+514918121+513144869+511731599
3168+510671439+510024587+509933593+510126829+509926511+509003032+507927353
3158+507576709+507850280+507513801+505763809+503436747+502030386+501931615
3148+502169220+501696614+500428671+498895592+497379768+495821484+494229976
3138+492774456+491591500+490757453+490311024+490196874+490358066+490768598
3128+491241203+491413123+491077269+490445241+489864074+489316688+488484654
3118+487376514+486415194+485698769+484875866+483962421+483453119+483381844
3108+483029603+481869665+480309889+479185328+478793092+478755841+478745668
3098+478901341+479351415+479749656+479662447+479125753+478429672+477595833
3088+476517898+475449474+474809184+474517247+474068561+473299644+472508090
3078+471875334+471388112+471187933+471397382+471737645+471801386+471530453
3068+471101695+470587428+469939049+469115001+468117470+466987042+465751941
3058+464480005+463490494+463214180+463607873+464039131+463951401+463303820
3048+462313858+461262550+460530259+460234156+459891670+458961040+457621336
3038+456554024+456095513+456069058+456305795+456758960+457041176+456409635
3028+454556845+452214368+450630394+450350330+450705314+450676602+450056900
3018+449394217+449008057+448691887+448257331+447721714+447057399+446248001
3008+445470404+444935064+444630282+444324180+443797866+443061271+442282320
2998+441554264+440935360+440584716+440493271+440239870+439419570+438130832
2988+436801960+435805228+435321477+435317311+435554187+435705068+435517179
2978+434907127+433921331+432613914+431109720+429853824+429430100+429871738
2968+430522270+430841460+430901556+430791120+430103753+428552621+426674419
2958+425346033+424806839+424569165+424168528+423638361+423196306+422767062
2948+422078689+421160903+420379488+419879872+419406919+418850401+418505763
2938+418513228+418478788+417985421+417117317+416166828+415211305+414323030
2928+413785086+413691662+413650730+413227110+412446389+411656467+411114323
2918+410794681+410484934+410047358+409500770+408833608+407993034+407116250
2908+406476932+406181211+406129447+406141321+405947876+405280125+404183025
2898+403121615+402562841+402442372+402225875+401614296+400941754+400637561
2888+400627320+400579826+400406101+400208317+400013380+399756646+399367986
2878+398816503+398144585+397404865+396559292+395590854+394723652+394351657
2868+394624361+395158937+395336654+394939073+394332875+393958901+393836140
2858+393711332+393464110+393083401+392404436+391261405+389889067+388827657
2848+388359252+388233576+387985139+387407479+386730874+386348394+386298436
2838+386125336+385440712+384509248+383977762+384045252+384199779+383865764
2828+383050881+382184859+381564636+381187537+380950939+380769055+380557176
2818+380237534+379731288+378962578+377980393+376994979+376178498+375551505
2808+375127920+374953500+374911631+374725964+374233951+373475761+372572106
2798+371719346+371178000+371067044+371234416+371348080+371065134+370277747
2788+369268031+368431276+367890069+367549458+367312339+367043350+366571438
2778+365903583+365252426+364787007+364482224+364196258+363799995+363252643
2768+362612804+362002336+361518933+361122358+360667319+360092367+359436489
2758+358654275+357673547+356646229+355835477+355260178+354730740+354186547
2748+353769454+353626489+353776432+354083263+354297399+354214876+353798964
2738+353118645+352312163+351638440+351311543+351249086+351195483+350999990
2728+350583800+349873624+348990903+348247051+347786736+347438001+346950675
2718+346259420+345539592+344991164+344550915+344000542+343359558+342871850
2708+342625045+342455660+342139559+341536416+340718929+339968586+339471400
2698+339117180+338694532+338156936+337695578+337585629+337830420+338034349
2688+337871247+337496266+337220959+337059593+336829522+336421872+335825360
2678+335092687+334326964+333594708+332908730+332328813+331970080+331881446
2668+331951436+331935466+331624539+331052329+330483070+330148292+330058131
2658+330074171+330037995+329778172+329171592+328358167+327752663+327634243
2648+327804461+327832687+327553213+327140598+326789607+326515445+326223612
2638+325841132+325394182+324989969+324676195+324361691+323969976+323613847
2628+323474006+323505529+323393913+322880549+322069103+321311746+320846154
2618+320672914+320718568+320894272+321009915+320869588+320508320+320190692
2608+320132402+320272416+320335532+320128513+319731904+319325260+318933164
2598+318486284+318008019+317569158+317151822+316680883+316140127+315622146
2588+315274938+315151206+315124404+315044589+314920579+314849548+314843993
2578+314807228+314622601+314259077+313833513+313525675+313388889+313279808
2568+312989120+312437984+311785091+311319637+311181775+311226456+311220936
2558+311108383+311010272+311047801+311221735+311409902+311442293+311217465
2548+310783534+310301103+309917686+309679039+309542462+309428346+309246254
2538+308921752+308467581+308033546+307813925+307843504+307934324+307884783
2528+307701441+307547019+307523723+307580555+307596005+307523793+307476543
2518+307615203+307905995+308079650+307922138+307524418+307143153+306902944
2508+306748626+306612083+306494183+306421104+306410237+306450092+306477450
2498+306424888+306275708+306024910+305683918+305374830+305255576+305311297
2488+305391182+305420587+305387571+305224435+304920902+304661391+304662640
2478+304914861+305171873+305178886+304894760+304510232+304253532+304167434
2468+304074496+303808110+303494752+303464062+303787662+304096333+304015060
2458+303615742+303265237+303161154+303182644+303111161+302852379+302467747
2448+302112173+301944523+301998022+302147758+302277531+302393417+302487223
2438+302456012+302287773+302165464+302238439+302402513+302428065+302257013
2428+302063846+302004862+302035066+302056243+302102001+302240557+302414109
2418+302507429+302490105+302407964+302330058+302361616+302595714+302968890
2408+303256071+303305335+303193684+303072972+302985832+302916745+302886506
2398+302922994+303027528+303177957+303313459+303379595+303426741+303569915
2388+303814394+303984613+303834947+303172715+301865784+299822293+297073416
2378+293864640+290544890+287338041+284304778+281492178+278962506+276685384
2368+274592629+272778757+271468441+270769670+270709331+271478335+273313732
2358+276218281+280135358+285307533+292074272+300014383+307486263+312546510
2348+314221513+313034079+310810092+309389428+308970495+308409534+306891210
2338+304648615+302429072+300687689+299427523+298593094+298184055+297992902
2328+297635072+296931075+296097584+295577623+295693024+296414378+297454195
2318+298458565+299092328+299214845+299058097+299020533+299283134+299778167
2308+300391933+301001672+301444838+301642275+301701051+301778123+301868492
2298+301832491+301627555+301399254+301302671+301328535+301365995+301381409
2288+301454073+301616376+301735386+301629881+301265419+300756152+300235636
2278+299809031+299567329+299544867+299671169+299800942+299778167+299498172
2268+299012652+298582609+298478249+298656592+298779352+298614966+298270605
2258+297994291+297921801+298022690+298148540+298160448+298080251+298038208
2248+298072578+298103477+298077022+298025641+298023974+298136840+298352989
2238+298553065+298594031+298435512+298183014+298008490+297996617+298085910
2228+298196311+298335388+298525951+298741406+298948703+299090523+299051188
2218+298799974+298513314+298408225+298529214+298786990+299079309+299296674
2208+299334585+299181551+298942245+298750224+298660966+298620139+298536158
2198+298376354+298188742+298071780+298111531+298280986+298428638+298439366
2188+298348129+298246546+298187735+298209711+298324799+298474812+298599586
2178+298713806+298829275+298879546+298813687+298699849+298648086+298668743
2168+298702453+298771228+298966096+299250639+299430613+299402006+299305075
2158+299344445+299553303+299792193+299915057+299900511+299842081+299825799
2148+299851108+299898809+300007613+300205259+300417312+300539308+300562534
2138+300544342+300511291+300479455+300502612+300609576+300769622+300979418
2128+301260385+301545934+301748232+301940114+302238891+302540340+302633244
2118+302540340+302476877+302514997+302553221+302593215+302786555+303168827
2108+303550230+303759089+303862929+304052172+304383687+304736553+304988323
2098+305152223+305330670+305603269+305990922+306447003+306828580+306969879
2088+306852847+306625762+306441552+306379755+306484289+306756854+307139369
2078+307541533+307845448+307955016+307932102+307959980+308135094+308471712
2068+309026702+309726255+310205735+310176642+309811486+309477575+309314369
2058+309276597+309342039+309503752+309714972+309915776+310053881+310120295
2048+310197333+310408136+310808947+311324671+311741695+311841160+311636154
2038+311368519+311205313+311102793+311009230+311004509+311175283+311500584
2028+311901533+312289637+312532554+312511237+312356746+312535435+313393160
2018+314546223+315088889+314633503+313760190+313216692+313149792+313291507
2008+313432112+313499950+313506546+313569454+313803969+314152113+314414124
1998+314510360+314768553+315755599+317477123+318957362+319192467+318312940
1988+317162341+316249729+315683074+315507544+315645302+315872040+316040211
1978+316143043+316217893+316283683+316319997+316444007+317082145+318490866
1968+320026827+320535226+319739437+318570195+317918587+317806207+317897826
1958+318148624+318619355+319087760+319224962+319013881+318806481+319009403
1948+319852650+321486201+323893668+326240068+326889627+325202265+322658914
1938+321082265+320799320+321084071+321374515+321562474+321689158+321813341
1928+322168013+323306773+325524059+327980304+329445789+330088509+330845276
1918+331220430+329904820+327408268+325740938+325933445+327288806+328410972
1908+328475129+327734159+326959999+326587691+326554710+326719027+327177850
1898+328149759+329445615+330346562+330682799+331441371+333144772+334478296
1888+334022667+332444039+331259661+330852427+330803337+330898115+331141240
1878+331480462+331820379+332202616+333282148+336366394+341946774+347747748
1868+349629874+346423771+341414837+337878746+336452701+336248980+336445028
1858+336676627+336831848+336917079+337013801+337443045+338780596+341436674
1848+345540912+350937325+355996184+357226459+353458492+348298607+345333823
1838+344861565+345220610+345562818+347097876+351256932+356829467+360186208
1828+359934091+358392159+356954032+354672450+351521860+349229237+348736391
1818+349249373+349758640+350500999+352428882+355443138+357820575+358015616
1808+356572004+355413698+356149495+359310569+363891996+367465095+368162009
1798+366918402+366662710+369627042+375297409+379451536+377665924+371766735
1788+367251723+366568800+368355766+370525351+372470558+374035681+374638754
1778+374767728+376546362+381821995+389866328+396310994+396773462+392327989
1768+386658454+382068418+380336166+382385872+386209421+388267321+388255552
1758+388266592+388500135+388736142+391147672+397725374+406265088+411187715
1748+410152100+406318379+403333633+402579019+403756836+405454995+406079698
1738+406603546+410554785+418917614+425511946+423320177+415700818+408387943
1728+403017671+400184744+400131453+401888528+405190520+412087968+424288754
1718+438344655+444918018+439943801+430047129+421880974+417970840+418940701
1708+424351939+431817292+437864273+442404038+449105925+458968886+466545890
1698+467482353+463329962+455068334+445216968+439229216+439361072+443746311
1688+450735309+461584101+475605320+483221242+477371039+466676218+459980442
1678+459504851+463941541+469554556+473249616+476480021+481087451+483576191
1668+479767952+473637165+471691749+474620739+477687001+477096044+475275680
1658+477265985+486396412+503443864+522066715+526485213+518850648+515855383
1648+520058426+522391598+515272723+504401157+497934549+498112406+504665355
1638+516516469+529043978+532631623+524711335+515270154+511595021+513762940
1628+518507850+523217765+527650115+531030048+531288274+529808209+531193705
1618+536847095+541660919+539863364+534404390+531174055+531633051+533914183
1608+535836824+536872196+537797480+539142114+540536983+541413802+541961571
1598+543056726+545250335+548073229+550499756+551994542+552790435+553270609
1588+553602402+553997102+554798202+556061250+557625853+560165488+565395294
1578+573839743+581531939+582318250+578367809+577354899+581390536+585966755
1568+586384264+584184371+583102790+585200476+593092677+610219805+633150476
1558+642632103+632390863+619452857+611763403+608920547+609018380+610130513
1548+612317074+618231296+629766378+645605288+662711655+675779850+675460382
1538+663650201+654612816+654292237+658656889+660755199+660059743+662033071
1528+669256272+679364475+689529893+700107057+710990705+718322848+720344642
1518+720192372+719284377+717039005+715403614+718157317+727698657+743930219
1508+761825986+767354777+753778043+737391642+729793912+730731347+736691534
1498+743130542+745469790+743502016+742533752+747148785+756752547+765269451
1488+766429910+761284120+755425793+752331306+752150499+753645007+756524038
1478+761821334+770112715+780223071+788775664+790685807+784847200+777745162
1468+775779125+779637738+784750825+786290673+786285049+790821690+802379756
1458+816042797+820246777+811901654+801022034+794015608+791416744+791623450
1448+791722742+789490631+785971552+783788532+784177643+787313235+793436316
1438+801335808+806199625+804175609+799043845+796211473+796287296+796819233
1428+796498654+796422693+797502122+799385115+802362050+807480830+812889499
1418+813136686+807039851+799940244+795764107+794286958+793630038+792895143
1408+792740999+793747104+795033101+795657455+796797917+800316579+805828428
1398+810917004+813841862+814273537+812400194+809748005+808871186+810552681
1388+812475044+811648913+808663855+807129769+809106430+813745487+819424118
1378+825708286+832794353+839544844+843562324+844184526+843502402+843431301
1368+844441017+847048074+851854885+857650512+861286032+860784577+857509143
1358+854044848+851650331+850204566+849387738+849144440+849159993+848927804
1348+848507726+848302547+848390451+849077713+851327738+855338135+859115094
1338+860007813+857823404+854768009+852819330+852520553+853539643+855235928
1328+856768625+857484147+857531224+857770842+858951089+861030791+863245057
1318+864865728+865954044+867213238+869107203+871431175+873780838+875950666
1308+877703262+878845112+879789282+881243241+883095614+884429242+884883830
1298+885151361+885767731+886179269+885470621+883604708+881428353+879639998
1288+878230339+876821514+875009482+872480816+869408826+866635960+865028829
1278+864664159+864714985+864207003+862958640+861691391+861223611+861856367
1268+863467248+865465989+866739834+866644292+866025353+866359541+868065755
1258+870352233+872408535+874042468+875303745+876249859+877108070+878154447
1248+879498838+881172695+883018472+884407301+884950834+885493604+887253351
1238+890122732+892858242+894654304+895657355+896418496+897459527+898923137
1228+900532767+902257450+904454496+906864012+908460589+909044810+909948639
1218+912351697+915807035+919048793+921462613+923200142+924552309+925816781
1208+927362879+929305656+931275512+932861188+934353960+936600721+939814566
1198+943102150+945631995+947513670+949093027+950448458+951901236+953932403
1188+956488842+959151863+961739061+964275295+966766257+969127794+971146532
1178+972734568+974033340+974768929+974204080+972615696+971956971+973795249
1168+977212537+979835356+980844169+981719530+983559683+985503432+986699302
1158+987937180+990085414+992270240+993040546+992655879+992880430+994510821
1148+996346600+997020808+996625379+996096011+996024424+996947972+999785482
1138+1004627982+1009982978+1014140021+1016600154+1017651392+1017549393
1130+1017035647+1017581819+1020075003+1023659420+1026631077+1028303060
1121+1029050383+1029616135+1031224516+1034516405+1037540138+1036754973
1113+1031467189+1025290228+1022287533+1023584847+1027763831+1032540230
1104+1035559242+1035803790+1034823167+1034856009+1035497862+1034654232
1095+1032503221+1031338736+1032185906+1034410309+1037795588+1042247658
1087+1046489550+1048741102+1048523494+1047985863+1049536960+1052289204
1078+1053344053+1051476890+1047534400+1042907285+1039783428+1040703226
1070+1046407617+1054657684+1060694527+1060345619+1054912925+1050995431
1061+1053572423+1061052531+1067582359+1068898073+1064737906+1056970269
1053+1048625146+1043494771+1044009558+1049878161+1058081152+1065129099
1044+1070070127+1073171974+1073741823+1071172955+1067619923+1066475087
1035+1067215953+1066662630+1065162983+1065981269+1069244482+1071197813
1027+1069261632+1065010644+1061817769+1061215980+1061576275+1060102320
1018+1056466591+1053648107+1054766627+1059384645+1063215277+1062346582
1010+1057654129+1053779477+1054427092+1058906519+1062317905+1060628356
1001+1055704826+1053057011+1055889244+1062861091+1069826898+1072790293
993+1070426812+1064333658+1057357991+1052331490+1050554106+1050162356
984+1048225551+1045112178+1043645929+1044377075+1045334090+1045514342
975+1045224939+1044090032+1041578170+1038315235+1035193738+1032077102
967+1028217516+1023819119+1020570071+1020262754+1023065338+1026894234
958+1028290978+1025201629+1019282895+1013634746+1009450693+1006613669
950+1005182763+1004186448+1001128553+995221067+989134161+985642579+984391925
940+982986779+980538241+978367302+977212121+976310306+975584993+976057564
930+977452989+978002077+977215870+976234900+975445568+974308717+972931901
920+971842613+971146671+970873307+970988152+970868100+969987601+968954207
910+968730767+969421640+970598138+972015505+973339690+973521053+971436629
900+967584057+964124344+962685731+962776760+962746000+961616440+959876898
890+958732964+958394194+958052854+957298517+956546611+956106674+955435798
880+953917821+952191819+951646828+952707509+954292629+954964199+954196045
870+952791594+952281737+953090857+953795617+952994690+951339649+950506783
860+950773619+951293337+952075933+953754373+955930380+957146872+956018562
850+952246533+947406949+944242820+944009520+945140260+945747604+946467362
840+948892431+952198693+953317421+950678911+946463682+943929948+944043057
830+946093457+949709814+954004545+956197633+954378936+951050316+950358887
820+952890746+956205966+958879124+960905847+961381335+959544445+956920585
810+955833588+956990367+959353709+961498610+962441947+961597623+958888359
800+955503636+953929278+955811508+959633183+962091650+962235587+961593596
790+960476395+957489532+952961500+949853612+950473038+954185075+958232481
780+960101379+959503826+958486125+959141100+960971810+961271559+959065417
770+957363716+959383427+963814875+966164330+964881180+963157469+963907500
760+966144957+967109680+966332917+965937279+967319164+968938793+968379637
750+965955957+964323899+965081360+967307360+968625227+967345063+964448326
740+962927433+964685028+968843737+972699990+973764559+971654792+968438240
730+966334722+965294940+964059909+962352723+960747398+959845652+960845578
720+964960266+970567101+973518067+972370176+969866924+968253613+966796392
710+964463740+962644209+962837793+964120248+965021577+965033658+963651981
700+960110059+954495030+948099697+943060003+941666800+944396339+948280991
690+949189333+946651085+943811354+942817399+943132562+943233589+941804280
680+938471633+934544349+931656152+930054645+929433971+929586796+928464943
670+922862552+915146088+914592973+920903457+925677565+926444260+924625979
660+920766324+916050264+914472921+918418328+923633622+923254856+916706906
650+909611882+906429630+907069538+909507591+912629088+914898068+913494311
640+907243194+898499170+891357346+888879368+891624322+896975082+900727114
630+901070606+899325023+896676861+891878383+885079982+880454257+880825453
620+884608592+888001300+888248139+885951524+883065688+879337195+873700919
610+868643867+869399661+877237148+887219745+893606121+894264915+890099402
600+884051380
##END=
