##TITLE=<SNM>
##JCAMP-DX=4.24
##DATA TYPE=INFRARED SPECTRUM
##DATE=3/5/2025
##SAMPLING PROCEDURE=Instrument type and / or accessory
##ORIGIN=Admin
##XUNITS=1/CM
##YUNITS=ABSORBANCE
##RESOLUTION=4
##FIRSTX=4497.3318
##LASTX=599.83466
##DELTAX=-1.4281778
##MAXY=1.7228099
##MINY=0.18055576
##XFACTOR=1
##YFACTOR=1.6044918e-09
##NPOINTS=2730
##FIRSTY=0.19843878
##XYDATA=(X++(Y..Y))
4497+123677032+124195496+124840926+124942861+124312487+123368364+122662113
4487+122514169+123063662+124333178+125995495+127334963+127746086+127189962
4477+126145873+125270196+124971196+125152890+125482222+125799369+126063607
4467+126191798+126207734+126279422+126559058+127186508+128132673+128836482
4457+128631904+127742474+127061874+126848418+126537298+125893912+125500583
4447+125905493+126805298+127221539+126331207+124153685+121561427+119749188
4437+119549050+120805230+122355665+123052907+122838197+122428188+122299459
4427+122502327+122866040+122879070+122003041+120427986+118978456+118233023
4417+118153051+118391564+118647936+118839521+119003866+119039984+118819024
4407+118506047+118325978+118130363+117679239+117172281+117007992+117202149
4397+117456431+117582792+117512358+117151506+116608923+116315718+116590525
4387+117243523+117725499+117546675+116653798+115539052+114800928+114560762
4377+114595031+114848719+115330936+115761972+115864901+115741911+115513289
4367+114996989+114260982+113984912+114521050+115055618+114649389+113693843
4357+113316571+113786185+114413904+114601458+114338065+114089132+114388922
4347+115074258+115219472+114456188+113751897+114140044+115330119+116216633
4337+116226292+115649708+115031193+114680882+114623682+114744322+114955986
4327+115210082+115273040+114726770+113545843+112531435+112662542+113959567
4317+115412347+116134804+116159926+115942885+115649838+115341858+115330983
4307+115777936+116297710+116423217+116182522+115979783+116143079+116578517
4297+116682551+115935762+114788576+114395395+115239272+116592763+117482723
4287+117634039+117371482+117112491+117166756+117617173+118102408+118084494
4277+117634215+117516417+118177672+119121163+119626198+119610642+119441226
4267+119340488+119289576+119246261+119270649+119479034+119873190+120254344
4257+120402586+120353104+120391060+120721553+121262427+121869250+122529242
4247+123109039+123224469+122699809+121866900+121165302+120729614+120498429
4237+120433605+120546982+120894935+121511175+122261948+122910600+123356913
4227+123739460+124276248+124903289+125214483+125040172+124830533+125021041
4217+125346574+125375726+125310048+125587808+126081884+126289434+126010559
4207+125499738+125225934+125501558+126062781+126221526+125720187+125095282
4197+124952074+125314171+125917186+126636169+127297545+127465299+126838063
4187+125733848+124882430+124712967+124955455+125028415+124757982+124528756
4177+124760025+125507130+126576546+127718030+128677625+129337775+129805011
4167+130202251+130469089+130446391+130075592+129528978+129143942+129107862
4157+129247271+129289537+129188038+129016532+128789303+128586778+128609977
4147+128903544+129218462+129350934+129453177+129728225+129965335+129817363
4137+129513989+129738432+130633212+131472176+131631655+131411113+131429594
4127+131646849+131585535+131203266+130896400+130837000+130870359+130914742
4117+131020635+131171681+131342648+131653721+132213059+132799607+132899314
4107+132250059+131256556+130643038+130768238+131412060+132107213+132570373
4097+132847436+133060511+133086543+132749178+132283112+132178640+132546755
4087+133052069+133490209+134012723+134672250+135124154+135015448+134453956
4077+133850458+133441396+133229083+133261123+133609652+134100431+134419761
4067+134522560+134626827+134830197+135028125+135109517+135017147+134830494
4057+134865915+135313993+135831436+135966360+135830693+135868529+136220939
4047+136713697+137140646+137304285+137124988+136806383+136627224+136604805
4037+136526914+136277470+136064627+136308991+137190323+138268023+138768080
4027+138387000+137656631+137379985+137802588+138504102+139025957+139348964
4017+139706101+140100276+140201924+139786398+139124289+138701036+138636249
4007+138691610+138792329+139168226+139957235+140948082+141731954+141983748
3997+141677625+141134438+140755039+140645265+140630535+140608943+140706030
3987+141073356+141630464+142022410+141921032+141483783+141356939+142012789
3977+143173246+144095136+144339991+144086127+143754975+143516574+143271616
3967+143058132+143212512+143978071+145108661+145997284+146159856+145599877
3957+144755127+144084558+143766110+143868241+144543919+145689981+146685899
3947+147033108+146996721+147034743+147029663+146679713+146187903+145943363
3937+146010620+146401925+147258061+148336040+148857672+148456067+147817501
3927+147789398+148334080+148769156+148890112+149297585+150359274+151476667
3917+151679545+150607891+148769741+147117890+146416088+146803622+148065217
3907+150307740+153794453+157905829+160979320+161838270+160654418+158122833
3897+155160352+153171814+153316694+155232169+156773428+156414034+155708452
3887+156612686+158122350+157972493+156753256+156561180+157003954+156469107
3878+155665211+156407310+158803396+161774802+164535724+166092065+165441834
3868+163768141+163128181+163287902+162398248+160091264+157957689+157477450
3858+159395842+164080319+170465738+173979923+170992654+165109224+160584616
3848+158706438+159349332+161760258+164913711+168173650+171309922+173456629
3838+173201548+170840457+168527788+167446318+167045949+166592401+166141993
3828+165941855+166223850+167888572+171702007+176100867+177788325+176681426
3818+175500342+174338203+171601074+168215758+166603174+167822429+171259177
3808+174874685+176783492+177935303+180174027+182373894+182076612+180315210
3798+179474519+179141556+177995224+176591731+176183690+176815365+177900365
3788+179393721+181519141+183983060+186423056+189210855+192701487+196124156
3778+198491414+200282739+202974082+207593883+213984652+220702273+226223022
3768+230737767+235382792+240504212+246240366+253257015+261618054+270062806
3758+277646807+285414434+295256885+308230555+323522039+337683537+347877785
3748+356205910+365938178+376463903+383773970+387804186+393124611+402396087
3738+415457280+430814517+445731728+456736968+462772652+466192851+469508847
3728+473489507+477763938+481511490+484162304+485956470+487732508+490278934
3718+493958393+499193822+506938156+517437246+528087605+535166124+539163352
3708+543094865+548303880+555184287+563696260+572276661+578634460+581971112
3698+583228592+584358505+587597492+594216967+603312545+611163124+613274428
3688+609869015+605624414+603453895+603801272+606694517+611690411+617840922
3678+623970183+627142377+624592422+620155763+619010434+619914632+618636273
3668+615111687+612319820+611476844+612587810+615639978+620390431+626322656
3658+632469934+637395395+641020282+645545206+652682346+660790849+665044811
3648+663081952+658145496+654311462+653797028+656984750+662127976+666296347
3638+668147240+668419242+667598555+665969663+665483907+668377487+673399682
3628+675933367+674595051+672453359+672248373+674970029+679927363+684905723
3618+688402447+690844151+692542735+693303910+693782607+694972180+696520162
3608+697323984+697689526+699346280+702604511+705359304+705675215+704508526
3598+704372339+706210527+709401147+713627991+718605831+722793074+724567812
3588+724140677+723007570+721868445+720252554+717735810+714947584+713401013
3578+714205280+717090019+720718026+723295174+723060990+719918217+716372084
3568+715254580+716665558+718426328+719015505+718227138+716652334+715685429
3558+716180398+717128579+717238019+716777822+716443558+716134779+715974297
3548+716831390+718765570+720227665+720063394+718988833+717751264+715827560
3538+713021057+710844816+711446401+715443072+721149470+725701141+727172747
3528+726067204+723872390+720838462+717190320+715136967+717025677+722417501
3518+728364028+731849683+731307462+727377584+722703620+719567980+718057294
3508+717327993+717524880+719097084+721375185+723209212+724016898+723350303
3498+721093896+718489630+717456527+718610511+720955703+723309514+725081280
3488+726172335+726766118+726758911+725463762+722642696+719452076+717437878
3478+717154583+718474102+720904141+722799983+722096612+719057929+716715635
3468+717373908+719693170+720684890+720200918+720755621+723006901+724300416
3458+722854146+721056376+722385553+727031433+731963878+734424453+734151708
3448+732175476+729799302+728370047+727673436+725794682+722196318+719224281
3438+719112612+721444430+724014000+725241613+725771575+727085745+728534243
3428+727645054+723569183+718561178+715799401+716384343+718497505+719832032
3418+720622777+722712090+726286455+729428931+730773859+730553642+729450105
3408+728645095+729492603+731381982+731469727+728169964+723199182+719044853
3398+716789783+717022631+720344163+725661467+729478710+728929505+725391991
3388+722881933+723327419+725675509+728249016+730226957+731405014+731785639
3378+731944858+732572743+732826989+730884710+726750738+722786238+721268049
3368+722791885+726795540+732228673+737535798+740819661+740958374+738703528
3358+736037000+734362861+733714692+733286814+732100213+729797593+727141468
3348+725245105+724569298+725106392+726650066+728204289+728254217+726398495
3338+723722755+721328750+719550000+718306859+717408828+716877751+717208820
3328+718998640+722472481+727379887+732548820+735748356+735680374+733853405
3318+732666804+732277115+731537932+730994076+731922123+733423893+733289637
3308+731298620+729331824+728590709+728871627+729562666+729916692+729365704
3298+727958960+726335268+725498979+726334005+728936786+732637382+736497420
3288+739100869+738916687+736177496+732978183+730775271+729557316+729296756
3278+729997676+730551562+729605609+727751819+727136267+728604677+730691389
3268+731462000+730604090+729568609+729910005+731398847+731731476+729158043
3258+725429214+724030940+725673949+727939717+729299653+730757291+733136957
3248+735647980+737222487+737232963+735243655+731222614+725928714+720974055
3238+718282935+718545873+720170679+720935420+720586372+720558065+721784415
3228+723926924+725866230+726121292+723811317+720151213+718212873+720202701
3218+725091533+729177286+729226099+725467848+721534181+721319685+725589324
3208+731113917+733526571+731481094+727383677+724393882+723698385+724159325
3198+723978412+722801766+721731886+721366641+720745145+718764975+715998667
3188+713970947+713263711+713373300+713899398+714789256+715580745+715425018
3178+714169469+712952555+712983759+713944497+714267244+713202119+711945901
3168+711962321+713107984+714089748+713867228+712257653+709856738+707442672
3158+705325201+703510194+702233248+701830705+702125963+702631629+703138931
3148+703665773+704365058+705045918+704638695+702436451+699535144+697636404
3138+697089205+697063349+696751821+695905576+695127907+695581863+697482089
3128+699275847+699096047+696625590+693005606+689535183+686875119+685064422
3118+683941790+683452543+683592593+684255325+685229881+686333864+687446539
3108+688358761+688853134+688824456+688144413+686634248+684378435+681987922
3098+680497668+680820638+682684087+684244774+683764963+681669484+679789987
3088+678914246+678296018+677149389+675640635+674713703+675291959+677020038
3078+678045637+676945443+674359380+671988407+670734121+670433811+670577131
3068+670583595+669884383+668366417+666617609+665450028+665222455+665560656
3058+665482867+664189872+662232661+661171845+661566214+662275976+662137337
3048+661105423+659496962+657596216+656094595+655571691+655619241+655369306
3038+654492970+653103092+651319141+649563646+648636194+648927959+649888473
3028+650350156+649390608+647309022+645633620+645388662+645635552+644612702
3018+642129911+639866595+639348669+640482073+641980128+642669681+642364839
3008+641674321+641026226+640132133+638665580+637015067+635667984+634235385
2998+631972886+629170692+627297213+627397588+628739173+629580664+629168314
2988+628283508+627739801+627256275+626310100+625252181+624581426+623742313
2978+621919394+619692371+618580736+619067606+620185705+620951115+621193398
2968+620990641+620157398+618676320+617083499+615790838+614437737+612553597
2958+610566443+609434153+609425535+609786879+609520078+608293654+606655177
2948+605352041+604563561+604042515+603657581+603322203+602798928+602059039
2938+601277841+600071737+597708528+594609813+592374432+591877978+592451664
2928+593100428+593438072+593221495+592260015+591027535+590227131+589648727
2918+588376684+586102000+583596401+581965279+581654160+582051241+582061754
2908+581248980+580201352+579539141+578915750+577430920+574938545+572467048
2898+571170561+571252362+572006070+572477486+572118705+571214805+570451587
2888+569815565+568550172+566484969+564426453+562950279+561916024+561323987
2878+561555422+562478863+563100582+562394981+560191734+557227980+554568325
2868+552957859+552472623+552579537+552553273+551952914+550774895+549345713
2858+548278805+548169179+548884030+549424394+548959999+547727445+546410638
2848+545103936+543588272+542107937+541086350+540444942+539773296+538967059
2838+538245782+537665632+537016794+536148742+535124518+534072729+532915327
2828+531351259+529330783+527342441+525965490+525301013+525012182+524789848
2818+524522638+523981940+522730477+520706695+518598214+517230959+516847920
2808+517084483+517229028+516618936+515285189+513942007+512986470+512113627
2798+511151366+510427191+510027955+509487108+508490894+507346308+506489735
2788+505797842+504687359+502969198+501305980+500488859+500439415+500347026
2778+499650007+498381827+496701930+494768753+493062517+492072284+491549306
2768+490772305+489568504+488367787+487386135+486396087+485135374+483633159
2758+482376421+482019237+482505290+482772203+481777697+479553127+476993216
2748+474978015+473830345+473276980+472762360+471942416+470942301+470023950
2738+469082678+467815279+466350435+465157630+464272602+463243288+461891784
2728+460525161+459421773+458617022+458064622+457665423+457252479+456646920
2718+455664636+454252915+452651884+451161258+449844786+448708113+447886682
2708+447367122+446817545+445966731+444927015+443982697+443220854+442429885
2698+441291057+439731261+438150439+437161655+436958600+437024465+436653499
2688+435760149+434930509+434562143+434236387+433245782+431557303+429846015
2678+428690173+428108835+427750462+427212290+426329045+425352519+424660217
2668+424241664+423746176+422999080+422140167+421333596+420640960+420060476
2658+419472934+418684454+417637421+416417163+415095118+413820178+412924673
2648+412577111+412448725+412073264+411402323+410684352+409994688+409243803
2638+408462084+407754812+407087511+406342719+405542352+404853617+404357497
2628+403908036+403293746+402489665+401644942+400885773+400275682+399854231
2618+399503771+398929342+398023658+397080195+396409180+395979407+395618769
2608+395252409+394781662+394072458+393214547+392534393+392287541+392451292
2598+392697327+392513367+391606087+390273566+389178573+388703740+388640104
2588+388496859+388048921+387526315+387246548+387163744+386921832+386316830
2578+385530691+384880182+384491830+384261880+383991512+383525075+382907516
2568+382418083+382265662+382266331+382052318+381609803+381349800+381558650
2558+381970962+382043662+381582313+380913007+380433493+380201760+380022369
2548+379772359+379533753+379423273+379355291+379116240+378739441+378562428
2538+378738290+378964896+378903713+378613062+378374345+378303168+378307292
2528+378263085+378092758+377786542+377447673+377221401+377104977+376903891
2518+376461043+375888100+375479539+375402864+375557217+375712610+375658707
2508+375264932+374612342+374031746+373765354+373640831+373314741+372757140
2498+372285241+372178476+372387400+372600336+372572660+372346091+372093034
2488+371908257+371871034+372047565+372265330+372168595+371655424+371007032
2478+370507606+370186419+369965385+369803602+369654488+369482230+369337685
2468+369269183+369192359+368983473+368643303+368275866+367978677+367779820
2458+367582673+367219433+366702176+366332139+366377794+366703922+366885802
2448+366693186+366307324+366014258+365860500+365728288+365575087+365408104
2438+365148918+364739541+364327451+364170795+364347734+364651647+364802842
2428+364706441+364441646+364048502+363467089+362734036+362108341+361855917
2418+361951426+362150988+362322280+362488112+362604833+362602752+362616757
2408+362855214+363244160+363474482+363397844+363142373+362854731+362551784
2398+362271164+362170268+362348804+362659887+362804246+362589305+362064506
2388+361443716+360885781+360266327+359132180+356952225+353522257+349158595
2378+344461153+339859702+335372038+330789162+326119062+321769405+318096410
2368+314933280+312020940+309669507+308360687+308137758+309074126+311638012
2358+315950483+321419985+327645461+335048957+343875653+352801759+359398536
2348+361917992+360518827+357247297+354254604+351743618+348723659+344913325
2338+340818025+336864595+333043080+329223311+325696088+323178972+322167266
2328+322442203+323215229+323703399+323804926+324220916+325640439+327911854
2318+330241146+332018224+333246915+334285367+335384557+336584235+337940679
2308+339535544+341197201+342523369+343314895+343794818+344305983+344941484
2298+345568516+346088930+346524498+346896839+347183849+347415359+347698283
2288+348106175+348579225+348977755+349240210+349411651+349485168+349366255
2278+349075939+348792235+348599545+348407413+348148821+347851261+347540290
2268+347258517+347105651+347126603+347252871+347401020+347501284+347437685
2258+347135593+346728332+346484043+346506258+346617109+346615661+346544447
2248+346585459+346780229+346978157+347031354+346982838+347065902+347471416
2238+348096442+348632570+348916646+349028426+349079914+349146856+349330630
2228+349628673+349851268+349900007+349962639+350227472+350606908+350916021
2218+351126803+351306416+351473028+351620656+351794103+352082191+352556430
2208+353201924+353899464+354505989+354957828+355286630+355569071+355896053
2198+356349600+356927521+357494595+357885621+358076268+358200642+358429366
2188+358893723+359643977+360550737+361313324+361718355+361868027+362075131
2178+362573888+363352077+364195425+364885460+365398817+365904633+366572936
2168+367437644+368417402+369414211+370439995+371687483+373391601+375594700
2158+378144024+380930950+383985383+387274335+390587175+393767579+396886985
2148+399987446+402874673+405435773+407894342+410451950+413000382+415461961
2138+418050030+420980796+424259495+427809194+431496900+435079809+438395249
2128+441537613+444704569+447948163+451121324+453989345+456330265+457902283
2118+458404161+457658031+455845699+453434456+450856603+448305570+445789940
2108+443289356+440794938+438267346+435712896+433271452+431075672+429052038
2098+426927137+424352887+421054016+417012321+412522874+408020722+403835968
2088+400011146+396331316+392681391+389318549+386560748+384333800+382333421
2078+380507827+379042686+377944535+376979823+376030379+375215190+374619697
2068+374162026+373753466+373366043+372953619+372497620+372061198+371660290
2058+371211721+370694612+370203842+369801076+369457712+369168956+369025896
2048+369114830+369368109+369617228+369847846+370288615+371174312+372550520
2038+374371916+376623828+379262754+382160829+385169458+388138078+390844206
2028+393021858+394498775+395211025+395100062+394174690+392674815+390942835
2018+389060849+386816033+384145456+381439663+379215055+377589172+376235625
2008+374789689+373161466+371490818+369910219+368382854+366811319+365286220
1998+364068822+363316897+362984231+362915061+362860712+362538262+361852239
1988+360966319+360134301+359543601+359223157+359021960+358757648+358377283
1978+357925668+357440284+356941452+356484264+356196140+356205167+356448304
1968+356628735+356492288+356085845+355640099+355308771+355111474+355011582
1958+354951067+354845119+354609411+354218199+353749086+353363929+353219533
1948+353419355+354039477+354997317+355767333+355605625+354448780+353145347
1938+352436551+352260987+352203369+352110981+352052955+352001950+351849640
1928+351716871+352009825+352878583+353786941+354140818+354156941+354327824
1918+354388265+353778805+352814316+352372879+352767025+353521662+353943782
1908+353722413+353098131+352491308+352040956+351651155+351368529+351440337
1898+351981666+352726979+353241487+353485182+353898015+354593140+354872869
1888+354140335+352883932+352022753+351834149+351965247+352027694+351916508
1878+351766167+351742281+351919888+352485736+353853734+356109880+358276016
1868+358791527+357330510+355187332+353604875+352857891+352666464+352722336
1858+352843737+352976395+353110316+353197875+353289743+353640984+354565390
1848+356322556+358870728+361185941+361474883+359471050+357116385+355969533
1838+355946129+356233585+356513054+357329915+359263946+361754538+363293717
1828+363385251+362997754+362605761+361763862+360557350+359763595+359665374
1818+359856467+360085079+360681092+362025611+363851132+365276412+365681035
1808+365360034+365102297+365534298+366918678+369009737+370989646+372069482
1798+372404897+373070080+375044120+378130241+380522055+380469787+378840040
1788+377891896+378589510+380406003+382587183+384857595+386966634+388513205
1778+389670755+391452440+394856962+399665144+403826755+405233164+404349993
1768+402950345+402179585+402857139+405340189+408584749+410868720+412080025
1758+413332936+414837492+416385104+418722792+422622579+427194533+430315054
1748+431179168+430981871+431114343+432213979+434232598+436477526+438192863
1738+440014408+443722471+449581291+454417817+455155217+453674288+452609497
1728+452412238+453142320+455078803+458058381+462011960+467694175+475511952
1718+483443292+487484504+486726264+484468668+483464801+484550544+487767577
1708+492786614+498534842+503628957+508248833+514050481+521262476+527334788
1698+530600968+531973498+531716133+530556427+530966548+534338045+539930731
1688+546797764+555404429+565530547+572985939+574510816+573735078+574777394
1678+578833168+585412671+592774597+599122478+604687712+610353284+615056447
1668+617504615+619498381+623613110+629838921+635860934+640037627+643545496
1658+648604246+656656208+668085499+680333843+686803200+687667945+689859787
1648+695089495+699914283+700845598+699448811+699111278+701308916+706235862
1638+713097286+719172941+720476412+717062008+713447300+712193980+712918526
1628+714309668+715565588+716337833+715649841+712942822+710115069+709389334
1618+710002583+708610030+703823431+698309314+694063970+690667398+687206559
1608+683572756+680282503+677659440+675574139+673847843+672614881+672186632
1598+672543927+673046845+672875367+671798131+670253938+668760118+667496471
1588+666297833+664967244+663661099+662765818+662516550+663197336+665383978
1578+669115407+672587168+673366992+672546230+673256586+676109748+679022199
1568+680407991+681450827+683745126+687978136+695395897+707923747+724291426
1558+735518108+737589292+738127724+741706473+748327619+756997957+766624203
1548+776182467+785506620+795106194+805005928+814355491+820816601+821050414
1538+816942372+814318862+815043855+817191936+818421332+819136443+821448796
1528+825848603+830796204+835072158+839384072+844397501+848975250+851950928
1518+853454110+853586953+852820206+852831499+855046448+859676354+866417936
1508+873960590+877800717+874747472+869968154+868495806+870447669+873802486
1498+876213282+876261130+874902382+874705420+877043182+880863026+883526507
1488+883398344+881539502+879877993+879269722+879437113+880018935+881615359
1478+885252803+890948800+897346609+902025922+902302308+898521025+894817679
1468+893995729+895225646+896083258+895801152+896141730+898745774+903491732
1458+908037385+908470687+904630634+900548002+898001019+896325319+894992129
1448+894357631+894916866+896560321+898511143+899874646+900677130+902050812
1438+904487612+906097336+904646088+901566988+900029036+901130715+903484228
1428+905138010+905595012+905519972+905759581+906992618+908799898+909036460
1418+906317627+902757453+900628466+899534588+898462479+897586143+897635848
1408+898716427+900080078+900631958+900136098+899730955+900219311+900710787
1398+899920042+897975089+895731610+893435900+891191529+889511817+888487184
1388+887130740+884489473+881440464+879986616+880927590+883484009+886759551
1378+890734007+895690226+900938657+904590068+905479183+904850703+904971659
1368+906864678+909861159+912832305+915239387+916962488+917863862+917997746
1358+917935485+918458017+919875237+921690764+923210885+924317171+925264832
1348+926123559+926803750+927431933+928281299+929384910+930602419+931919857
1338+933398669+934983058+936467814+937609613+938371606+938964795+939453448
1328+939699817+939882514+940439075+941396246+942390491+943296620+944369250
1318+945864556+947608237+948822254+948664744+946992536+944333513+941482877
1308+939407829+938826453+939553229+940762416+941807927+942519843+943100624
1298+943820342+944481141+944499715+943585711+941817140+939298167+936383858
1288+933943714+932825021+933044940+933478762+932469137+929240699+924656561
1278+920254673+916882693+914414316+912314454+910191559+908025498+906079802
1268+904457150+902816370+900807076+898611742+896508016+894101008+890916332
1258+887528453+884934959+883072997+881012512+878452378+876276732+875463623
1248+875883031+876468196+876388178+875609469+874520791+873658349+873573650
1238+874466257+876173756+878439896+880728473+882329281+883130057+883581858
1228+883764258+883586762+883740632+885080211+887268413+889160614+890570107
1218+892545967+895641636+898868439+900937245+901790474+902334924+903372857
1208+905145811+907442562+909961089+912524566+914713585+915863558+916252950
1198+917425434+920373102+924180167+927068991+928311167+928615711+929053545
1188+930161168+931957675+934274114+936764037+939097341+941300774+943422034
1178+945251083+946947735+949055547+951407054+953197989+954523006+956492105
1168+959293705+961473214+962042405+962376000+964460854+967888408+970599440
1158+972159979+973949948+976562535+979063454+980323015+980011041+978884992
1148+978424350+979469786+981285536+982551263+982947936+983207011+984289224
1138+986925736+991226208+996167270+999689182+1000639964+1000672209+1002248350
1128+1004787755+1005233835+1002675410+999881166+999826780+1002973714+1008079791
1118+1013647625+1017873577+1019098144+1017655738+1015971642+1016072538
1110+1017921647+1020439580+1023163094+1026383359+1029686836+1030861178
1101+1028219243+1023321198+1019737249+1019556186+1022138832+1026114403
1093+1031060518+1036971159+1042896735+1046328301+1045304856+1041299270
1084+1037388264+1034866022+1034143630+1036522850+1041953457+1046867847
1075+1047676350+1045297204+1042900449+1041534123+1041085814+1041924704
1067+1043593345+1044691979+1044947264+1045314738+1046436477+1048649346
1058+1051965008+1055004582+1055709143+1054383903+1054024899+1056401370
1050+1059698384+1061344736+1061968461+1064210826+1068648748+1072858726
1041+1073741823+1070389681+1065017248+1060754742+1059018341+1059449117
1033+1061183957+1063172819+1064419750+1064767907+1064739525+1064276208
1024+1062594638+1060048993+1058635934+1059600460+1061717337+1062721538
1015+1061915042+1060268244+1058366235+1055805729+1052389543+1048817258
1007+1046386104+1046016550+1047206271+1048454464+1048866443+1048390346
998+1046763385+1043915795+1040959434+1039187966+1038818411+1039314271
990+1040107320+1040913593+1041953680+1043277136+1043547950+1041185224
981+1036845968+1032678637+1029242093+1025166816+1019811397+1014341561
973+1009900444+1006292199+1002740123+999160557+996204122+994031671+991802160
963+988547718+984201999+979540517+975270952+971664565+968719571+966037442
953+962869111+958985223+955389906+953379794+952763276+952065031+950726195
943+949714266+949821180+950743432+951598593+951326368+949460170+947136078
933+946150228+946883691+948090723+948395639+947582753+946766450+946974482
923+947442183+946443405+944063591+942461297+943054783+944915780+945960845
913+944890073+942147540+939407904+938051385+938111194+938660102+938912564
903+938781875+938519532+938246489+938011636+937828865+937471421+936840711
893+936406964+936393962+936004199+934395070+931958789+929840278+928558057
883+927902978+927740787+928089092+928437769+927894062+926535909+925469149
873+925175007+925244549+925484975+925801035+925769236+925651103+926463098
863+928078691+929011270+928429968+927186307+926521049+926158776+924572233
853+921296617+918030214+916868205+918204143+920711303+922711236+923449379
843+923461861+923572415+923585194+922699646+921179673+920571030+921981637
833+924692520+926742901+926859399+925478808+923921687+923224333+923743968
823+925243806+927217957+929188617+930607620+931024056+930796038+930962983
813+932126701+934133320+936332444+937766752+937938304+937411909+937179730
803+937226017+936550655+934939520+933563684+933377569+933996911+934729853
793+935770460+937371639+938543381+938094180+936871322+937360198+940492792
783+944316944+946756271+947846731+947999338+946438427+942794966+938320935
773+934560158+932317125+931825946+932676723+933844601+934324562+933896089
763+933542063+934596267+936965902+938976831+939282490+938068622+936573167
753+936022402+936709354+937886965+938706018+938641008+937127573+934388903
743+932049803+931422363+932378940+934760909+938867911+943730516+947107845
733+947785436+946510273+944767631+942925134+939843508+935269548+931242118
723+929865316+930819441+932019713+932578577+933372220+934822427+935983619
713+936406667+937346824+939799896+942447626+943092526+941620846+939881623
703+938849263+937048001+932677838+926430258+920507135+915959030+912563424
693+910495509+910366900+911602538+911840957+908972564+903772130+899179595
683+897151727+897515412+899133011+900745112+900985315+899241931+896572803
673+893839556+889785305+882565695+873389988+867380754+866034859+865806395
663+864809549+864245485+866165177+870113554+872457409+870380578+865376140
653+860778479+857799532+856111870+855888235+856755358+857163176+856431200
643+855187910+853405148+850449976+846730656+843013269+840027412+839312153
633+841520118+843834105+842057509+835674932+828386448+824606725+826134351
623+829929676+830074927+824736448+818925142+818335742+822747437+826795522
613+827106976+826155822+827959016+832823850+837209467+838113738+835563709
603+830802594+825044336+820118355
##END=
