##TITLE=<SNM>
##JCAMP-DX=4.24
##DATA TYPE=INFRARED SPECTRUM
##DATE=2/5/2025
##SAMPLING PROCEDURE=Instrument type and / or accessory
##ORIGIN=Admin
##XUNITS=1/CM
##YUNITS=ABSORBANCE
##RESOLUTION=4
##FIRSTX=4497.3318
##LASTX=599.83466
##DELTAX=-1.4281778
##MAXY=1.7168143
##MINY=0.20530336
##XFACTOR=1
##YFACTOR=1.5989079e-09
##NPOINTS=2730
##FIRSTY=0.22615504
##XYDATA=(X++(Y..Y))
4497+141443446+141525542+141607853+141306327+140966358+141124297+141753965
4487+142460204+143104196+143787797+144392051+144540662+143972167+142747741
4477+141211659+139888016+139293818+139697617+140955454+142495441+143547958
4467+143622011+142949379+142369841+142532347+143211735+143592943+143198650
4457+142344361+141639921+141274510+141005071+140706984+140552465+140603024
4447+140604487+140342747+139917820+139532260+139195394+138733003+138101591
4437+137679134+138004593+139073205+140136439+140384107+139698027+138665230
4427+137956597+137758136+137762200+137556311+136917631+135896083+134774909
4417+133909287+133590632+134010032+135058727+136128728+136500682+135998179
4407+135018933+134113544+133704899+133870965+134254307+134391231+134034300
4397+133127448+131900478+130990150+130935006+131594628+132428237+133132154
4387+133701907+134068009+133961299+133178622+131919005+130740879+130032600
4377+129615949+129094071+128521568+128402240+128971909+129786562+130190660
4367+130036020+129758231+129801492+130107138+130179281+129672416+128861677
4357+128409594+128690607+129422530+129957167+129921044+129539388+129263929
4347+129204629+129137817+128968293+128920847+129348160+130390118+131607563
4337+132085481+131333493+129970028+129031340+128782750+128756841+128788780
4327+129309586+130488281+131635345+131799416+130807300+129472073+128728650
4317+128754185+129115086+129471085+129678027+129491663+128891677+128504467
4307+128896253+129604448+129658977+129014547+128702545+129443732+130731242
4297+131460314+131182143+130589752+130753898+131910720+133193421+133701665
4287+133442832+132906294+132288210+131659026+131344043+131581590+132185601
4277+132823984+133231473+133141325+132501563+131708448+131237911+131142702
4267+131150782+131136486+131264239+131681113+132257073+132745373+133055119
4257+133230094+133355209+133589522+134068139+134716708+135323394+135697641
4247+135679011+135244402+134735794+134683288+135238064+135964899+136275828
4237+135944181+135182985+134386608+133880377+133760052+133864711+133973527
4227+134047925+134181009+134311054+134164560+133663716+133260345+133496588
4217+134241195+134797005+134818757+134691881+134943463+135649878+136374429
4207+136496022+135832039+134951636+134550307+134730846+135226051+135864042
4197+136430580+136519629+135918832+134932130+134162248+134046182+134511574
4187+135034049+135172305+134982372+134790333+134834051+135263507+136123164
4177+137182428+138114005+138895778+139688223+140341200+140445682+139915947
4167+139202048+138840271+138965731+139340901+139648643+139598373+138979562
4157+137871621+136690345+135936838+135991133+136960091+138440573+139612473
4147+139923319+139588093+139185962+138935060+138607030+138049728+137500711
4137+137325801+137661558+138338961+138979291+139270789+139298468+139336781
4127+139323566+139039738+138687029+138621056+138722238+138677104+138536275
4117+138474729+138467720+138577748+139079123+139953216+140623210+140513305
4107+139692584+138751968+138226744+138317619+138891808+139540107+139911697
4097+140043728+140102730+140069319+140043290+140366139+141015304+141425813
4087+141269990+140912584+140843451+141084101+141306979+141266150+140999685
4077+140713098+140544348+140472075+140445738+140485141+140547358+140454023
4067+140131695+139772388+139589035+139612585+139840440+140310231+140940002
4057+141580835+142191427+142712280+142959417+142859408+142634340+142609326
4047+142874608+143137244+142951709+142235126+141440203+141022648+140911409
4037+140719864+140333269+140112516+140556212+141768262+143183786+143958187
4027+143812923+143346860+143340793+143975578+144861759+145495463+145554856
4017+145125438+144674165+144500671+144409321+144209350+144122249+144305640
4007+144462582+144413589+144615097+145542769+146818658+147473414+147075617
3997+146203658+145685862+145713438+145904052+145973977+146009261+146199576
3987+146580123+147000753+147237116+147148021+146805088+146528557+146769264
3977+147770625+149164724+150055620+149839946+148899554+148124723+147856720
3967+147800308+147942255+148787150+150384686+151851579+152349189+151974300
3957+151290251+150649213+150325767+150768718+152250085+154226294+155387738
3947+154989447+153957946+153690082+154082362+153838795+152526429+151032043
3937+150319831+151000086+153396264+156817689+159235283+159152898+157573918
3927+156662704+157151796+157963924+158054230+157871306+158505615+160031754
3917+161046787+159986349+157029430+153985420+152393923+152612347+154663401
3907+158983822+165565389+172655581+177448906+178623006+176632156+172052474
3897+166200780+162031476+162072724+165667028+168615690+167714448+165672490
3887+166685510+170285238+172813027+173467448+174054060+173651864+170584154
3878+167521346+168126449+172134579+176931706+181054841+183460040+182749626
3868+180374231+179347735+179391760+177633378+173586869+170086768+169660900
3858+173341484+181586150+192853438+199362256+193822041+182350748+173115932
3848+168800553+169284184+173178410+178643062+184541000+190431538+194891930
3838+195435224+191954153+187503007+184259101+182034217+180193562+178881904
3828+178192218+178200997+180458536+186776825+194910830+198586810+196692716
3818+194076428+191640400+186678130+180127896+175829796+176029552+180629998
3808+186880906+191041747+193548232+197411834+201186174+200321950+195942601
3798+192491111+190305239+187846378+185737467+185390909+186708102+188942697
3788+192008226+195885528+199871124+203623898+207877525+212622500+215980738
3778+216978792+217731013+221040193+228174001+238682749+250240062+259854092
3768+267000705+273173273+279146737+285934061+295692526+309075248+323391271
3758+335523919+346110224+358584268+375921123+398027891+419603928+435334794
3748+447797841+461266769+473639788+478756055+478404781+480586720+489151607
3738+503011957+517804080+528126679+531433082+530078386+528625836+529707281
3728+532971000+536316955+537745462+536826215+534264819+531028574+528338121
3718+527173844+528155868+532560528+541596799+552695011+559046421+558108237
3708+554995719+555237171+560373717+567388197+570765355+569031650+566947455
3698+568165003+571666745+575579667+580549393+588344705+597656799+602495156
3688+599107225+592137479+587346279+586427368+589176907+595142524+603450190
3678+611698136+614723349+609150758+601286182+598257801+597791523+593569042
3668+585674457+579286290+576886422+577488244+578988660+580235807+581421557
3658+582480336+582838656+583856467+588824067+599239861+612202960+620552825
3648+619359209+612127508+604654243+599723026+597520621+596875780+596977178
3638+598674423+603131758+609586318+616597182+624710516+633923301+638900258
3628+634966647+628322602+626557919+630682843+638277114+646378668+652085834
3618+654194819+654736324+656616048+660892918+666574138+671478403+672865754
3608+669221274+663124549+659442343+660199615+663632056+667319854+671158779
3598+676355604+682056433+685384271+685209883+684279340+686114852+690845549
3588+694834406+695020127+692483634+689839182+688498131+688913710+690828699
3578+692995615+693756242+692683520+691703398+693694956+699199030+704575537
3568+704449238+698125339+690890357+686227060+683348351+681916639+683393085
3558+687634765+691978363+694374243+694896438+694354112+693837360+694416442
3548+695632909+696086661+695663775+695307767+695380087+695608007+695382622
3538+693659244+690204659+686413451+683554202+681778709+681223485+682429067
3528+685140619+687453666+687509584+686060798+685586767+686635928+687098404
3518+685502219+682874245+681043580+680944867+682501760+684653839+686043576
3508+686806589+688331497+690514890+691253672+689532083+687166027+686461615
3498+687482967+688254480+687493629+686689758+688344395+692330420+695375912
3488+694804136+691350148+687213817+683414557+680140549+678211171+678964194
3478+682733482+687913159+691562038+691426196+687784624+683007552+679846125
3468+680271545+684245492+688825211+690243205+688062273+685247608+683514836
3458+681515226+678054826+674339069+672170886+672104978+673863174+676811667
3448+680001650+682580641+683706149+682557603+679511663+676503674+675479041
3438+676596422+678179932+678216017+675969922+672578114+670126317+670046244
3428+672356905+676203359+680701812+685165298+688633675+689552661+687080808
3418+682547016+678302801+675497158+673948616+673722187+675138317+677485212
3408+679149467+679112487+677941276+677323872+678496276+680873740+682440325
3398+681972333+680503640+679653097+679134928+677489015+674864768+672931364
3388+672308294+672274221+672564843+673459300+674578992+675252687+675539208
3378+675699207+675439153+674618582+673366030+671449326+668994845+667285409
3368+667562164+669387311+671643844+674584733+678980149+683645832+685720969
3358+683752448+679287099+675297123+673448266+672878876+671800563+669955657
3348+668305643+667045784+666394904+667837949+672008128+676447458+677821910
3338+675921237+673469962+672818485+674335565+676949597+679183614+680441311
3328+681583519+683515731+685654017+686797344+686823811+686347543+685727679
3318+685075159+684009818+681805549+678647104+675878292+674576756+674465666
3308+674361212+673497324+672511610+672801337+674674201+676800335+677768901
3298+677431308+676860502+677477757+679505624+681319812+681264417+679845827
3288+679000577+679632893+680727609+680618308+678931687+677234553+677470450
3278+680052050+683787490+687070221+688745958+688457498+686619004+684060293
3268+681917757+681394369+682788728+685057936+686842674+687455754+686756263
3258+684985169+682884012+681215358+680045117+679112487+678815006+680155759
3248+683279908+686264860+686480030+683587529+679792146+676968758+675282584
3238+674567287+675243442+677326556+679673079+680739836+679924484+678089047
3228+676694091+676509787+677113025+677550151+677353844+676715116+676044926
3218+675808581+676206341+676514186+675668639+674030181+673220271+673821422
3208+674704546+674989651+675142343+675564557+675622935+674943500+674349283
3198+674407437+674274428+673236226+672090514+671403101+670173288+668109484
3188+667048617+668022551+669010949+667659087+664791413+663320633+664706269
3178+667643803+669680319+669468504+667359220+664372330+661328851+658783038
3168+656966912+655638609+654379272+653088920+652079571+651935304+653115760
3158+655149965+656662422+656902420+656489003+655846324+654241641+651374861
3148+648507411+647051691+647064962+647722925+648585546+649675714+650614607
3138+650633171+649644549+648611268+648088998+647200879+645158771+642812621
3128+641420200+640819870+639903046+638342500+636949706+636375769+636233365
3118+635767833+634872184+634053626+633795809+634253811+635112778+635610444
3108+635216412+634305106+633671448+633487070+633156485+632093978+630344505
3098+628500047+627159443+626437659+626077178+625851867+625585626+625179590
3088+624847663+624853963+624922630+624433016+623283501+622028600+621196212
3078+620876215+620769151+620517485+620240507+620524083+621567243+622604998
3068+622507627+620906373+618409879+615703657+613060324+610853073+609745124
3058+609878095+610544893+611112829+611484121+611592825+611524941+611772171
3048+612232186+611791332+610011515+608099173+607156515+606774561+606223140
3038+605728232+605799248+606217697+606153877+604920224+602603636+600052679
3028+598164903+597164613+596601747+595952694+595024650+594023279+593487775
3018+593815042+594633264+594969999+594188645+592535761+590816856+589797107
3008+589738282+590253617+590676018+590541183+589693958+588321443+587019423
2998+586362019+586216596+585808324+584649675+583144748+581941962+580920610
2988+579473838+577786806+576875872+577073261+577362802+576592370+574748807
2978+572742337+571277783+570204986+569080448+568174509+568241871+569227958
2968+570011661+569774422+569001940+568592437+568445859+567709648+566185449
2958+564554856+563294103+562336086+561638981+561156301+560682792+560243914
2948+559989377+559639110+558699434+557235402+555872916+555131524+554948375
2938+554723960+554048700+553280691+552923900+552786790+552364240+551557201
2928+550482056+549146224+547609611+546037545+544618210+543702877+543612738
2918+543939408+543697323+542585906+541329365+540591738+540337164+540191518
2908+539732062+538566890+536728620+534810612+533418489+532726156+532474154
2898+532137195+531356885+530326362+529436118+528767456+528305801+528209847
2888+528521121+528967902+529128907+528540580+526981152+524907693+523173393
2878+522195209+521653331+520938332+519782368+518542490+517802179+517684380
2868+517772878+517606170+517010797+516158241+515472282+515234708+515216926
2858+514935847+514225844+513286690+512188321+510739051+509034685+507693000
2848+507134309+506942847+506379124+505294548+504123747+503147390+502146615
2838+500833634+499403600+498371698+497893454+497618563+497234596+496737042
2828+496157737+495441806+494599427+493769238+493167566+492912731+492682798
2818+491782004+489970873+487943005+486579140+486054522+485938288+485763601
2808+485238200+484338897+483463900+483091899+483129700+482942562+482056046
2798+480546944+478859726+477470772+476558645+475835855+474839890+473460442
2788+472071749+471100424+470518733+469896184+469032035+468258286+467822427
2778+467337212+466297892+464854922+463595286+462768378+462160964+461591761
2768+461113741+460742859+460298762+459581005+458558832+457413008+456506361
2758+456142263+456139617+455822564+454686991+452949708+451261894+450068987
2748+449407967+449085994+448814682+448280223+447328171+446131238+445045319
2738+444254310+443607382+442835757+441889931+440976127+440218966+439452039
2728+438557731+437800086+437418766+437078638+436217397+434846597+433552554
2718+432746037+432239275+431551042+430458563+429178983+428064174+427300267
2708+426935908+426904967+426898145+426534569+425775619+424905990+424103984
2698+423273646+422290243+421216142+420217343+419357965+418599985+417977660
2688+417564094+417250546+416794520+416087126+415180367+414164271+413167262
2678+412306915+411562616+410852500+410197967+409654523+409194397+408750412
2668+408290322+407814576+407289771+406651305+405932280+405298958+404817844
2658+404277494+403417707+402303084+401330865+400810571+400572847+400101164
2648+399126410+397974956+397203406+396977835+396949727+396723596+396271186
2638+395781983+395315593+394821096+394292713+393692755+392957029+392236625
2628+391838567+391799947+391754579+391287929+390334796+389276575+388637848
2618+388556656+388575929+388070695+386893520+385535880+384622523+384304464
2608+384246384+384097234+383713416+383028687+382113876+381335020+381056290
2598+381146801+381049878+380391952+379343126+378336014+377609981+377133191
2588+376799997+376509300+376138493+375623530+375028642+374448292+373916069
2578+373451171+373094343+372846703+372638205+372398990+372123428+371824307
2568+371433369+370820177+369969075+369082298+368420943+368063071+367875225
2558+367676830+367368650+366961309+366571713+366350578+366314753+366279600
2548+366062901+365734516+365525012+365479569+365360279+364947980+364311490
2538+363700311+363235525+362782667+362183045+361564523+361196772+361014331
2528+360665891+360158644+359972625+360328559+360797893+360842068+360357785
2518+359582806+358835897+358422815+358487232+358857033+359168420+359151793
2508+358760259+358138382+357533540+357137980+356947599+356778281+356409822
2498+355774450+355102582+354757757+354767524+354721150+354338264+353853608
2488+353613461+353613349+353630497+353512698+353217640+352808361+352437366
2478+352200873+352057910+351930456+351759385+351461009+350986158+350443870
2468+350054833+349944973+350038766+350154478+350131067+349888422+349499907
2458+349187627+349081905+349004776+348657230+347995129+347294036+346869547
2448+346821831+347042630+347392152+347760201+347972166+347856454+347468983
2438+347037784+346665672+346316746+346042042+345943926+345959993+345928604
2428+345839285+345828586+345950002+346079171+346045882+345801299+345442979
2418+345115713+344928389+344939088+345124883+345334611+345375543+345207194
2408+344965779+344776070+344648354+344561421+344507293+344454022+344377564
2398+344292271+344170035+343942787+343649481+343427227+343300108+343117183
2388+342730868+342116520+341296098+340187366+338509467+335906507+332321374
2378+328204800+324186903+320597184+317443958+314696767+312298912+309999956
2368+307556640+305172317+303430859+302676327+302750473+303483943+305075375
2358+307760310+311497893+316342793+322739086+330680455+338711218+344660693
2348+347266040+346929006+345352244+343992255+342688072+340573942+337566176
2338+334242513+331054506+328014494+324978471+322147851+319992455+318605365
2328+317637209+316883291+316383426+316103652+316046989+316473490+317550126
2318+318957309+320182910+321059510+321776895+322533310+323435893+324607216
2308+326074268+327587172+328776464+329498918+329931645+330360085+330927499
2298+331575285+332186128+332725993+333228654+333698361+334074239+334296269
2288+334405494+334532912+334754345+334995573+335089887+334904055+334478485
2278+334072300+333957222+334128143+334309987+334282550+334126205+334079010
2268+334186372+334259549+334213846+334194163+334277219+334336566+334312522
2258+334351068+334553974+334787224+334856935+334768399+334688511+334689369
2248+334690226+334677738+334804633+335194267+335738754+336146318+336218899
2238+336087232+336076235+336341918+336807599+337411918+338175752+339039342
2228+339841870+340470942+340954666+341460608+342205541+343261115+344457973
2218+345590452+346674879+347874683+349236908+350687223+352232373+353970513
2208+355915399+357942297+359897621+361725714+363517386+365416271+367482535
2198+369709245+372098191+374586968+376976212+379082177+380937931+382729640
2188+384549196+386339638+388066930+389724475+391168228+392224435+392946852
2178+393534844+394113553+394725850+395318128+395684723+395639952+395207151
2168+394537408+393759185+392903721+391889564+390648419+389209363+387553347
2158+385552170+383151258+380445484+377536058+374426075+371125822+367816064
2148+364667349+361581522+358714108+357121577+357936929+360994201+365132918
2138+369520617+373848782+377862057+381573527+385384045+389548484+394008167
2128+398691334+403514705+408314777+413086927+418074733+423471407+429157176
2118+434825199+440348583+445888183+451630726+457597014+463596889+469230281
2108+474304722+479407718+485586007+493450807+503093895+514657639+528187293
2098+542786314+556529126+567617124+575435400+580410792+583336956+584856085
2088+584981415+583051776+578262739+570016955+558211722+543648562+527526087
2078+510585166+493462922+477174297+462494457+449565170+438311769+428623946
2068+420350613+413481966+407899682+403068148+398591950+394669336+391560098
2058+389177527+387299705+385663558+384039937+382475737+381141135+380035049
2048+379131609+378483077+378079390+377947089+378216425+378917966+380108152
2038+382200623+385797723+391368785+399315597+410076104+423971869+440895568
2028+459928029+479318063+497157691+512101351+523594787+531887020+537713328
2018+541663267+543985596+544788646+544053741+541659651+537502556+531448179
2008+523411266+513642997+502723460+491282996+479803129+468482105+457255432
1998+446197854+435895647+427064891+419657944+412702028+405391856+398034937
1988+391474805+386107879+381832760+378394243+375485451+372882266+370580179
1978+368614082+366881272+365262609+363752053+362490852+361754679+361633003
1968+361631996+361007994+359650279+358174206+357068157+356271668+355626566
1958+355217362+355080961+354978296+354671197+354213158+353864792+353842238
1948+354225236+355090094+356463204+357813128+358017003+356633865+354684431
1938+353349978+352745509+352425102+352231888+352226408+352326799+352377125
1928+352479454+353122505+354600405+356279609+357233040+357605450+358067776
1918+358196238+357039938+355048491+353736815+353854988+354837086+355529680
1908+355231230+354220315+353237509+352627374+352287247+352199531+352579956
1898+353501328+354539604+355059973+355158015+355764422+357144280+358066248
1888+357449850+355976200+354901204+354522158+354486035+354513398+354461618
1878+354312318+354219346+354437760+355506605+358268968+362825761+367204588
1868+368298707+365475730+361362027+358478248+357381296+357388080+357648432
1858+357684480+357548340+357532385+357733986+358190161+359179864+361061973
1848+364140494+368396525+372303893+372837085+369333666+365063058+362829526
1838+362577711+362873403+363182589+364639017+368386237+373242934+376091410
1828+375877097+374594125+373302542+371190053+368399582+366472627+366134475
1818+366661889+367190422+367833846+369308876+371612118+373486660+373718942
1808+372670302+371817634+372410061+374872632+378516218+381551607+382435887
1798+381715669+381733824+384439561+389378159+392903647+391426306+386658331
1788+383152227+382796704+384402879+386329349+388110695+389545874+390208497
1778+390730506+392992630+398328504+405616607+410744393+410307491+405926577
1768+401033570+397578426+396982905+399824260+404095800+406608137+407137527
1758+407537374+408027994+408499827+410795912+416468931+423643261+427991705
1748+427835099+425554559+423908272+424143424+426261095+429074194+430926779
1738+432395956+436505745+444156343+450217466+449124540+443896028+439270717
1728+436439352+435673692+437066336+439892259+444128719+451576039+463467682
1718+476613109+483347480+480745712+474430313+469952288+469439935+473296753
1708+480912197+489968413+497363878+503320659+511476454+522792967+532093057
1698+535387942+534708096+531374480+526872523+525216321+528521643+535506188
1688+544839606+557692285+573659944+584380600+583198317+577449586+575320657
1678+579050244+587353511+596587731+603802321+610290357+617771040+623453267
1668+624090764+623091555+625679567+631951724+637378705+638807063+638947975
1658+642611989+652834905+670140931+688212355+692432115+685362127+682387241
1648+685744007+687863281+682782988+674925756+670387490+670541524+675014105
1638+682977357+690525328+690183262+681323988+672631199+669234843+670227044
1628+672619568+674734741+676691109+677606069+675853166+673181353+673441928
1618+677051442+679261824+675938310+670150698+666471250+665731871+666343162
1608+666621705+666225064+665750958+665469730+665052734+664270113+663475413
1598+663317725+664032351+665029920+665374446+664736316+663627061+662801271
1588+662727535+663451406+664632682+665716065+666501669+667907137+671572270
1578+677672201+682582877+681776621+678054229+677843085+682324389+687034807
1568+687672639+685747958+684806755+686979486+694785124+710797517+730232882
1558+735325328+723500785+711052799+704215204+701964934+702419730+704046110
1548+706946589+713083425+723801398+738251156+754269215+766662551+766188818
1538+755181938+747256114+747463829+751449182+752661400+751026968+751799673
1528+757186917+764815260+772112198+779568166+787395724+792394601+792625727
1518+790544775+788186994+785923006+784884878+786923333+793367268+804503131
1508+817330834+821867236+812028063+798930838+792129030+792178611+796402397
1498+800796694+801366530+798345493+796755795+800420108+808161926+814190953
1488+813461714+807676562+802032396+799605352+800332205+802487938+805069985
1478+808825853+814750650+822369375+828869750+829782995+824318511+818028685
1468+815929019+818207546+821425935+822578358+823300961+827454664+836124116
1458+845017388+845761613+837413500+828092720+822512673+821131958+822832447
1448+824977741+824975356+823148195+821673463+821579522+823064542+826986299
1438+833247421+837967978+837035199+833064981+830882781+831044345+831313942
1428+830995287+831617910+833816810+836534775+839394099+843134012+846408467
1418+845347674+839588542+833296927+829409988+828055218+828064910+828440527
1408+829053681+829918688+830224147+829490882+829165293+830828951+833745236
1398+835935264+836810784+836730784+835374896+833042465+831542384+831941710
1388+832876576+832160459+830183663+829809835+832826698+838440817+844677261
1378+850405899+855767047+860625162+863671250+864325932+864003922+863900363
1368+864013167+865053084+868328210+872742414+874516192+871756700+867022051
1358+863687130+862784249+863403144+864155645+864168096+863242027+861517381
1348+859296114+857157306+856027697+856831642+859742485+863648063+866463100
1338+866531543+864193743+861656579+860992353+862263992+863726422+863904389
1328+863042886+862331988+862503543+863697568+865946273+868952697+871708685
1318+873331561+874267993+875516147+876863088+877389235+877473782+878574761
1308+881077778+883798874+885617833+886496037+886832511+886827590+886661627
1298+886703006+887229153+887868476+887568460+885661449+882733011+879770277
1288+876907598+873636423+869685291+865198618+860543298+856234518+852727967
1278+850253654+848964867+848865856+849453363+849867674+849561843+848737022
1268+848163383+848505672+849693062+851051485+852060312+852698443+853117451
1258+853497019+854192783+855488876+857233876+858969034+860270943+860871870
1248+860773231+860441379+860554855+861435444+863065850+865531365+868846976
1238+872445231+875456725+877486755+878798654+879944143+881377645+883157388
1228+885044567+886990646+889197897+891659684+893964455+895660322+896878877
1218+898500410+901345717+905225350+909074488+911819740+912901931+912677590
1208+912551141+913795791+916237374+918905310+921496305+924339524+927548370
1198+930753040+933234660+934414893+934645422+935056006+936289993+938052365
1188+939979655+942159768+944861478+948205123+951917375+955255577+957558036
1178+959022405+960513911+962604034+965175196+967661960+969579558+971010525
1168+972182929+972819568+972845961+973494008+976131526+980037178+982859522
1158+983291802+982179267+981271912+981668852+983163415+984836169+986413640
1148+988587862+991750334+995175095+997914308+999920927+1001740782+1003370442
1138+1004078880+1003512622+1002460030+1002209296+1003600897+1006471106
1130+1009340197+1010576048+1010582833+1011146034+1012587215+1013934678
1121+1015361097+1017727676+1020356097+1021711091+1021533497+1020520868
1113+1019045987+1017721264+1018021578+1020642321+1024142608+1026537593
1104+1027641480+1028892839+1031219679+1033853096+1035078361+1034181220
1095+1032817578+1033463612+1036130132+1038044674+1037809298+1037604267
1087+1039285968+1041362745+1042104360+1043423641+1048370478+1055770528
1078+1060707821+1061057120+1059929151+1060030474+1060236250+1058894155
1070+1056972009+1056493579+1057932448+1060078861+1061134211+1059857950
1061+1056676988+1053547918+1052269644+1053132563+1055457315+1059021796
1053+1064099853+1069940103+1073741823+1072835661+1068614186+1065813688
1044+1067064525+1070288208+1071708662+1069843552+1066116984+1063111455
1035+1062635410+1064498731+1066608164+1066862402+1065565563+1064933173
1027+1066214728+1068725798+1071242384+1072495906+1070858343+1066281009
1018+1061681606+1060295523+1062327342+1065121130+1066272211+1065587855
1010+1064078604+1062202385+1059700411+1056575069+1053332226+1050308877
1001+1047580773+1045901980+1046318677+1047948561+1047971823+1045039657
993+1041183958+1039056557+1038743195+1038487689+1037396850+1036257848
984+1036135426+1037174746+1038695181+1039516199+1038171420+1033978277
975+1028410010+1024266969+1022755630+1022274590+1020561725+1016956014
967+1011988227+1006247063+1000500382+995680664+992034096+989034904+986394404
957+984406052+982924759+980724069+976899609+972633848+970267120+970485049
947+971453988+971109685+969236299+966661856+964017032+962362694+963128391
937+965903167+967785202+966472482+963080302+960684721+960992863+963148819
927+965216351+966242624+966407842+965790438+964619748+964046109+964740008
917+965379854+964204542+961607360+959598728+959194183+959364471+958398738
907+955959541+953597137+953117440+954656290+956358196+956081068+953627407
897+950811028+949270165+948873822+948332689+946910296+945584231+946125736
887+948595651+950744971+950419904+947845759+944955793+943197895+942476559
877+941862510+941221621+941716752+944000572+946761034+948088889+947448223
867+945458230+943096796+941748662+942362860+943961281+944199788+942129274
857+939493173+938602220+939715128+941151015+941300800+939864838+937868731
847+936986726+938373107+941530658+944448285+945236126+943558526+940752435
837+938915582+939444785+941955333+944680604+945859718+944772234+942094754
827+939510694+938405838+938562631+938781976+938817689+939581597+941726668
817+944847387+947553423+948642845+948698912+949385728+951144222+953047058
807+954377373+955020201+954905458+953971114+952135006+949516575+947572658
797+948677216+953064206+957565343+958758176+956511857+953465843+951901271
787+951792343+951520584+950338041+949466995+950291815+952178622+952884003
777+951046627+947978918+946223629+946496581+946908433+945332677+942264147
767+940549119+942065304+945661621+948914828+951026870+952837405+954619384
757+955530020+954956306+953743418+954086975+957261003+961419029+962860360
747+960461722+956912823+954793474+954377895+955326927+957687691+960507425
737+961881952+960846807+957677476+953270355+949651672+949343156+952433606
727+955446293+955237161+952639457+949925295+947469173+945466655+945959997
717+949869079+954035456+954615731+952127625+949970252+949918585+951005174
707+951120662+949142673+946135652+944231176+944380961+945865981+947033762
697+945304345+938736795+929340340+922050485+919374048+919160742+917970146
687+914972967+911315513+907589990+904216001+902340229+902716144+904985203
677+908150433+911151638+912461301+909533907+900386844+886961196+877856780
667+881048328+890744426+898004385+900676049+898872746+893330053+886643734
657+881832292+879452218+877650258+874979860+871745740+868980880+867388870
647+867191817+868284147+870507279+873551801+875854112+875596221+874146913
637+875587647+881057871+886021558+885369038+879060647+870768451+863721352
627+859075948+856207305+852234402+845592668+840269320+840713678+846432251
617+852128680+853321513+851533793+850233449+850064056+849680164+847347509
607+842751834+838541021+838400780+842743931+847748847+849861039
##END=
