##TITLE=<SNM>
##JCAMP-DX=4.24
##DATA TYPE=INFRARED SPECTRUM
##DATE=2/5/2025
##SAMPLING PROCEDURE=Instrument type and / or accessory
##ORIGIN=Admin
##XUNITS=1/CM
##YUNITS=ABSORBANCE
##RESOLUTION=4
##FIRSTX=4497.3318
##LASTX=599.83466
##DELTAX=-1.4281778
##MAXY=1.8459712
##MINY=0.39325944
##XFACTOR=1
##YFACTOR=1.7191947e-09
##NPOINTS=2730
##FIRSTY=0.4128851
##XYDATA=(X++(Y..Y))
4497+240161923+239965812+238927754+237304778+236235587+236531444+237800300
4487+238834093+238896829+238455114+238489594+239301169+240217447+240276525
4477+238978182+236753020+234903458+234626651+235959682+237916774+239388711
4467+239732256+239178367+238927269+240021232+241837217+242584409+241591440
4457+240121914+239676958+240382477+241176751+241059930+240096934+239273068
4447+239305156+239874473+240168545+239845870+239316111+239266620+239892328
4437+240586718+240679097+240304105+240027490+239899436+239595171+239261211
4427+239419844+240061986+240477976+240102758+239109356+238116630+237633294
4417+237801826+238440501+239161465+239522901+239361911+239028870+239095644
4407+239829419+241001581+241947814+241816016+240313327+238210690+236568576
4397+235728554+235537088+235924648+236633097+237023638+236906089+237038113
4387+238059234+239320341+239441929+237973061+235934269+234602036+234276189
4377+234433435+234566620+234464690+234009558+233241408+232470119+232029896
4367+232040748+232362850+232593805+232267594+231363450+230546085+230538007
4357+231276983+232060735+232491823+232861042+233598232+234767135+236040221
4347+236815132+236526937+235266245+233891472+233170143+233059858+233060482
4337+232887617+232552790+232162786+231867033+231779734+231866565+231937587
4327+231815011+231539695+231220869+230700679+229821549+229018295+228961315
4317+229586972+230158248+230156255+229608658+228918792+228746308+229578096
4307+231127156+232513492+233053184+232638755+231651125+230791289+230653840
4297+231160439+231699091+231978047+232342967+233061037+233804450+234141357
4287+234015054+233514417+232701508+231772661+230990209+230494947+230351655
4277+230528941+230775185+230868760+230974469+231397149+232049797+232450444
4267+232242874+231584749+230885020+230233170+229522295+229145829+229763061
4257+231119303+232052466+232011365+231599900+231488245+231847843+232759147
4247+234083198+235031078+234891687+234098401+233726477+234102752+234589866
4237+234525449+233877361+233130966+232773760+232812140+232915474+233042661
4227+233408830+233789906+233621600+232934976+232493071+232887201+233929852
4217+234882742+235161767+234939272+234863500+235105792+235174855+234670232
4207+233710876+232770935+232426626+232863712+233523518+233769815+233717480
4197+233872508+234361651+234969573+235441260+235485378+234956017+234105889
4187+233402069+233211747+233602566+234106305+233932105+232918092+231949080
4177+231938731+232732797+233396262+233371455+233064122+233343303+234489202
4167+235730859+236154112+235825422+235406261+234991017+234172681+233067156
4157+232399254+232583283+233330909+234121196+234654873+234901707+235013882
4147+235212195+235495952+235520620+235073584+234487988+234233839+234359224
4137+234637382+234916701+235104596+235163865+235201170+235301938+235459063
4127+235777352+236323995+236766039+236686194+236221857+235882437+235823064
4117+235714287+235323226+234913026+234877888+235153481+235322151+235315442
4107+235563195+236277208+237042186+237314381+236954350+236086575+234780847
4097+233167768+231725943+231125630+231667732+232949538+234140594+234650903
4087+234641976+234856098+235764489+236921569+237415081+236936789+236075515
4077+235489313+235137099+234553775+233676327+232989842+232762978+232666682
4067+232548925+232892575+233918948+234956399+235316066+235162443+234990341
4057+234847431+234554278+234248539+234278061+234722012+235260369+235524728
4047+235526913+235657515+236165189+236699837+236614600+235776034+234766459
4037+234175715+234012280+234000232+234195009+234925022+236132790+237162942
4027+237408719+236961804+236446086+236349825+236655858+237045480+237378850
4017+237874078+238630840+239181938+238968734+238077852+237046329+236163698
4007+235346472+234604497+234318920+234806139+235706798+236252124+236283605
3997+236502182+237492360+238962996+240131604+240511606+240198587+239704347
3987+239620619+240192207+241067107+241565837+241336355+240732593+240531160
3977+241233801+242484577+243292789+243176228+242779342+242834051+243037877
3967+242771108+242405304+242816526+243886635+244453613+243806582+242587200
3957+241976088+242428429+243485000+244735342+246457891+248719023+250392427
3947+250508277+250130910+250847836+251999213+251495508+249044471+246424140
3937+245231350+246200708+249474415+253960985+257129156+257240880+255640058
3927+255061570+256222914+257225210+256492180+255253920+255691092+257833808
3917+259274871+257680099+253355507+248852572+246424157+246542399+248829083
3907+253661210+261608914+271146761+278493771+281133812+279308293+273792471
3897+266222117+260227727+258985254+262188789+265609999+265435764+263806929
3887+265149771+269458172+272900877+274180793+274985036+274287803+270136717
3878+265461750+264705161+268396764+274397690+280934962+285451331+284710466
3868+280506387+277980029+277952675+276741631+272573869+268379620+267730925
3858+272456320+283282924+298077018+306472209+299205287+284710882+273332520
3848+268201797+269029112+273982758+280677519+287731774+294808183+300325305
3838+301181067+297015836+291220210+286188851+281897039+278269143+276211092
3828+276045767+277251905+280632656+287974031+297339239+301914617+299715111
3818+296022538+292588326+286959237+279872288+275092149+275006600+279676073
3808+286374717+291087458+293935918+298095532+302376145+302027745+297988159
3798+294901966+293054327+290377952+287480034+286488608+287798964+290532182
3788+294279880+298812822+303244180+307281790+312016963+317564282+321740122
3778+323539014+325752908+331656463+342297929+356929784+372906805+386284573
3768+395724131+403080605+409497624+415379753+422201891+430489604+437804405
3758+441826033+444307371+449125683+458559693+471239691+481652057+486595112
3748+490926481+499893867+511451213+517274125+516530174+517855508+527202531
3738+544461790+563404525+574886187+575447391+569883292+565010028+564597697
3728+568730858+574801384+579826814+583271669+585871927+586704217+585006145
3718+582820958+583383238+588919289+598683290+606025861+602687131+591345087
3708+581363115+576923193+577347417+580470256+583115099+582284334+578594361
3698+575711057+576373984+580644820+587150352+595028784+602775609+606146791
3688+602732133+596458094+591677504+589580864+590534569+595017343+602924275
3678+613180244+621982357+623919792+620745536+618275084+615841382+608733319
3668+597810158+588445973+583285607+581660065+581641897+582338836+584451285
3658+587498301+588365331+586588349+587439015+595497663+608450619+615136469
3648+607463145+592687443+580338787+573001624+569130500+566701860+565044802
3638+564703441+565939776+568044390+571014126+576877672+587291320+598441431
3628+601609030+595253169+586573580+582414902+585622926+593461349+599096141
3618+599653567+599115765+600308693+602225880+604203948+607127538+610512657
3608+612017270+610908798+609313072+609547303+612040846+615160808+616912826
3598+617340309+618153600+619997564+621904835+623912649+627564728+632529000
3588+635226958+633685526+630706948+628959090+628209315+627508840+626808435
3578+626285263+625434736+623834434+622692123+624901787+632713723+644495662
3568+653490471+653570074+647320442+641549813+638889022+637507557+635217389
3558+632067195+629376033+628053368+628267560+629642368+631739008+634595962
3548+638195966+641190353+641140706+637222499+631874984+628501167+628160638
3538+628860835+628025286+625569603+623815851+624590727+627354697+629804139
3528+630055983+628424754+626775013+626339140+626413196+625096772+621326607
3518+616382443+613205900+613719641+617301478+621571517+623983862+623550763
3508+621625255+620335944+620354180+620468383+618979025+615434910+611486263
3498+609717048+610759578+612392955+612638558+612214127+612392401+612661025
3488+612092019+611033055+610220666+609797552+609648679+609649511+609599378
3478+609232152+608557611+608033052+607869548+607290349+605100794+601375353
3468+597880330+596433270+597202183+598529840+598707975+597692002+596516409
3458+595700760+594945784+594023560+593297082+593332862+594313818+595793121
3448+596855136+596752928+595627745+594148996+592696596+591274082+589650274
3438+587565699+585220822+583511448+583242893+584273288+585683460+586302807
3428+585235522+582908327+581236985+581641239+583424148+584720602+584338122
3418+582362273+579912830+578400590+578216457+578346921+577615902+575755990
3408+573299926+571051189+569761357+569682552+570212970+570533148+570680947
3398+571306187+572198041+572127071+570749039+569462119+569441595+569876704
3388+569094824+566763295+564142028+562489408+562010302+562286554+562948787
3378+563686428+564079240+563561893+561584276+558502105+556295492+557049878
3368+560317951+563020450+562696978+560176428+557979106+557032647+556250004
3358+554822325+553413783+552780117+552708211+553028216+554343323+556800912
3348+559079570+559420758+557431353+554720915+553637786+554947900+556802403
3338+556808124+555123712+554095570+555024347+556821368+557680874+556865919
3328+554705313+551844129+549118782+547602208+547889761+549424503+550972522
3318+551569715+550881340+549298477+548039328+548265169+549816760+551645122
3308+553191027+554283725+554378686+553219942+551658748+550715340+550472857
3298+550674845+551626123+553533880+555385956+555680687+554406006+553281516
3288+553763396+555478144+556747555+556388997+554833003+553389617+552817214
3278+553025027+553521503+553606687+552868526+551900884+551606985+551765289
3268+551546763+551068039+551025949+551497254+552204663+553086844+553922289
3258+554165084+553469567+552048231+550657995+550143734+550620968+551447503
3248+552138824+552570953+552430608+551542845+550401645+549497518+548742750
3238+548130580+548007709+548318076+548481511+548148608+547565527+547285011
3228+547636566+548223669+548193298+547307165+546162324+545152245+544067279
3218+542850983+541855778+541161163+540308660+539014148+537806553+537501838
3208+538028303+538384157+538023935+537446400+537097723+536706125+535925770
3198+534719944+533191894+531815249+531306812+531613503+531772292+531277932
3188+530744324+530851524+531376672+531454541+530389025+528254838+525881080
3178+524047795+522713274+521417375+520220459+519469505+518920400+518112240
3168+517360974+517244863+517279291+516229411+513827467+511267670+509755083
3158+509262490+509044658+508852828+508974451+509257081+508987175+507934972
3148+506692604+505695804+504714259+503466274+502088866+500858285+499932940
3138+499401309+499131194+498712310+497909420+496986572+496413995+496519843
3128+497340033+498354966+498607780+497641247+496024892+494528288+493267614
3118+492111575+491324494+491147157+491199266+490921593+490297358+489719685
3108+489455603+489448461+489341642+488685198+487448516+486195331+485443995
3098+485144029+484993943+484827318+484558244+484173648+483762877+483314072
3088+482742293+482255248+482210870+482476408+482485076+482029095+481438316
3078+480948150+480517028+480255719+480306546+480329428+479842486+478935413
3068+477964581+476905513+475733179+474843613+474431594+474088915+473455665
3058+472695315+472130331+471861985+471763591+471573876+471049838+470139713
3048+469059636+468290376+468268846+468818748+469075307+468259138+466462221
3038+464468795+462985990+462262841+462178766+462401452+462590404+462627258
3028+462492253+461925050+460624263+458843572+457345442+456643893+456554132
3018+456494673+456100717+455525678+455053229+454576966+453810410+452804318
3008+451839727+451049457+450495221+450312648+450471298+450581168+450171055
2998+449219812+448308127+448003238+448152666+448103053+447479789+446384214
2988+445077741+443827815+442823110+442075657+441543367+441226864+441019329
2978+440674257+440036986+439197311+438408150+437875722+437529680+437010842
2968+436081440+435024938+434384894+434281369+434238170+433798241+433085875
2958+432544709+432286452+431943426+431152462+430076580+429316958+429182785
2948+429220506+428764663+427759854+426635365+425626950+424673696+423739475
2938+422863501+422128633+421761581+421919469+422243565+422037104+421111413
2928+420080844+419534894+419280693+418790458+418052609+417393322+416754595
2918+415901295+415103883+414775938+414633236+414061803+413174873+412691017
2908+412841763+413114512+413081264+412857919+412604446+412140040+411339126
2898+410487490+409966225+409844845+409918207+409917202+409638939+409071771
2888+408356458+407527565+406509200+405446007+404714087+404449415+404315069
2878+403896289+403170921+402438238+401901267+401500724+401087941+400565012
2868+399897232+399153073+398501934+398059994+397761034+397432119+396974716
2858+396463921+396081198+395944910+395963285+395813025+395166982+394117865
2848+393265258+393133963+393585818+393970829+393751506+392905903+391848708
2838+390989340+390354218+389723361+389016611+388332258+387762802+387385279
2828+387222677+387081743+386687717+386038381+385355761+384731457+384115404
2818+383545428+383073741+382597859+382062414+381656913+381518926+381434053
2808+381138040+380743876+380576038+380697175+380785341+380453098+379644556
2798+378655765+377749697+376953949+376270705+375764453+375353335+374824685
2788+374128579+373412017+372782443+372237568+371756312+371301128+370768700
2778+370042084+369161186+368414357+368076116+368012358+367788528+367242266
2768+366650551+366245362+365911974+365471872+364935075+364361839+363770922
2758+363230138+362780051+362301915+361677680+360987399+360384104+359887525
2748+359387929+358751732+357938857+357100257+356481396+356164754+355959784
2738+355578032+354925922+354213070+353688962+353309879+352855042+352329478
2728+351982881+351900332+351803776+351371821+350653075+350004224+349632353
2718+349384808+349013977+348457557+347839458+347351858+347120192+347095057
2708+347127542+347118840+347000477+346691843+346186839+345557923+344851971
2698+344113290+343459169+343006932+342744202+342509208+342119516+341558901
2688+341007057+340640490+340466689+340378974+340254335+339969346+339438166
2678+338702224+337961601+337440926+337155660+336904995+336579790+336324063
2668+336279096+336330928+336246610+335963876+335621474+335296823+334829990
2658+334057124+333167836+332585968+332459769+332467778+332187782+331555018
2648+330895419+330515851+330356577+330160968+329891720+329739935+329757235
2638+329744372+329526297+329145030+328750866+328426909+328140603+327795462
2628+327318402+326740902+326176473+325682528+325214794+324775211+324511233
2618+324566705+324878771+325181441+325192223+324808945+324179267+323568796
2608+323138610+322879797+322716293+322559931+322289435+321833176+321322001
2598+321014581+320992288+321048731+320967984+320769741+320570804+320377275
2588+320165198+320001382+319909090+319740351+319374859+318957292+318708742
2578+318547734+318174684+317553326+317016911+316828375+316885060+316914495
2568+316751858+316389798+315938151+315573283+315423196+315471283+315567493
2558+315504948+315152700+314597215+314089506+313771824+313536796+313228232
2548+312873210+312613115+312502101+312482755+312474088+312392128+312168090
2538+311834459+311540353+311430241+311537753+311790602+312065120+312229005
2528+312177971+311893919+311482766+311104307+310849239+310729107+310742871
2518+310844143+310883875+310708063+310327905+309960610+309887040+310200007
2508+310652209+310853157+310666805+310326588+310139958+310169844+310212280
2498+310029430+309604721+309175540+308997891+309094378+309240027+309168329
2488+308814209+308410475+308298872+308546798+308779781+308541667+307844278
2478+307192480+307003840+307172337+307302384+307222851+307088331+307043399
2468+307027936+306952112+306854828+306798177+306760768+306709318+306655752
2458+306601979+306522550+306424884+306357798+306339180+306319036+306228790
2448+306031067+305732973+305434568+305321023+305459357+305667967+305743270
2438+305682736+305561391+305436752+305454850+305720527+306037966+306121556
2428+305993484+305866106+305797078+305735435+305716574+305786157+305881916
2418+305945536+306031413+306182332+306288839+306217557+306035678+305951949
2408+306046980+306205423+306304440+306342647+306385638+306480842+306632350
2398+306801401+306924758+306981097+307038164+307177191+307381814+307547675
2388+307557868+307303737+306693231+305667031+304172403+302172008+299723848
2378+296992815+294175177+291435684+288822824+286233644+283611008+281116980
2368+278974108+277327157+276289550+275831402+275793178+276338452+278056269
2358+281343913+285995235+291537372+297731358+304388814+310680465+315212818
2348+316951037+316000210+313799838+312146941+311515390+311030668+309939531
2338+308289997+306462397+304619820+302807164+301327271+300593131+300576663
2328+300731569+300529477+299897823+299206050+298967659+299427072+300311992
2318+301083055+301438250+301484361+301497050+301675636+302082732+302655759
2308+303270252+303849035+304353242+304690097+304774761+304678343+304577280
2298+304557414+304567295+304559564+304563724+304582654+304543997+304436173
2288+304357056+304325367+304198717+303889980+303513186+303230243+303069894
2278+302945567+302780364+302575810+302370806+302184350+302035061+301930010
2268+301791087+301530611+301221874+301026785+300975612+300980188+300989237
2258+300984245+300927247+300837382+300835059+301009797+301264275+301369811
2248+301223156+300982026+300864841+300906618+301013680+301138007+301262160
2238+301311704+301234181+301118002+301109889+301216777+301286221+301203706
2228+301031396+300911403+300895177+300927628+300965211+301038919+301169764
2218+301275855+301254498+301149690+301123376+301227941+301326369+301305151
2208+301247217+301288960+301418106+301548882+301688845+301873186+302033709
2198+302082420+302035893+301946444+301803603+301595929+301402227+301351505
2188+301490567+301710237+301843994+301850477+301831097+301858451+301891665
2178+301879600+301849576+301875232+302005626+302210214+302373475+302380132
2168+302223805+302013947+301903418+301999142+302264473+302515900+302615126
2158+302628994+302692302+302782548+302779601+302694070+302673302+302794197
2148+302980168+303122003+303180075+303169050+303136599+303162463+303302946
2138+303527816+303746966+303868866+303828891+303656546+303531769+303650548
2128+303993054+304333792+304522501+304650018+304876310+305188271+305436821
2118+305555705+305619463+305717060+305893114+306182922+306596848+307087603
2108+307574787+307951963+308094215+307969368+307736073+307648115+307838072
2098+308204639+308532549+308744106+308970120+309319699+309700792+309963592
2088+310103277+310228887+310412119+310614592+310718672+310648465+310478131
2078+310371347+310440167+310713957+311150626+311591457+311847287+311957538
2068+312191284+312632392+312970321+312918385+312635131+312472736+312513716
2058+312586454+312563918+312461607+312371638+312410087+312632565+312969732
2048+313318860+313682618+314144840+314681602+315057010+315040958+314737491
2038+314498232+314491645+314586884+314652029+314716272+314835399+314988675
2028+315124964+315230291+315333019+315453705+315627541+316018655+316793254
2018+317720748+318193614+317907551+317245872+316777826+316683627+316789544
2008+316904857+316995797+317126399+317312716+317500628+317666004+317786517
1998+317813317+317966143+318809771+320484995+322082593+322489689+321708225
1988+320604434+319762193+319235138+318931844+318757558+318653790+318668386
1978+318828458+319041783+319225569+319361545+319518982+320017711+321181032
1968+322605661+323224175+322581496+321438457+320710247+320551284+320724461
1958+321149725+321744941+322214027+322325734+322182582+322089839+322301465
1948+323008978+324506067+326938244+329491142+330415863+328908199+326324930
1938+324508321+323983346+324242679+324716827+325056906+325089843+324882654
1928+324859529+325785533+328053928+330769671+332538158+333376030+334179926
1918+334513937+333162081+330667984+328994354+329151791+330509715+331711554
1908+331845172+331071648+330197996+329732550+329621051+329714487+330146268
1898+331183147+332663109+333864289+334560950+335626189+337434685+338554182
1888+337614345+335516631+333996209+333493007+333506320+333689067+333953287
1878+334225240+334429481+334677095+335778148+339186530+345330730+351581818
1868+353407025+349691396+344186478+340518243+339320704+339424367+339692783
1858+339673888+339426898+339224147+339324829+340019167+341653169+344401086
1848+348369079+353567548+358473713+359531983+355556952+350296424+347397449
1838+347042497+347436210+347753858+349356275+353784756+359791107+363551738
1828+363495295+361935383+360301936+357669748+354150907+351673902+351266077
1818+352053712+352852477+353760799+355721566+358710891+361051608+361181170
1808+359642199+358438557+359286449+362703603+367468939+370930332+371331881
1798+369966122+369899867+373201223+379128423+383308145+381331985+375213787
1788+370615319+369988172+371833210+373936957+375728950+377147963+377611467
1778+377610878+379364075+384756905+392968344+399557049+400188807+395900047
1768+390173657+385217497+382980028+384669016+388466224+390815608+391196043
1758+391461859+391697719+391806618+394250964+401152567+410119779+415239893
1748+414074839+409960851+406731020+405851301+406969862+408525613+408877688
1738+409174707+413164715+421902931+429002847+427030916+419274591+411662980
1728+405959887+402869152+402733419+404575996+407978658+414859077+427027657
1718+441344638+448498050+443889111+433915669+425519299+421448267+422325040
1708+427604844+434812029+440556518+445006494+451975460+462328263+470246462
1698+471165116+466838080+458472741+448664778+442866933+443310779+448023971
1688+455205812+466106090+480170223+487866533+482049758+471380833+464750316
1678+464318639+468681974+474093387+477665690+481088807+486090072+488731518
1668+484699732+478441086+476711083+479949617+483106676+482411159+480486587
1658+482420416+491574084+508838024+527785821+532091569+523963685+520720090
1648+525126971+528053959+521535565+510895313+504250823+503918996+509877260
1638+521498260+534351366+538145939+529726306+519770199+516114237+518500961
1628+523030020+527040414+530878393+534124208+534420810+532735532+533726507
1618+539220920+544501834+543589525+538848528+536001420+536622431+538924456
1608+540718356+541440153+541882647+542619387+543339485+543659386+544027201
1598+545313843+547724142+550527150+552820196+554271971+555068170+555504563
1588+555839927+556293446+556989622+557956224+559381824+562123777+567633306
1578+576241545+584188069+585430230+581855881+581104580+585391954+589952042
1568+589858572+587157424+586257805+589363067+598761922+617272494+640134025
1558+647164566+634543472+620741792+612764688+609450504+608974206+609958768
1548+612740419+619680402+632189719+648593806+665585550+677641106+675846720
1538+663244487+654311320+654522808+659337930+661394352+660367632+662277399
1528+669763990+679915464+689470473+699192661+709795678+717709890+720591114
1518+721046540+720625576+718968900+717919991+720975328+730277246+745659674
1508+762424607+767236955+753372522+736483262+728225331+728636310+734283999
1498+740629667+743123140+741323624+740215567+744460505+753792516+762267829
1488+763310913+757662530+751029448+747250962+746822093+748611278+752165309
1478+758300183+767434158+778220372+787175588+789416941+784162618+777841913
1468+776512107+780564695+785416428+786568030+786224865+790313163+801276402
1458+814581051+819173730+811644772+801298244+794476833+792108658+792947397
1448+794030352+792721070+789729873+787631847+787706942+790178296+795428805
1438+802402972+806392460+803927832+799403177+798268424+800172021+801259691
1428+800061423+798982143+799772483+801636416+804076290+808132830+812781396
1418+813184540+807533037+800406599+796045031+794965543+795387478+795707691
1408+796080187+797357364+798935269+799482571+799844527+802347847+807343599
1398+812595010+815755466+815733347+812708519+809010746+807850268+810217820
1388+813896109+815425407+814146219+813211929+815562146+820805651+826358830
1378+830900196+835441771+840573014+844563820+845970732+846302248+847623803
1368+849974296+852721208+856067982+859533674+860990165+859355678+856425084
1358+854310971+853333135+852800256+852326801+852100267+852390178+853040728
1348+853366141+852748528+851563504+851274356+853113050+856526182+859200910
1338+859132888+856638513+853902557+852935331+853975850+855429775+855681202
1328+855053673+855244012+856963580+859168182+860807869+862281903+864367795
1318+866703589+868508098+870004251+871753981+873286954+873865182+874094074
1308+875301772+877648730+879896531+880806413+880215842+879089619+878795547
1298+879930716+881713937+882840923+882864777+882273097+881421599+880020234
1288+877659894+874600674+871920537+870497537+869831109+868535626+866179515
1278+863860086+862746690+862804936+863198511+863437665+863640000+863761900
1268+863292744+862146135+861272934+861787993+863856688+866708650+869348778
1258+871224708+872512910+873611050+874429750+874692480+874723545+875283120
1248+876778372+879081298+881884376+884846103+887495939+889333592+890166229
1238+890316351+890420431+890944088+891888432+893037468+894459705+896575551
1228+899622567+903203434+906520946+908837047+909860855+910264900+911497145
1218+914354585+918048198+921235489+923503676+925199044+926412775+927016243
1208+927402537+928466423+930835431+934362212+938224114+941456476+943665724
1198+945261519+946893510+948987307+951778041+955036268+957707390+958862737
1188+959122693+959972527+961714699+963421508+964773433+966387326+968495268
1178+970379103+971086719+970435199+969599303+970530472+974015580+978239784
1168+980222983+979320659+978251017+979884533+983919717+987731208+990129478
1158+992131468+993964961+994203006+992455494+990418696+989786036+991043035
1148+993905467+997437032+1000443415+1002580341+1004288190+1005575560+1006232974
1138+1006388019+1005957278+1004931459+1003992177+1003997031+1005563495
1130+1008734075+1012282976+1014241628+1014405132+1015040080+1017850230
1121+1021598484+1024213649+1026376162+1030544894+1036728236+1041158659
1113+1040187064+1035158790+1030993802+1030345680+1031632426+1032336229
1104+1032473106+1033738426+1036519245+1039017572+1039031787+1036292364
1095+1032870148+1031780814+1034860489+1041083841+1046984691+1049725085
1087+1050029280+1050591768+1051931490+1052321181+1051659260+1052188950
1078+1054558235+1056477017+1056607931+1056586643+1057651917+1058312174
1070+1056901933+1054503248+1053373280+1053775523+1054288709+1054418029
1061+1054956663+1056433055+1058617271+1061334574+1064903791+1069074465
1053+1071977670+1071618418+1068620703+1065821509+1065070277+1065672982
1044+1066074670+1065684839+1064763239+1064367029+1065717984+1068170339
1035+1069066769+1067262121+1065094546+1064640507+1064450376+1062614317
1027+1060580916+1060615517+1061851575+1062016119+1061685644+1063639997
1018+1068489511+1073109163+1073741823+1070039403+1064785150+1060078962
1010+1055700753+1050873289+1046232211+1043769456+1045027911+1049222022
1001+1053470356+1055347395+1055012760+1054421219+1054668070+1054903064
993+1054185531+1053237373+1052995862+1052624406+1051171174+1049828540
984+1050153676+1051131997+1049902249+1045396315+1039678939+1035638694
975+1034559067+1035709352+1037164178+1036840984+1033541292+1028249734
967+1024200058+1024073443+1027166917+1029930332+1029168977+1024665262
958+1018815515+1014041304+1011101973+1009772237+1009474074+1008614810
950+1005414206+1000038122+994649973+990816015+987906500+984681349+981363560
940+979480974+979607658+979758265+977534040+973591010+970987909+971203904
930+972571986+972828753+971724441+970443034+969715170+969320000+968863187
920+968268248+967652854+967239587+967213237+967476175+967493996+966454725
910+964309825+962527713+962376066+962794672+961962659+960561987+960909798
900+963196291+964804845+963930326+962293273+962848896+965625832+967307748
890+965569667+962196197+960160092+959728380+959313864+958486705+958111436
880+958549735+959509403+960576064+960734229+958917654+955939632+954150793
870+954458178+955459867+955682518+954643663+952138680+948671185+945825047
860+944590861+944301990+944242704+944916691+946719813+948500746+948568214
850+946836720+944827658+943946205+944444276+945522100+945651558+943407779
840+939408375+936098906+935118297+936406915+938960368+941483727+943119115
830+944297968+945921569+947692656+948516279+948007391+946848300+945916576
820+945386124+945265749+946482461+949975474+954555532+957676395+958581493
810+958616718+958634607+958275495+957714671+957659130+957678892+956239389
800+953028176+949914524+948747112+949653527+951713555+953763806+954456098
790+953125321+951088037+950709162+952998151+956926065+960536817+962473142
780+962435213+960490775+957539795+955585581+955731334+957004558+958321814
770+959993537+961880561+961908713+958408558+953416550+951323724+953614863
760+957124447+958516382+958401486+958976593+960339613+961143128+960966102
750+960879427+962396729+965758550+969116210+970149379+968535902+965935159
740+964135573+964028650+965051626+965595323+965311721+965826087+967768999
730+969178200+968481539+967091476+967342349+969557768+972249069+974335307
720+976398247+979035116+980066760+976276763+968825397+963353069+963955496
710+968886416+972353149+970453990+965015292+960828878+960586881+962733376
700+963941906+963422409+961937628+958365845+952043337+945573342+941177937
690+937125210+930893469+924176554+920877971+921535871+923913200+925934744
680+924673515+918174328+910564797+908744825+913490259+918316059+917863198
670+912601249+906801496+905538465+908663696+912055056+912870289+910455655
660+907119490+906096098+907733220+909366945+907795211+902477719+896307552
650+892860165+893928490+897457559+898904619+895823002+890738979+889274653
640+894483142+903396269+909674122+909262380+902793911+894690816+889561236
630+887642177+885240441+880339753+875042925+871697469+870049253+868422324
620+865001009+859050303+853063887+851109881+853141410+854238372+852604093
610+852352526+855716358+859317679+859480837+857024807+854139978+851609546
600+851469271
##END=
