##TITLE=<SNM>
##JCAMP-DX=4.24
##DATA TYPE=INFRARED SPECTRUM
##DATE=3/5/2025
##SAMPLING PROCEDURE=Instrument type and / or accessory
##ORIGIN=Admin
##XUNITS=1/CM
##YUNITS=ABSORBANCE
##RESOLUTION=4
##FIRSTX=4497.3318
##LASTX=599.83466
##DELTAX=-1.4281778
##MAXY=1.7171643
##MINY=0.17390826
##XFACTOR=1
##YFACTOR=1.5992339e-09
##NPOINTS=2730
##FIRSTY=0.19753918
##XYDATA=(X++(Y..Y))
4497+123521135+123768230+124571229+125303645+125390011+124851104+124037567
4487+123089362+122057922+121386825+121638617+122708977+123858677+124568508
4477+124929196+125212248+125521856+125922517+126445379+126886944+126947174
4467+126490887+125476218+124001666+122626031+122049546+122241471+122507473
4457+122586626+122919715+123578233+123800889+123100385+122131047+121843988
4447+122272695+122722199+122728022+122305707+121636539+120935150+120398610
4437+120111355+120094052+120274060+120353549+120087474+119726795+119701106
4427+119858156+119605898+118875429+118263527+118025274+117647311+116760258
4417+115845307+115575197+115991036+116746468+117616236+118320803+118321884
4407+117282747+115548837+113883226+112858383+112629969+113052685+113772122
4397+114327680+114401672+114037462+113620449+113605587+114106720+114742774
4387+115105921+115255116+115364804+115127436+114047068+112197219+110295898
4377+109152245+109110809+109793982+110473875+110894829+111420468+112234704
4367+112901039+112944218+112430953+111730179+111046987+110448960+110096080
4357+110162394+110652998+111473225+112463937+113240436+113384087+112980827
4347+112540026+112208912+111564725+110400703+109230896+108744736+109113250
4337+109989980+110906663+111526522+111758952+111764766+111711096+111577928
4327+111360490+111240628+111313026+111368364+111191160+110907688+110895854
4317+111467001+112595512+113755779+114236031+113958625+113721089+114221710
4307+115105008+115429170+114884058+114030865+113505385+113487513+113804315
4297+114115637+114077770+113667969+113386174+113900147+115334381+117029008
4287+118119904+118247193+117618361+116670053+115841096+115383542+115244969
4277+115221162+115150907+114979899+114870715+115139931+115769238+116242166
4267+116182049+115823308+115629994+115749829+115969820+116076768+116183838
4257+116519032+116936427+117056681+116865128+116743411+117002192+117626449
4247+118294750+118635424+118720299+119047200+119722164+120092468+119578467
4237+118458882+117489367+117141286+117499970+118462506+119615151+120262292
4227+120090325+119566428+119273751+119231290+119213810+119226892+119292638
4217+119236033+119032898+118980942+119288295+119788078+120191953+120403800
4207+120542708+120777709+121071552+121118019+120798721+120572152+120951978
4197+121735381+122270589+122330194+122195311+122119093+122167060+122352417
4187+122573554+122583347+122247817+121742295+121416567+121506790+121955306
4177+122505544+122993315+123425824+123778107+123993485+124197375+124544953
4167+124917120+125177372+125487549+125878081+125931397+125469668+125058898
4157+125260998+125804397+125948439+125406522+124618479+124227173+124467299
4147+125070368+125565314+125543007+124880408+123917966+123236992+123233218
4137+124006828+125328934+126488799+126686959+125907823+124942380+124440632
4127+124418596+124652693+125051388+125546455+125932477+125999714+125779108
4117+125539355+125541563+125876068+126467574+127060430+127281716+126988926
4107+126536674+126432791+126782260+127330214+127905349+128475451+128923846
4097+129115427+129078324+128905239+128621432+128272736+127994463+127941753
4087+128195175+128671393+129148477+129445190+129498720+129304567+128964807
4077+128727476+128757284+128910466+128876075+128479421+127840647+127320356
4067+127246430+127571161+127820381+127554491+126924140+126569071+126850764
4057+127421388+127717513+127633803+127508434+127640587+127999597+128353977
4047+128627591+129006867+129567801+130003198+129988178+129612153+129163162
4037+128711385+128228915+127970172+128368484+129486905+130747579+131367969
4027+131116159+130554684+130439052+130929712+131546915+131840739+131866810
4017+131972678+132280562+132515004+132357153+131856868+131339671+131011959
4007+130929656+131248162+132098578+133170457+133761469+133446093+132574516
3997+131947632+132006734+132441758+132703045+132735601+132880015+133225385
3987+133525051+133641876+133613942+133366939+132846490+132437546+132791954
3977+134068570+135617543+136580777+136641389+136039401+135103467+134117693
3967+133521902+133798190+135000488+136524340+137462883+137333507+136505872
3957+135784441+135657711+136187394+137434147+139386724+141331642+142064348
3947+141313203+140246411+139949727+140163409+140000601+139298737+138595550
3937+138313671+138666858+139799852+141318262+142080514+141416881+140308821
3927+140277458+141480455+142607271+142680462+142364639+142856445+144102816
3917+144678779+143434551+140937057+138788044+137993823+138506585+140125822
3907+143304439+148422850+154274488+158284364+159029742+157091737+153342934
3897+148737285+145183006+144601061+146923466+149281745+149008513+147790766
3887+148819168+151724843+153535195+153704022+153901967+153655449+151703049
3878+149714775+149975736+152314960+155525891+159105159+161726802+161240754
3868+158665644+157296820+157745690+157553764+155218947+152431720+151695101
3858+154407619+160973616+169801398+174556047+169993976+161236711+154464504
3848+151511346+152226479+155606489+160111544+164574083+168669113+171761728
3838+172356923+170247660+167360910+165025972+162928206+160859941+159604084
3828+159622868+160634639+163148868+168196352+174056525+176149315+174026187
3818+171718867+169964570+166386876+161384582+158137238+158779021+163144843
3808+168525770+171688193+173247489+175835626+178434049+177698530+174643614
3798+172590499+171561267+170087302+168598727+168421412+169564990+171291203
3788+173476089+176237125+179105091+181847789+185212350+189394911+192897784
3778+194645316+196013544+199131298+204944957+212970990+221346286+228046095
3768+233138304+238033966+243364447+249794956+258867253+270947299+283580984
3758+294122289+303668763+315762077+332670736+352882253+370278264+380767483
3748+388744728+399489922+411685880+419241518+422244646+427109262+437277878
3738+451735388+467009873+479718789+488451400+493458203+495580996+496034357
3728+496340462+497649634+500037795+502607129+504280846+504713560+504921456
3718+506517837+510492203+517479313+527686877+538687711+545735088+548033128
3708+549779226+554357378+561715593+568957561+572914447+573988814+575166234
3698+577424320+580116386+583905889+590569154+600378033+610018038+613851371
3688+610162126+603597070+598459036+595988545+596326926+599180598+604446098
3678+612119996+618884674+618621468+612685654+608123081+606593527+604877507
3668+601459294+597841050+595539469+595309062+597260968+601105856+606685734
3658+613146172+618342795+621664662+625613237+632359988+640804497+646966619
3648+648218767+645980360+642799227+640061393+638003004+636551382+635976444
3638+636835684+639408111+643335479+648314702+654843792+662183595+665808026
3628+663103437+659374350+659448146+663486357+669789959+675272262+675791593
3618+671962322+670601716+675872992+685167646+693001064+696077168+694036519
3608+688517467+683264006+681892367+685013644+690413803+695562682+699454419
3598+701466071+700370758+696807376+694456412+696308693+702090132+709299264
3588+714272002+714190528+710599790+707803514+707367372+707503709+706925714
3578+706969321+708977990+711440692+711438158+708663649+706396395+707744776
3568+712012798+715536599+716270534+714802365+711961439+708860662+707146506
3558+707820808+710306767+712415546+711781869+708412295+705211930+705139923
3548+707845705+710017099+709631570+707979060+706736527+706028756+705913962
3538+706527439+706659526+705896817+706894630+711651123+717623984+720638741
3528+719920459+717199321+713271208+708392914+704273304+703136993+705711135
3518+710328459+713573325+713326294+711066270+709499184+709030840+708527536
3508+708595294+710777869+713865527+714309273+710988896+706651774+704102007
3498+703498296+703807345+704933741+707149115+709580137+710695277+710108338
3488+708850077+707987036+707773549+707775189+707176173+705882431+705007910
3478+705151924+705129934+703631278+701823721+702649641+707465692+713941709
3468+717800722+717494357+715289866+713104459+710501768+707470985+706206985
3458+708199926+711441512+712474807+710374451+707144344+705155726+705126878
3448+705831892+705990218+706201319+707332859+708279164+707852786+707389585
3438+708691900+710675077+710558643+707699305+704176101+702136721+702043171
3428+703121339+704622754+706584314+709302619+712017494+712767606+710233269
3418+705291168+700100172+696449726+695305067+696741705+699720532+702626086
3408+704596441+705969868+707079046+707640269+707783388+708253074+709181265
3398+709428519+707803962+704550002+701023741+698567823+698149272+700198865
3388+704077781+707954983+709795934+708836063+706210637+704050872+703802276
3378+705201569+706576338+706357037+704957222+704543964+705868566+706876516
3368+706188573+705337756+705375176+704780186+702715759+701136374+702095797
3358+704995909+707076586+706122231+703147131+701594655+703353163+707035737
3348+710369307+712623070+714290339+715777219+716597473+715451696+711631817
3338+706306274+701926514+700226446+701105588+703432550+706306796+709030766
3328+710419250+709658107+707793750+706897015+707664271+708536034+707415079
3318+704354554+701880521+701995092+703945396+705860516+707209642+708432421
3308+709580807+710342025+710194657+708392690+705200823+702531865+702146411
3298+704178487+707563044+710553723+711071339+708081927+702769056+697666467
3288+694878615+695357991+698816940+703558003+707281277+708914257+709149287
3278+708885484+708078200+706649314+705445469+705369138+706246193+707330772
3268+708334101+709059390+708636143+706457220+703597958+701907953+701776462
3258+701658686+699945722+697104200+695412556+696407610+699416329+703045531
3248+706902680+710694756+712713265+711139545+706830897+703143329+702429072
3238+703617487+704021875+702849486+701347848+700418017+699902935+699518078
3228+699305560+699376300+699609317+699759890+700078630+700961499+701567074
3218+700436653+697771794+695160978+693318610+692003698+691368083+691620629
3208+692318636+692882766+692985708+692485758+691883537+692366119+694365844
3198+696423860+696500340+694450747+692299181+692084203+693898469+695885670
3188+695967741+693740813+690712639+688509342+687422154+687012996+686900214
3178+686155992+683613680+679898233+677386036+677355176+678650110+679417366
3168+679183828+678670535+678062798+676680649+674606234+673261282+673466644
3158+674094059+673722023+672687387+672327724+672977726+673759144+673789930
3148+672715340+670419238+667277687+664697954+664168561+665414969+666599359
3138+666505288+665371213+663860555+662578069+661954976+661659717+660862422
3128+659412738+657952992+656964870+656347294+655697888+654616515+653068586
3118+651696799+651308288+651845584+652263389+651726243+650660597+650043096
3108+649803668+648804887+646634686+644459863+643568794+643836174+644173847
3098+644123979+644188457+644522627+644154690+642158990+639276471+637444091
3088+637818812+639960463+642659462+644890191+646035372+645790578+644105567
3078+641307130+638436239+636790064+636489513+636198056+634926154+633443971
3068+633111889+633967252+634767977+634387070+632644290+630280728+628425539
3058+627653736+627380020+626593458+625188612+623878806+622952628+622045979
3048+621067995+620439051+620295074+620199437+619772687+618924368+617553177
3038+615916655+615084549+615790904+616944732+616700832+614941727+613091533
3028+611778484+610282511+608140524+605980684+604745456+604924952+606160552
3018+607166825+606720583+604882538+602568509+600327270+598484380+597801282
3008+598688699+600175727+600793229+600165179+598724702+596567285+593919198
2998+591984585+591789287+592583414+592638836+591408081+589912965+589198522
2988+589193304+589100127+588320833+586865038+585159305+583639515+582567758
2978+582112011+582193373+582144287+581195710+579690605+578967031+579537981
2968+580251381+579731230+577928891+575863868+574468861+573839582+573210638
2958+571900869+570381005+569751614+570189024+570662213+570141205+568517468
2948+566479354+564858486+564010428+563746290+563826124+564186681+564578769
2938+564408852+563277946+561529761+560001027+559239921+559065345+558875078
2928+558277814+557355102+556414314+555548626+554465165+552743257+550189092
2918+547206649+544941333+544433109+545225784+545578999+544602281+543151219
2908+542109017+541232372+540205339+539349342+538762998+538065253+537348424
2898+537164419+537429749+537367022+536538494+535171701+533592092+531971224
2888+530486768+529280462+528337699+527619715+527168702+526916304+526545796
2878+525754724+524642938+523659102+523024530+522337183+521043217+519272446
2868+517805171+517165754+517092480+516951895+516388212+515433000+514196506
2858+512693749+511069937+509860501+509608290+510104997+510457839+510095530
2848+509225482+508231657+507210290+506129811+505026336+504034561+503308490
2838+502733216+501842482+500363355+498634179+497180321+496187242+495563628
2828+495186522+494948325+494767935+494588476+494358143+494104664+493885736
2818+493504903+492500941+490668637+488478906+486766203+485991866+485876923
2808+485737418+485153274+484281026+483510901+482913712+482162222+481024718
2798+479734181+478701260+478031020+477503862+476842717+475868906+474563983
2788+473042106+471427463+469887324+468792011+468540247+468998342+469309963
2778+468610130+466922510+465058563+463666948+462734843+461977055+461222806
2768+460299349+459017757+457495918+456167961+455258517+454478105+453459533
2758+452235300+451041667+449986421+449129231+448476545+447769519+446749270
2748+445634353+444833926+444307290+443637982+442572001+441223397+439905913
2738+438830577+437888969+436809086+435487428+434054778+432747805+431784505
2728+431194732+430774766+430319093+429735135+428881635+427602764+426037057
2718+424632509+423691050+423008212+422116323+420835067+419391160+418072260
2708+417077392+416604017+416641735+416703567+416172757+414970924+413596677
2698+412478666+411578950+410713896+409966394+409512101+409227613+408792626
2688+408067673+407141644+406170741+405339044+404769845+404323379+403619819
2678+402403414+400876207+399566252+398783939+398318241+397798016+397173880
2668+396623876+396172117+395665980+395020041+394300827+393617692+392987816
2658+392309004+391506714+390669165+389955132+389400693+388861907+388137028
2648+387197171+386281131+385609959+385071434+384421358+383676986+383002908
2638+382356521+381563623+380641172+379841304+379409262+379278591+379026342
2628+378359792+377564844+377076560+376759051+376099694+374978143+373782199
2618+372874358+372314365+372025069+371942962+371935992+371757614+371289755
2608+370708704+370179347+369596805+368888736+368258413+367827824+367387731
2598+366768477+366103455+365515956+364912058+364259858+363728116+363374342
2588+363015462+362584761+362308510+362330761+362451406+362427777+362239261
2578+361871734+361182188+360205695+359320365+358886757+358867563+358933346
2568+358868010+358743600+358677892+358589635+358389603+358276300+358490793
2558+358794139+358594368+357707175+356642089+355997491+355858695+355885083
2548+355761195+355459786+355174143+355058939+355038888+354872325+354393917
2538+353708583+353152541+352978412+353084708+353192346+353205018+353181649
2528+353107480+352972299+352917549+353049412+353280827+353532851+353821103
2518+353984275+353661510+352766826+351730662+351076336+350955206+351182632
2508+351470884+351523138+351151921+350465580+349796794+349357745+349051789
2498+348669764+348195680+347831358+347710862+347690363+347523353+347178785
2488+346846963+346674773+346637204+346616444+346467435+346076018+345507900
2478+345031803+344827634+344732333+344450454+343982334+343638548+343600830
2468+343676900+343604073+343416303+343322119+343350408+343337140+343198902
2458+343023134+342894922+342777109+342587625+342298814+341937138+341570357
2448+341303946+341164516+340996909+340667846+340339416+340263048+340339863
2438+340214410+339787175+339324384+339064980+338975716+338899125+338740314
2428+338489408+338214126+338057402+338102165+338217555+338179390+337937130
2418+337618316+337344040+337212288+337345867+337755808+338230749+338502303
2408+338479904+338275362+338041451+337835120+337649064+337543066+337640156
2398+337934558+338201640+338231047+338095009+338027623+338080138+338082784
2388+337900157+337482352+336675030+335212265+332933643+329886648+326221368
2378+322081407+317627255+313096771+308742076+304711822+301058207+297749776
2368+294635917+291706827+289392146+288166386+288049542+289005220+291369136
2358+295316574+300514614+306864189+314837614+324223805+333155628+339336236
2348+341754773+341106001+339181414+337342363+335312747+332240147+328217962
2338+324001783+320043182+316302317+312670916+309295155+306527355+304688956
2328+303844699+303665893+303629256+303575269+303958915+305309197+307512663
2318+309796316+311404046+312267311+312997818+314224137+316043993+318103985
2308+319945309+321235473+321944177+322363547+322811430+323323418+323702834
2298+323803242+323731682+323851321+324515933+325649709+326678494+327086981
2288+326970212+326818482+326891235+327069725+327182170+327161150+326972709
2278+326665486+326421847+326349393+326303214+326088386+325750713+325497980
2268+325408903+325389522+325358028+325324373+325326273+325378862+325441887
2258+325421687+325274318+325076299+324950212+324978314+325153524+325327615
2248+325326609+325208610+325241445+325559737+326026255+326447303+326742189
2238+326911883+327015197+327185674+327549213+328097652+328689027+329161508
2228+329440480+329613938+329932379+330613912+331603450+332644832+333607424
2218+334584738+335674721+336866304+338182707+339747556+341612473+343647903
2208+345699807+347731585+349752516+351777138+353897695+356222197+358729661
2198+361298436+363828933+366302146+368773979+371271939+373714701+376039539
2188+378291773+380471143+382476235+384250173+385817520+387249984+388663142
2178+390067690+391281710+392158132+392739705+393124600+393366040+393454259
2168+393290305+392817638+392173487+391568732+391089989+390688360+390333207
2158+390130640+390149388+390197280+390056770+389765722+389387313+388852403
2148+388119362+387187966+386438525+387180362+390750677+396825958+403772257
2138+410589226+417318832+423998161+430431502+436581921+442557764+448544453
2128+454736764+461113230+467457047+473428306+478485611+482256815+484927450
2118+486740374+487518737+487113231+485850610+484334212+483161264+482924297
2108+484352922+488318343+495494565+505795716+517877029+529153593+536767336
2098+538854274+535112478+526882313+516515193+505679282+494538906+482846065
2088+470795798+458654554+446562282+434664527+423111378+412334988+403032432
2078+395400053+389024743+383667072+379333901+375804100+372797096+370210617
2068+367946233+365968535+364326498+362842227+361270632+359692737+358281518
2058+357073274+356161296+355588669+355176268+354831588+354695811+354946121
2048+355789856+357395815+359709956+362748678+366940482+372879128+381065090
2038+391878117+405341355+421030440+438316464+456217717+473131929+487309312
2028+497366414+502312056+501944306+497259633+489926390+481439803+472630936
2018+463630422+454412285+445288741+436640660+428513400+420766078+413343571
2008+406239655+399374159+392681749+386334726+380688618+375840550+371414015
1998+367049051+363009610+359961795+358048352+356480595+354382550+351800507
1988+349382865+347472255+346021416+344941906+344120347+343393046+342691014
1978+342036130+341431113+340836570+340170654+339418568+338803302+338580907
1968+338608488+338435552+337887411+337225743+336701455+336302845+335980229
1958+335790521+335706475+335542894+335176038+334672249+334223174+334058885
1948+334328166+335026955+336032222+336958176+337085493+336058609+334533565
1938+333477983+333162821+333216044+333274708+333294536+333381228+333523900
1928+333656472+333945283+334576501+335269178+335691716+336199866+337141027
1918+337778543+337140915+335643451+334585259+334568786+335165118+335594961
1908+335473011+335033179+334675268+334456079+334192948+333876444+333770297
1898+334131302+334823382+335355497+335626716+336222899+337334387+338006379
1888+337391561+336066995+335064375+334570128+334250270+333999214+333909205
1878+333964291+334048598+334200327+334903179+336906221+340264315+343422713
1868+344070963+341825028+338707665+336579170+335739945+335594924+335581283
1858+335455382+335237162+335076488+335092701+335399476+336157936+337498602
1848+339614873+342620572+345561905+346275603+344122434+341298504+339812855
1838+339653671+339793176+339873345+340781037+343412799+346948862+349130729
1828+349128604+348296721+347392085+345886496+343931571+342624187+342414018
1818+342739205+343093053+343764486+345313011+347514781+349192337+349439517
1808+348719669+348260158+348940760+350941565+353661435+355822431+356459574
1798+356114894+356492969+358919891+362991236+366077068+365643646+362883039
1788+360989685+361326463+363124218+365272131+367369356+369133493+370166824
1778+370893194+372753191+376986663+383121950+388212389+389273562+386997549
1768+384005230+382051013+382276985+385034201+388781216+391127596+391874911
1758+392487121+393325974+394351665+396793719+401763587+407938493+412022323
1748+412471138+410884186+409475613+409489217+411075013+413215845+414570748
1738+415769487+419307599+425820775+431173190+430920121+427360280+424254472
1728+422535656+422331823+423744757+426335372+430093717+436283010+445665474
1718+455557429+460206358+458020131+453579768+450809284+450873129+453750878
1708+458886191+464809445+469870030+474690890+481758840+491256210+498962795
1698+501967637+501918887+499809773+496787599+495928508+498748972+504157890
1688+511328484+521560348+534633288+543726866+543422811+539596708+538841192
1678+542809186+550242762+558136744+564262266+569854556+576400529+581677919
1668+583005428+582982358+585796895+591730734+597601884+601169328+604092175
1658+609250745+618405410+632228497+647525158+654581704+653045031+653350949
1648+658544554+663669356+663269441+659618398+657656988+659141855+664343510
1638+673012015+682026244+684577576+679109808+672784067+670521434+671995344
1628+674818006+677393713+679586277+680849457+680283464+679319269+680819939
1618+685140215+688362421+686284278+680596314+675166339+671140054+667726650
1608+664252494+661141058+659240399+658782490+659387171+660829623+663342715
1598+666854664+670207093+671774328+671000215+668737060+666101645+663708043
1588+661765343+660250958+659043758+658104908+657667871+658501245+661623490
1578+666844079+671113518+670850908+668289066+668579330+672952382+678355001
1568+681568261+683586547+687116236+693412756+703664672+720151314+741709088
1558+756571321+758847222+759126604+763592609+771256146+779792638+788166332
1548+796847957+807238297+820130174+834473450+847686676+854742103+849810885
1538+838074549+830320817+828848474+829865369+829448384+828021361+828329441
1528+830906863+834446018+838796409+845261692+853321939+859671756+862527143
1518+863132569+862009825+859460953+857905048+860172899+867134628+877659291
1508+888223909+891441641+883957302+874283381+869292380+869427748+872825647
1498+876588502+877699692+876060078+875102741+877484640+882108077+884794701
1488+882687190+877755897+873675644+872218507+872956542+874492768+876332005
1478+879392455+884378909+890388594+894773721+894450434+889698041+884908750
1468+883516464+885428230+887770249+887882359+887350580+890186512+897614498
1458+905205729+905085941+897500449+890177865+886202939+884928131+885429720
1448+886433198+886362682+884887878+883173275+882432258+883257656+885722743
1438+888908125+890623250+889826551+888531989+888267068+887842852+886006970
1428+884329041+885273183+888705894+892330474+894661163+895935376+896170032
1418+894503433+891067667+887340592+884594036+883206595+882610561+882113071
1408+881872078+881998501+881591057+880357768+879795203+880951640+882857070
1398+884246523+885027867+884802677+882305015+877895215+873984544+872056826
1388+871049771+868946657+865874503+864109286+864943182+867609606+871013096
1378+875087087+880035152+885052391+888702838+890771513+892617012+895103567
1368+897622846+899641057+901811557+904568027+906825740+907320844+906434397
1358+905424434+905008865+905423689+906611358+907971741+908782752+909093218
1348+909601218+910686020+912287619+914651926+918200251+922349380+925235030
1338+925428093+923733168+922329328+922468199+923753891+925277593+926733165
1328+928350939+930303778+932432385+934402442+936184729+938146661+940325584
1318+942172648+943447233+944488950+945230713+945014319+943758444+942432499
1308+942019912+942584639+943531614+944312436+944709742+944681118+944230813
1298+943667428+943644022+944457196+945440473+945471855+944162906+941990916
1288+939221177+935723765+932038060+929380507+928125302+927199124+925404314
1278+922672144+919837927+917788856+916776583+916180176+915204130+913826006
1268+912436255+910850459+908592746+905792818+902996990+900529443+898442355
1258+896436071+893752801+889965720+885763815+882214447+879555701+877332352
1248+875314737+873705088+872548800+871385953+869845553+868384390+867740277
1238+867768976+867776430+867826745+868474586+869511309+870308232+871090023
1228+872685286+875302140+878399935+881342535+883630885+885051497+885937124
1218+886852867+888034126+889456079+891352490+894071018+897280701+899943994
1208+901337025+901902646+902932959+905421900+909239095+913399331+916985970
1198+919554744+921054594+922173313+924250561+927721213+931143338+932848401
1188+932983768+932902071+933446000+934686892+936549982+938988757+941821185
1178+944730167+947375272+949558294+951542738+954156386+957877573+961529137
1168+962941624+961810606+960694794+961955738+964860620+966898063+967279045
1158+967593386+969235535+971796260+974266490+976551635+978955523+981304550
1148+983345496+985090289+986468487+987498874+988522030+989600944+990420230
1138+990970346+991673123+992680626+993828416+995047319+996014942+996303492
1128+996633413+998755833+1003224894+1008336726+1012075504+1014186818+1015508289
1118+1016465402+1017171534+1018106657+1019750073+1021805928+1023565405
1110+1024955828+1026345803+1027259086+1026400219+1023794099+1021806002
1101+1022535764+1025009572+1026446211+1025980774+1025542619+1027073999
1093+1030567163+1035043082+1039360004+1041481678+1039678520+1035463570
1084+1032654325+1032938775+1034519651+1035291678+1035296225+1035615113
1075+1036448711+1036994056+1036950748+1037396506+1039354413+1042081812
1067+1044243068+1045912574+1047704030+1048916448+1048685592+1048433046
1058+1050723483+1055911795+1061500469+1064791625+1065473233+1065062509
1050+1064137002+1062050585+1059426948+1058625552+1060917182+1064582536
1041+1066470151+1065046632+1062313046+1061841496+1064694274+1068663758
1033+1071472631+1073012584+1073741823+1073280635+1071701771+1069725900
1024+1067172257+1063264792+1058739005+1056252375+1057620733+1061340876
1015+1064083630+1064487869+1064116279+1064764343+1066317713+1067545934
1007+1067581117+1066055029+1063529414+1061522831+1060902944+1060779727
998+1059873601+1058153034+1055964272+1052993420+1049064263+1045063919
990+1042450420+1041960235+1042370139+1040907932+1036193630+1030125728
981+1025638479+1023722241+1023437045+1023519488+1022872542+1020265230
973+1015154813+1009038758+1004348309+1001638576+999412767+996788683+994590976
963+993524734+992625614+990193325+985347755+978746062+972318423+967594802
953+964450791+961972063+959777114+958143089+957425628+957526184+957834413
943+957771053+957185008+956135091+954652460+952730258+950384363+948272230
933+947853381+949711551+952086742+952294042+949636935+946145486+944371846
923+944966314+946592735+947900715+948694731+948979927+948553698+947894602
913+947580261+946995855+945183453+942477746+939973599+937920577+935932555
903+934283399+933685651+934021833+934305687+934039425+933503546+932721904
893+931786855+931754802+933560570+936441003+938716606+939688925+939563248
883+938288663+936008737+934047326+933860600+935120947+935908627+934858189
873+932344277+929564028+927488271+926774908+927484767+928653131+928948762
863+927995675+926608979+925476843+924362298+923279061+923428219+925784848
853+929442674+932339357+933058906+931430770+928575309+926680464+927354990
843+930039602+932665252+933648380+932751199+930567505+928095560+926671072
833+927460914+930322189+933444136+934825390+934078112+932316100+930813343
823+930426473+931553764+933845021+936462471+938760063+940276387+940619352
813+940245750+940553159+942060910+943528483+943775141+943054026+941960801
803+940527442+939005901+938241105+938432081+938660029+938512064+938916451
793+940463486+942234443+943233448+943687704+944173714+944468004+943864665
783+942285280+940684129+940036363+939999539+939399108+938334655+938149121
773+938864943+939023269+938598607+939239663+940977971+941765800+940999290
763+940492259+941240134+942151627+942340143+942385240+942957048+943692325
753+943989970+944083072+944810746+946094127+946145933+943597658+940225400
743+939660376+943253201+948748922+953292674+956226180+958248938+959646666
733+959788071+957302858+951666999+945295415+941881116+942460900+945333431
723+949007656+952699398+954592901+952920190+948551089+943974763+940973350
713+940175159+941027616+942208055+943058723+943678461+943306126+940315521
703+934556966+927928215+922370624+919045477+918923229+922155646+927065620
693+931306957+933873943+934247023+930414844+920806669+908391186+899490782
683+897875393+901652560+905605272+906190572+903594366+899586269+895819687
673+893340213+891667577+888995786+884386139+879931018+877892755+878269040
663+880150170+880831553+877500965+871927646+868092039+865655873+861422289
653+856318283+854458398+856736536+860706690+864436971+867173613+868068334
643+867101978+865751361+864801404+863021204+859321113+854879558+851715942
633+850134917+849143068+848711100+849295878+849965633+849133452+846543209
623+843371692+840863147+838805876+835248532+830359132+828709081+833299570
613+840051912+842466535+840369011+838356316+837996654+837020980+833911705
603+829920753+828104773+830805486
##END=
