##TITLE=<SNM>
##JCAMP-DX=4.24
##DATA TYPE=INFRARED SPECTRUM
##DATE=3/5/2025
##SAMPLING PROCEDURE=Instrument type and / or accessory
##ORIGIN=Admin
##XUNITS=1/CM
##YUNITS=ABSORBANCE
##RESOLUTION=4
##FIRSTX=4497.3318
##LASTX=599.83466
##DELTAX=-1.4281778
##MAXY=1.7041826
##MINY=0.1816195
##XFACTOR=1
##YFACTOR=1.5871438e-09
##NPOINTS=2730
##FIRSTY=0.19861317
##XYDATA=(X++(Y..Y))
4497+125138738+126700637+128262958+129200500+128841403+127218384+125271832
4487+124082795+124137653+125271654+126914389+128350779+129094343+129080616
4477+128422743+127258549+126044425+125559961+126178599+127363815+128214174
4467+128373622+128154659+127849030+127325368+126604234+126358185+127118517
4457+128290955+128747629+128226210+127330438+126411795+125335149+124271723
4447+123938707+124670620+125671911+125733830+124565692+122940814+121778864
4437+121552184+122162119+122961413+123308240+123295312+123471405+123883737
4427+124011733+123603945+122968267+122324627+121345192+119725807+117988172
4417+117112585+117379495+118144784+118788198+119279592+119657889+119627357
4407+119124848+118804788+119279995+120111634+120292141+119587859+118612424
4397+117787930+117087836+116618844+116649968+117152092+117868410+118619296
4387+119194305+119242319+118526996+117168288+115663144+114707359+114658472
4377+115098753+115286649+115039023+114826708+115134994+116008562+117012915
4367+117506110+117179075+116349070+115575867+115115991+114907910+114949765
4357+115423414+116320407+117125287+117231689+116673496+116090788+115975439
4347+116280336+116729884+117171536+117552669+117768045+117668788+117197496
4337+116428029+115527778+114789838+114593850+115037333+115635447+115770315
4327+115467756+115305961+115485867+115521882+115075432+114541245+114431661
4317+114719113+115181158+115807222+116543894+117196219+117718764+118121998
4307+118255016+118183165+118378486+119044105+119732736+119986943+119818360
4297+119326507+118478307+117505256+117006859+117387334+118410220+119434364
4287+119979554+120019738+119807263+119528251+119123083+118435682+117576356
4277+116998503+117067491+117723101+118694659+119740970+120558835+120914825
4267+120976865+121105058+121393666+121718091+121987705+122104294+121962516
4257+121692929+121619125+121851110+122181741+122448341+122754590+123185361
4247+123481010+123263813+122643682+122329978+122878859+123979295+124835015
4237+125126759+125157347+125173401+125095973+124838724+124463168+124159726
4227+124256185+124890408+125569077+125557717+124842761+124186230+124143578
4217+124506581+124810201+124928921+125008959+125124186+125201539+125182574
4207+125164351+125369606+125962538+126937053+128151017+129302799+129949087
4197+129846647+129220066+128483328+127861836+127364641+126902615+126454100
4187+126252844+126593737+127361270+127999333+127986208+127290123+126504151
4177+126404518+127151377+128181211+128990476+129577408+130043405+130301791
4167+130357954+130478842+130834391+131155173+131070244+130702321+130506069
4157+130591459+130718948+130840071+131068009+131299477+131403936+131546127
4147+131895404+132275166+132382460+132115784+131546812+130857384+130421806
4137+130661780+131607670+132753753+133513043+133721462+133614976+133450186
4127+133305600+133165362+132988329+132718358+132414841+132329940+132640780
4117+133159071+133563601+133852575+134295616+134943293+135416782+135282093
4107+134549993+133707454+133286006+133483760+134142806+134954006+135697062
4097+136335642+136852159+137042711+136619602+135562983+134342804+133709069
4087+134090699+135196590+136345594+137072671+137261702+137016686+136695791
4077+136757268+137268115+137762597+137791448+137470844+137309950+137541128
4067+137844043+137822102+137496616+137128177+136857614+136797404+137117220
4057+137707288+138094214+138000693+137663105+137392317+137212984+137083515
4047+137101625+137371108+137857169+138364748+138614872+138476220+138115254
4037+137794518+137635296+137663725+137908102+138353444+138910962+139451918
4027+139873432+140236416+140746746+141399935+141838160+141822763+141574451
4017+141356324+141062656+140577750+140153796+140037179+140090864+140151148
4007+140408689+141126415+142280451+143630419+144804396+145317027+144915689
3997+143960496+143164853+142884198+142880921+142836062+142769384+142860604
3987+143223871+143933006+144865666+145504406+145330114+144473877+143678751
3977+143595380+144236626+145026119+145367988+145224201+145011407+145001370
3967+145152030+145465659+146053868+146745991+147046973+146714792+146098267
3957+145711754+145747093+146138047+146856017+147924982+149118328+149856277
3947+149812057+149493152+149598511+149996703+150022776+149536330+148936751
3937+148581409+148829645+150001050+151731541+152871118+152634139+151552443
3927+150788130+150852518+151248945+151372960+151497763+152310934+153770506
3917+154891935+154647322+153028360+151081629+149928063+150012674+151337029
3907+154017944+158032471+162448167+165617029+166475811+164943881+161370761
3897+156903297+153662104+153269273+155265604+157162161+157149711+156656628
3887+157783296+159861740+160812737+160908595+161658937+162124427+160575466
3878+158361225+158055661+160024464+163039240+166120374+168110095+167747111
3868+166133105+165531386+165760469+164767843+162278232+160426731+160960665
3858+164312493+170451816+178093814+182105196+178165994+170629694+164797305
3848+162152631+162350788+164473847+167502761+170853764+174432779+177619912
3838+178853620+177560050+175123128+172841025+170954448+169532197+168820592
3828+168682691+169051666+171012038+175608522+180984227+183113558+181855082
3818+180594241+179652351+176880874+172825590+170290162+170919597+174422133
3808+178559924+180946316+182457046+185272557+188221517+188184658+185923135
3798+184269866+183177363+181423335+179591419+179052848+180017101+181892712
3788+184370193+187309127+190175336+192654545+195341750+198660511+201758395
3778+203737582+205228314+207592587+211694870+217593168+224320240+230469159
3768+235746114+240708230+245547317+250771940+257586327+266241569+275088489
3758+282610988+289809071+299119754+312122473+327757436+341540109+350591346
3748+358225832+367979904+378585754+385962766+390583191+396860377+407093759
3738+420948274+436241847+449630233+458892490+464569890+468568898+472260409
3728+476235044+480577114+484807909+488207094+490591965+492673432+495445680
3718+499297924+504405020+511714471+521974067+533389181+542362755+547860795
3708+551968786+557283860+565537586+575850358+584180020+587506048+587726043
3698+588366350+591141715+596273446+603305068+611314464+618185201+620424661
3688+616930463+611232970+606742634+604633302+605399304+609492086+617013533
3678+626384623+632478993+631045983+626742744+625978019+627997596+627878810
3668+624351263+620345834+618474109+620014113+624700785+630971474+637244980
3658+642288796+645523004+648814745+655363827+665607462+674923196+675852148
3648+667571570+657741938+652231618+652198795+656383586+662151231+666815520
3638+669801641+672739016+677190596+683143160+689799949+695742598+697548001
3628+693221479+687000774+683446526+683266865+685870905+690587620+695123247
3618+696557910+695585620+695458910+697830337+702323977+707800724+712196421
3608+713073097+710172526+705688800+702333741+702521440+707037763+713236535
3598+717204335+718566293+720248516+723668995+727276721+729570559+730665879
3588+731010105+730505370+729348461+728726856+729357700+729766144+727961492
3578+724967785+723951856+725439396+726527881+725512102+724165768+724984534
3568+728214160+731711851+733783667+734597025+734316567+732351407+729073937
3558+726621767+726788135+728878277+730543150+730270879+728547796+726825163
3548+726081281+726384272+727310670+728620201+730027675+730433716+728502279
3538+724546797+721005167+720025066+721337752+723294800+725249069+727765983
3528+730911486+733430502+733740779+732104072+730895938+732009810+734928032
3518+737274072+737068122+734619934+731684361+729140784+726885476+725351068
3508+725221579+726051312+726759743+727147307+727422283+727073550+725886222
3498+725202502+726776868+730326234+733710059+736135039+738468310+739983791
3488+738688005+735275263+732715912+731670391+729842305+726395839+723846628
3478+724277230+726648807+728539984+728599020+726990329+724670878+722839187
3468+722086817+721774437+721188660+721040394+722767382+726748852+731634188
3458+734978731+735088391+733034977+731721615+732562539+734353972+735209241
3448+734351042+732263078+730011902+728275975+727140623+727174948+729667601
3438+734411355+738604033+739668106+738013899+735552867+733196462+731112404
3428+729677665+729101727+728966380+728852664+728917108+729332237+729471340
3418+727944593+724110562+719370638+716310459+716814142+721060974+727792947
3408+734538290+738465005+738886744+737904840+737328676+736470552+734003737
3398+730674216+729048399+730789734+734916315+739167953+742399231+744511306
3388+744768179+742452334+738641737+734885746+731187738+727525107+725502413
3378+726253807+728080916+728123954+726092096+724528471+725523669+728754497
3368+732521680+735491502+737149991+737655252+737674630+737459667+736589000
3358+735233276+734348263+734157035+733769095+732374390+730383167+729354320
3348+730635985+733829333+736628432+736755517+734188806+731134861+729927554
3338+731087617+733492167+736116562+738426699+739576473+739215122+738427526
3328+738299690+738447880+738172154+737867811+738053406+738393802+738346633
3318+737865032+737407015+737379225+737266561+736112882+734358178+733745511
3308+734867794+736140822+735681304+733648244+732216435+733129765+735722163
3298+737923617+739243213+741173297+744269378+746764660+746729359+744461959
3288+742203046+741856416+743267720+744865972+745590852+745736113+745764655
3278+745219737+743542846+741055375+738422869+735827316+733532276+732826173
3268+735183254+740195749+745035043+746708253+744790562+741207998+737982803
3258+735787658+734120532+732550672+731694576+732646812+735618061+739263718
3248+741558833+741539530+739796318+737579541+735914893+735539647+736489780
3238+737412949+736924813+735766102+735590571+736256265+736427289+735798624
3228+735099657+734857279+735102962+735652161+736367878+737280681+738243733
3218+738795336+738741633+738286696+737433228+736135264+734963108+734693541
3208+735130752+735091846+733974069+732602723+732048716+732491786+733782840
3198+735756863+737312227+736818609+733881008+729477799+724931733+721713524
3188+721091919+722862396+725136931+726247723+726515938+727371208+729095944
3178+730295965+729564175+726930166+723778053+721746346+721489172+722228398
3168+722738165+722836633+722979491+723022454+722252132+720149447+717208016
3158+715149570+715313383+716549232+716333368+714257647+712268827+711439019
3148+710670651+708750631+706090259+704169639+704197429+706186774+708918951
3138+711087357+712326661+712522621+710849336+706903918+702296863+699594279
3128+699755689+701275827+701861980+700672849+698638964+696909421+695689871
3118+694663352+693804102+693311309+693257756+693657864+694532136+695734411
3108+696819591+697052054+695866904+693870123+692804622+693636833+695338885
3098+696441490+696781510+696628588+695533419+693397084+691238217+689860412
3088+688992824+688262611+688005887+688630872+689582357+689403221+687320064
3078+684352570+682100717+681081108+680699703+680109419+679015151+678222072
3068+678857647+680518990+681054745+679013499+675533909+672931071+672168561
3058+672351077+672283854+671759666+671063177+670211888+669258451+668389586
3048+667517041+666702255+666656739+667807939+669299836+669674932+668352632
3038+666234174+664921939+665180916+666248369+666858933+666525147+665552482
3028+664425767+663320909+661846287+659499722+656465005+653614681+651791703
3018+651259704+651653877+652381311+653141943+653791864+653833625+652837675
3008+651154025+649282075+647029171+644226692+641669370+640286757+639830994
2998+639362387+638754452+638642464+639006669+638988568+638206905+637324521
2988+637121125+637483903+637489236+636426439+634532933+632529166+630864744
2978+629903570+630062050+630909058+631069191+629863236+627989071+626097630
2968+624084963+622104481+620978592+621198550+622201935+622836984+622245686
2958+620351880+617823325+615662354+614644135+614740350+614985582+614262655
2948+612400019+610220008+608727473+608440368+608946717+609008908+607730660
2938+605665829+604276758+604332902+605156814+605485830+604890589+604056199
2928+603803794+604201310+604502837+603734806+601547210+598567586+595750723
2918+593629749+592346618+591904901+592084900+592370616+592160610+591118506
2908+589463134+587933758+587274749+587519117+587732465+586711955+584230455
2898+581423019+579605937+578975770+578790325+578431190+577810186+577111632
2888+576514250+575912774+574885391+573220255+571295016+569591348+568157774
2878+566951218+566326684+566551186+567070492+566950392+566014380+565031687
2868+564705750+564838506+564595865+563440120+561727402+560366760+559909194
2858+560052014+559950729+558866226+556727187+554253236+552336897+551231363
2848+550514858+549726473+548695485+547415847+546094787+545146945+544707330
2838+544428073+543982187+543363774+542599312+541630477+540648197+540103504
2828+540119089+540136026+539470858+538169251+536880601+535905757+534906427
2818+533528922+531779251+529819085+527841494+526143723+525068533+524780076
2808+525058581+525394545+525401606+525006080+524172967+522795575+520982474
2798+519135272+517639846+516629025+515997205+515532954+515065774+514509477
2788+513738968+512547396+510923645+509287051+508128189+507397901+506586833
2778+505395299+503955303+502489394+501103778+499823464+498673390+497750597
2768+497123021+496647654+496107618+495423861+494520183+493278062+491814144
2758+490454365+489382705+488619820+488187678+487974556+487610238+486717413
2748+485218156+483331185+481353181+479528888+478069401+477058993+476307938
2738+475524810+474599013+473507073+472164945+470662834+469403739+468726440
2728+468502051+468247468+467608814+466671186+465736075+464881219+463919744
2718+462716117+461304888+459692892+457818839+455888417+454516583+454132549
2708+454304099+454131197+453330832+452383553+451590699+450639853+449280412
2698+447869633+446909624+446414127+446049096+445615415+445081463+444379979
2688+443457862+442353342+441115953+439848972+438806004+438154618+437639030
2678+436809673+435690770+434830505+434416390+433814501+432478494+430821507
2668+429573679+428804334+428154901+427533972+427071524+426719487+426216179
2658+425323468+424086267+422892967+422137518+421815074+421576940+421100221
2648+420255804+419067537+417774755+416809601+416392181+416238357+415933939
2638+415366225+414531835+413368505+412078502+411076619+410376412+409598843
2628+408670116+407915493+407421612+406849354+406003773+405196573+404830603
2618+404816745+404656537+404076280+403290036+402585886+401993311+401463114
2608+401067889+400848156+400654111+400320589+399884128+399457582+398996787
2598+398373455+397588863+396747187+395923313+395191148+394651112+394322659
2588+394107621+393882856+393564768+393168979+392837672+392661316+392512299
2578+392231578+391831245+391322454+390601367+389721800+388964209+388437055
2568+387939455+387350298+386843310+386642092+386790133+387165942+387560829
2558+387759456+387638981+387228170+386710028+386346349+386297115+386486616
2548+386687571+386722760+386566870+386302448+386038476+385827719+385586468
2538+385137277+384429409+383677227+383180491+383051303+383184322+383412354
2528+383619017+383751059+383779375+383689808+383539777+383433985+383339347
2518+383029597+382355828+381477237+380686599+380118172+379778640+379719078
2508+379933891+380177996+380156778+379879211+379605250+379501599+379534234
2498+379606677+379622675+379482033+379138483+378632810+378034076+377412584
2488+376900526+376683159+376825604+377149025+377370785+377323880+376995915
2478+376471652+375894812+375412610+375162233+375265809+375651120+375928048
2468+375730435+375150967+374610668+374400324+374488202+374616151+374521588
2458+374202148+373922704+373878765+374012009+374192121+374343992+374370506
2448+374196402+373894087+373560865+373137474+372583467+372116438+371982931
2438+372071485+372050642+371813334+371485256+371093261+370566932+369993660
2428+369562646+369307387+369135349+369050625+369151460+369448742+369797437
2418+369985398+369871758+369480589+368969470+368516035+368239182+368174438
2408+368277525+368463045+368636548+368699602+368607293+368420571+368227991
2398+368098990+368169593+368556782+369100460+369431993+369354743+368937060
2388+368287364+367453200+366422738+365049815+363105309+360479525+357237807
2378+353552756+349697131+345928521+342252258+338486464+334630765+330928401
2368+327576760+324728315+322667052+321602227+321517354+322559120+325190087
2358+329514694+334834424+340523054+346981930+354683940+362561368+368522306
2348+371163526+370542935+368043522+365350928+362979426+360394952+357313292
2338+353925711+350338340+346499953+342528135+338852547+336061710+334516186
2328+334003865+333915161+333842718+333885943+334359433+335397894+336874243
2318+338500172+339969198+341167266+342252070+343415964+344636829+345768914
2308+346783153+347793786+348875210+349931961+350789183+351391523+351829898
2298+352172885+352385219+352463145+352545352+352800386+353245484+353728887
2288+354067931+354178454+354117728+354047501+354092942+354170943+354060795
2278+353722165+353392097+353265650+353252919+353168910+353019893+352974226
2268+353112690+353317964+353441294+353496612+353579833+353651600+353563722
2258+353302116+353048622+352952820+352948576+352875533+352703044+352523007
2248+352407489+352410831+352587526+352870613+353092824+353215327+353332085
2238+353440618+353466005+353474567+353628616+353964580+354361871+354695206
2228+354946860+355164827+355363491+355553969+355810993+356131709+356311371
2218+356200059+355974581+355931130+356145943+356509547+356929183+357355766
2208+357740776+358086580+358484697+359031755+359707251+360355182+360793445
2198+360975998+361095234+361477615+362282675+363327070+364258951+364839997
2188+365046397+365045308+365096044+365337108+365699999+366112123+366636574
2178+367308765+368025834+368690701+369301340+369889972+370556342+371522473
2168+372913573+374470476+375735017+376619204+377571928+379043545+381030675
2158+383349525+386094320+389453810+393197784+396748840+399802034+402571765
2148+405349571+408083212+410537259+412687601+414776279+417066362+419667247
2138+422488241+425286476+427933404+430638203+433690496+437075898+440576856
2128+444077176+447531679+450843549+453931106+456677891+458758795+459775850
2118+459604977+458481754+456789128+454796140+452537152+449917714+446914093
2108+443648339+440336093+437195209+434328174+431649362+428946291+426037907
2098+422910130+419697592+416484190+413169014+409621751+405910788+402288340
2088+399007227+396181652+393744767+391542112+389510480+387697679+386092067
2078+384603888+383264163+382232274+381523955+380919137+380234140+379552298
2068+379094657+378918450+378800078+378433620+377741600+376932184+376264087
2058+375821731+375483551+375059596+374523579+374106722+374051780+374313986
2048+374635266+374854323+375026511+375283760+375671587+376160211+376793495
2038+377724175+379035884+380630154+382349782+384112635+385905007+387718747
2028+389434844+390718876+391189811+390789441+389857635+388774408+387621968
2018+386231094+384491262+382556859+380732190+379201462+377922426+376741482
2008+375549948+374340537+373169733+372092703+371143509+370342769+369635539
1998+368873142+368048066+367472466+367408473+367565752+367331148+366492777
1988+365372710+364356218+363639187+363272127+363159689+363097385+362954790
1978+362775617+362649283+362532263+362265888+361825034+361488957+361577135
1968+361983176+362188938+361860185+361184539+360492744+359898479+359456649
1958+359300572+359411658+359518051+359381164+359026798+358656246+358459310
1948+358552258+359036149+359916130+360771400+360820221+359809437+358458822
1938+357553416+357154436+356935454+356766721+356748019+356945632+357254894
1928+357558298+358010043+358843269+359834299+360508630+360897771+361284998
1918+361347601+360543030+359187570+358184935+357989801+358328620+358583015
1908+358367789+357875185+357533287+357415065+357280957+357077148+357060098
1898+357444583+358067352+358487926+358579672+358783744+359348829+359697187
1888+359183326+358097771+357209303+356870335+356988031+357331806+357658682
1878+357826063+357842212+357835640+358227184+359727718+362516941+365253098
1868+365778938+363710353+360941523+359176942+358616514+358655570+358775595
1858+358757757+358599426+358409663+358286070+358360053+358854385+359966566
1848+361863189+364533138+367025077+367460899+365399261+362826353+361516935
1838+361489858+361842121+362174405+363124650+365344957+368090841+369586267
1828+369378740+368702794+368130949+367121442+365678142+364650609+364529044
1818+365035168+365726963+366589481+367914822+369592877+370807470+370894221
1808+370302247+370145982+371152334+373294903+375902173+377924191+378667060
1798+378612155+379148623+381345233+384802590+387323259+386942792+384770067
1788+383435938+384044924+385988378+388359054+390769462+392903881+394373771
1778+395509987+397536136+401537322+407157264+411945671+413399788+412047257
1768+409990125+408634702+408986326+411449199+414789310+417012847+417968725
1758+418937861+420306954+422026957+424919567+429647887+435003294+438462642
1748+439121914+438486789+438322187+439465201+441880829+444678126+446714339
1738+448466189+452054725+458129829+463356011+464006495+461775561+459671035
1728+458621082+459022429+461034382+464054903+467867340+473576850+481977790
1718+490990646+495966901+495399713+492673094+490891539+491235540+494144937
1708+499549127+506144740+511932702+516888227+523106790+531076265+537744057
1698+540936053+541786141+540861582+539083745+539076985+542170250+547513151
1688+554334317+563446655+574606323+582815546+584157825+582943420+584125302
1678+588938458+596209979+603371953+608684661+613350978+618967014+624382922
1668+627572777+629866128+634141839+640646456+646675556+650221242+652961380
1658+657843411+666536939+679300642+693087108+700269437+701081744+703514009
1648+709298178+713984774+713634464+710944725+710091633+712323506+717746474
1638+725995656+734179342+736554675+732168966+727062809+725015930+725440072
1628+726338455+726810142+727235936+727107575+725070009+722024101+720564050
1618+720954168+719987211+715234443+708956205+703958356+700572954+697799091
1608+694729073+691335183+688240979+685918674+684351744+683307649+682645110
1598+682269413+681965145+681515090+680882069+680003815+678630967+676720186
1588+674713565+673137697+672106145+671342734+670748845+671064229+673571002
1578+678487133+683196938+683942022+681932923+681747328+684885170+688978177
1568+691289817+692464977+694662301+699165330+707413760+721497810+739931364
1558+751805097+752178014+750858344+753932493+761027244+769619300+777821839
1548+785779746+795028633+806270696+818364198+829512674+836917552+836343717
1538+829987140+825430032+825125464+826708167+827480517+827955057+830332643
1528+834899815+840029782+844824986+850319383+856776832+861802096+863589398
1518+863451497+863009178+863124771+864880752+869135170+875971695+884912483
1508+893804300+896774348+891000469+883845255+881016563+882260523+885342484
1498+888006386+888817567+888092161+887760178+889417616+892751944+895446115
1488+895398045+893404043+891965474+892615921+894978409+897453261+899162975
1478+901114090+904714455+909549843+913008777+912553765+909166936+906419286
1468+906235268+907884294+909295523+909562687+910524612+914223445+920150021
1458+924550752+922738364+916199947+910721323+908554194+909194726+911409249
1448+913305234+913207967+911509295+910117444+910105351+911305298+913423606
1438+915820570+916591867+914731560+912505169+912098227+912855254+912829266
1428+911676413+910825950+911150197+912519365+915243430+919755021+924125182
1418+924604154+921310611+918149485+916809609+915913630+914088023+911923973
1408+910876273+911204727+911659964+911233268+910558411+910678435+911443274
1398+911827157+910934333+908372880+904667061+901436534+899863144+899325887
1388+898092517+895358838+892596317+892033974+894298445+898153956+901913628
1378+904784757+906934311+908737686+910484428+912547531+915167344+917995135
1368+920307751+921948965+923577335+925492923+926843313+926832573+926187609
1358+926261592+927375238+928810051+929958097+930897114+931764927+932251260
1348+932313675+932948575+935331568+939238605+943147143+945776571+946714761
1338+946155197+945171189+945311944+946771394+947918238+947611266+946960594
1328+947717921+950024754+952622410+954392211+955084343+955139023+955167113
1318+955363374+955499247+955527939+955630838+955750938+955749361+955827925
1308+956076086+956060088+955614164+955243274+955106650+954632410+953672889
1298+952990821+953127294+953565032+953274133+951707428+949084986+945854158
1288+942338892+939133977+937102646+936273138+935306031+932874667+929230363
1278+925754378+923368531+921933642+920812486+919523309+917948717+916250345
1268+914604625+912893409+910869213+908708393+906886241+905214307+902587284
1258+898337148+893392701+889412658+887174476+886231854+885696850+884927430
1248+883895128+883241451+883608736+884844284+886256264+887595764+889161568
1238+890974031+892580394+893647472+894176617+894378661+894731900+895636442
1228+896785765+897515302+897881460+898654109+900207896+902165019+904047710
1218+905643257+906949258+908279369+910046541+912037388+913555573+914587425
1208+915929629+918046435+920759233+923896099+927202561+929979879+931869028
1198+933379927+934919894+936222590+937184590+938356821+940144198+942214286
1188+944187332+946341543+948962708+951427721+952922396+953924129+955912799
1178+959537875+963727323+966641189+967359910+966681297+966162592+966580576
1168+967688513+969105075+970662542+972083235+973274619+974727984+976793340
1158+978955437+980580277+981995862+984061369+986860393+989485989+991219588
1148+992502605+994264219+996636397+998746969+999525927+998882466+997932558
1138+997749517+998269799+998774158+999252905+1000777925+1004168359+1008592899
1128+1012176816+1014015567+1014739846+1015160533+1015436034+1015785668
1120+1017139439+1020231689+1024442318+1028100067+1029633724+1028691853
1111+1026840559+1026807510+1029952638+1034107385+1035213370+1032405558
1103+1029536082+1030425076+1034392951+1037378772+1036836257+1034246112
1094+1032891365+1034839025+1039932038+1045956557+1049855932+1050251007
1085+1048875230+1049026650+1052018930+1055570024+1056804521+1055946772
1077+1055249232+1055639500+1056191854+1055750286+1054035841+1052356622
1068+1052953891+1055912748+1058600460+1059843369+1061466331+1064184162
1060+1065774076+1064749810+1063073295+1063503521+1066131521+1068915448
1051+1070643488+1071765547+1072743019+1073262100+1072819405+1071196593
1043+1068983798+1067708291+1068274616+1069577612+1069629212+1067895764
1034+1066251546+1067214748+1070756152+1073741823+1073536324+1070855822
1025+1068037871+1066451262+1066248917+1066821475+1067214973+1066837023
1017+1065596442+1063674846+1061707808+1060425316+1059784709+1059405331
1008+1059384075+1059780878+1060204795+1060648165+1061705629+1063226293
1000+1064072925+1063562031+1061779387+1059126225+1056696739+1055649640
991+1055334782+1053959380+1051843400+1051251238+1052041013+1050814477
983+1045876791+1039843710+1035878839+1034292305+1033382806+1031358459
974+1027221964+1021487592+1016093016+1012904625+1012357529+1013124770
965+1012768076+1009211199+1002344855+994372151+988071155+984852270+984405520
955+985145872+984970943+982672973+978836013+974997026+972056045+969701067
945+967296142+965020555+963739190+963698781+963968424+963448066+961788376
935+959299478+956882385+955812378+956505411+957678318+957608241+956149093
925+954656520+954145101+954426085+954938330+955596889+956357296+956510819
915+955294949+953107315+951345927+950917804+951285238+951108206+949849599
905+948275608+947259304+947123431+948106987+950220489+952441321+953098002
895+951508613+948609469+945741870+943367965+941245150+939529127+939035885
885+939843760+940524176+940002166+939369745+940283300+942090731+942268214
875+939670784+935691342+932239242+930268449+930086384+931422954+933283938
865+934613373+935031957+934615250+933361901+931309689+929047922+928068346
855+929759808+933589933+937248433+939006216+939025444+938234919+937102496
845+935539320+933486207+931593001+930961482+931980716+933926197+935682253
835+936451373+936021747+935017386+934396382+934039763+932973210+931624623
825+932340414+936468122+941929020+944910109+943650902+939602735+935440852
815+933265085+934128166+937719594+942826201+948306328+952734172+953912788
805+950739043+945165631+940653063+939173860+940430064+942855869+944482963
795+944003540+942399881+942535979+945666761+949201480+949494557+946163008
785+941892067+939395808+939853600+942666970+946074379+948850344+951139451
776+953037839+953628048+952243333+949491402+946540658+944254630+943016679
766+942801265+943554386+945385551+947625612+948345234+946303012+942932932
756+940981141+941748458+944708065+948532857+951387838+951842399+950735138
746+950369430+951259025+951749940+951311151+951542488+953049631+953972800
736+952916162+951540159+952377553+955013290+956605908+956123706+955495942
726+955804491+955196631+952013949+948155959+947177585+949791239+952950036
716+953518990+951649143+949798299+949656943+950838713+951983680+952514703
706+952532954+951814459+949663853+945655119+940694449+936020396+931736535
696+927719088+924686699+923372512+923195329+922148755+918459235+912505620
686+906338168+901099744+896500349+892956842+892476368+896216962+902401914
676+906814512+905633342+898567583+888692360+880240533+878005806+883003730
666+888574288+890143172+888042815+883172876+877209722+873373513+872856236
656+872641122+870158459+867427709+867311365+869425993+872364495+876156689
646+880003413+881106318+877961041+872186936+866304825+861612295+858190615
636+855574557+853428909+852177363+852359428+852709287+850509936+845775795
626+841859370+840474654+839323905+835705062+830439373+827280651+829433584
616+835417319+839710943+839617657+837995146+837046740+834663446+830729971
606+829450409+831523351+831866901+828081992+824510919
##END=
