##TITLE=<SNM>
##JCAMP-DX=4.24
##DATA TYPE=INFRARED SPECTRUM
##DATE=2/5/2025
##SAMPLING PROCEDURE=Instrument type and / or accessory
##ORIGIN=Admin
##XUNITS=1/CM
##YUNITS=ABSORBANCE
##RESOLUTION=4
##FIRSTX=4497.3318
##LASTX=599.83466
##DELTAX=-1.4281778
##MAXY=1.8069066
##MINY=0.24585091
##XFACTOR=1
##YFACTOR=1.6828129e-09
##NPOINTS=2730
##FIRSTY=0.26890838
##XYDATA=(X++(Y..Y))
4497+159796958+159804237+159706072+159071989+158205589+157667795+157551724
4487+157477520+157300263+157474403+158412511+159687919+160270643+159646584
4477+158436667+157709271+157944564+158873055+159904457+160378584+159816315
4467+158405179+157125307+157056274+158391064+160154396+161103837+160956137
4457+160402316+159967947+159401994+158289888+156833166+155722406+155384626
4447+155637345+156079383+156429099+156415621+155912680+155319950+155204624
4437+155604742+156191238+156778106+157243485+157380417+157183307+156946739
4427+156873686+156815031+156520623+156001017+155444078+154872405+154259751
4417+153936246+154274238+154987076+155487007+155854858+156549791+157266260
4407+157129221+156111721+155262340+155279448+155665717+155536045+154721393
4397+153839178+153559186+153999877+154680183+154961733+154615559+154012540
4387+153772094+154127370+154601781+154533758+153958543+153519729+153371161
4377+152904117+151830016+150727987+150214030+150293884+150685395+151115602
4367+151284943+151093465+150829765+150807858+151032702+151408770+151937480
4357+152516219+152817994+152577849+151907621+151218585+150843349+150770172
4347+150717999+150458320+150135363+150172076+150651675+151033535+150834264
4337+150214863+149538028+148844211+148069574+147302181+146637611+146160056
4327+146095212+146656622+147718459+148780632+149281785+149037460+148428853
4317+148034473+148074843+148301697+148398260+148379044+148489120+148804434
4307+149147350+149367430+149487378+149655144+150103698+150922264+151791090
4297+152213275+151995656+151376946+150804954+150614715+150711269+150663966
4287+150324256+150019913+149988956+150051773+149969298+149780157+149650805
4277+149614659+149620964+149705882+149876463+149949693+149817649+149696496
4267+149759419+149817773+149673686+149444999+149367872+149620946+150286694
4257+151190816+151991530+152489619+152574254+152152512+151535732+151364992
4247+151691685+151723208+150940540+149922633+149624948+150217554+150990872
4237+151240775+150995512+150815137+151040548+151492432+151929298+152422994
4227+153008127+153374207+153308574+153074946+153007100+153087290+153160166
4217+153248131+153521978+154091898+154782829+155155337+154933362+154215388
4207+153289979+152656711+152891154+153849344+154518155+154309782+153804538
4197+153719159+154015586+154361335+154586444+154498869+153973702+153292476
4187+152960930+153259660+154083202+154961592+155318268+155034060+154628842
4177+154619934+154891549+154957837+154667272+154376742+154522671+155173330
4167+155932409+156246227+155944593+155494817+155538259+156174254+156903067
4157+157225067+156995778+156306529+155493613+155135414+155493754+156095693
4147+156330667+156212773+156138817+156211020+156186704+155903258+155497119
4137+155230374+155179741+155191501+155162580+155169239+155268060+155396935
4127+155537055+155745606+155945337+155916559+155634388+155375541+155322536
4117+155332949+155282724+155332931+155675439+156217448+156591108+156414116
4107+155675581+154906018+154799122+155628260+156979219+157957952+157903654
4097+157053352+156200235+155724124+155417389+155110301+154912181+154940960
4087+155185887+155561246+155931984+156112110+155932604+155471635+155163785
4077+155378658+155922421+156239515+156041253+155555579+155223910+155213496
4067+155320517+155434922+155754779+156276440+156587743+156480758+156247006
4057+156183835+156254781+156254869+156053562+155792306+155841593+156334440
4047+156937813+157293551+157353817+157150030+156649480+155974629+155415760
4037+155123867+155035070+155131907+155535036+156264114+157083264+157643479
4027+157684991+157205232+156599432+156394352+156617177+156803183+156803484
4017+157034420+157666679+158193688+158139974+157665386+157169706+156793036
4007+156597484+156817209+157609512+158769665+159826888+160281818+159856021
3997+158856903+158169585+158398732+159094038+159364591+159136240+159125101
3987+159697022+160460900+160900263+160823402+160274681+159509829+159034550
3977+159236903+159918129+160447086+160452080+160159815+159927161+159716078
3967+159374685+159227605+159851097+161238237+162642325+163360228+163315068
3957+162840002+162348873+162282302+163015772+164620920+166563157+167747607
3947+167564895+166841307+166720597+166937401+166431201+165324124+164702155
3937+164942778+165789698+167333003+169515809+171150391+171022030+169879357
3927+169640008+170817340+171985037+172069673+172080936+173392526+175362549
3917+175777295+173563833+170119236+167523915+166566291+166924260+168604922
3907+172382198+178438462+185059068+189632737+191058183+189579182+185368600
3897+179728605+175752661+175794828+178929874+181103667+179701244+177672300
3887+178815823+182276606+184566540+185298735+186252746+186321159+183688646
3878+180630549+180447801+183297277+187602482+192309435+195690984+195431341
3868+192753031+191169578+191157181+190123830+186869490+183475296+182598500
3858+185822804+193977647+205656162+212834113+207560145+196039390+186919644
3848+182852140+183441594+187283599+192847761+199122210+205352810+209785012
3838+209936573+205951756+201130841+197682507+195214413+192881728+191060556
3828+190410924+191045626+193684001+199443838+206572769+209983504+208549380
3818+206143430+203685572+199299379+193999023+190936056+191753346+196096469
3808+201515356+205092192+207603445+211653948+215809930+216177604+213890132
3798+212600946+211914353+209881425+207370650+206545868+207999171+211223281
3788+215850079+221425504+227144732+233019524+240316309+249541339+258963816
3778+266868951+274257030+283319749+295332572+310267816+325989785+338549947
3768+345797304+348575373+348363422+347336889+348102591+351130122+354323876
3758+356350270+359117324+365922643+378606880+395024561+408320850+415043960
3748+420860150+431121400+443714999+451165735+453224431+457449252+468242434
3738+485042187+503501209+517727688+525204954+528528061+531949918+538213387
3728+547680989+558564491+568324907+575516867+579309072+578911628+575125126
3718+570297853+566699677+566170047+569098083+572088351+569959560+562453640
3708+553798636+547742584+545691609+546212348+546330792+545294802+545470307
3698+548573989+553744479+559364444+565397898+572879662+580396066+582833505
3688+578367228+572396892+569546212+570024661+572344825+575703564+580913405
3678+588564333+594769679+593792663+589036654+587134867+586225786+580492230
3668+571313299+564422406+561077409+558777222+555829280+553699071+555004037
3658+559628427+563795619+565237483+566889030+572206157+580168565+583666150
3648+577112062+565550309+556388272+552242934+552098988+553358086+553974104
3638+553989477+554590867+556430918+559909269+565915096+574052654+579650589
3628+577662979+571605652+568301707+570216954+575641297+580637770+582485294
3618+582765995+584416303+587340832+589850775+592107148+595448744+598835430
3608+599318696+596522527+593242065+591768147+592367837+594209871+596511405
3598+599077063+601856726+604367483+606203496+608031080+610936483+614575781
3588+616905119+616509198+614421989+612519528+611678028+611700697+612111848
3578+612757194+613667479+614609288+615472677+617217095+621134650+626202494
3568+628296149+624927032+619377835+615585737+613413520+611310302+609371005
3558+608305653+607798443+607043721+605453804+602967274+601008567+601724044
3548+604888790+607091467+605398904+601080823+597879524+597685212+599047098
3538+599227100+597297792+594606253+592544971+591619739+592305215+594589039
3528+596887491+597304522+595731535+593390615+591147913+589098249+587008100
3518+584775670+582653962+581007055+580021149+579779658+580167326+580745374
3508+581367910+582430641+583533822+582778179+579099671+574552780+572207255
3498+572641783+573710253+573458631+572228117+571203108+570465423+569651338
3488+568991186+568642303+568177101+567278788+566152053+565052840+563739975
3478+561691586+558798969+555724650+553537805+552938646+553815566+555193851
3468+555809019+555409663+554939502+554941840+554607975+553013346+550735792
3458+549304732+549366150+549930881+549600274+548339263+547163579+546461030
3448+545856841+545459185+545803181+546490039+546303306+544948469+543372401
3438+542002900+540092400+537285286+534608269+533435382+534065781+535274796
3428+535136624+532605571+528338070+524180263+522101626+522956443+525606825
3418+527692263+527658331+525671430+522933456+520873095+520468850+521580496
3408+523093765+523973767+524078786+523814059+523054202+521095141+518040160
3398+515300557+514092215+514210092+514641291+514562305+513532408+511540548
3388+509237704+507721283+507750150+509105766+510690618+511294275+510386859
3378+508468319+506874824+506764704+507913647+508868667+508568308+507454467
3368+506715258+506841636+507451562+508255942+509280739+510027988+509545962
3358+507898841+506461654+506052769+505905140+505204540+504510527+504697047
3348+505323691+505062188+503530784+501872542+501326300+501824336+502345819
3338+502316705+502071565+501987798+501935837+501693956+501163830+500214548
3328+499091922+498664903+499317829+499958854+499143777+496944535+494734455
3318+493437742+492917746+492769338+492871311+493222461+493709694+494035519
3308+493729316+492437278+490389810+488452957+487577844+488101276+489485830
3298+490948449+492298646+493678348+494731941+494868908+494359361+494291922
3288+495221157+496548366+497399784+497512348+497122767+496621048+496463041
3278+496776894+497027701+496656786+495835900+495015404+494219879+493278849
3268+492156401+490981637+490286881+490739225+492096789+493164054+493249805
3258+492824911+492426546+491788780+490431464+488563467+486998414+486340529
3248+486448276+486708398+486567392+485748596+484428648+483276765+482906523
3238+483235572+483550524+483133811+481793355+479923622+478091187+476567964
3228+475405173+474823972+475091461+475978794+476745452+476842360+476397738
3218+475825462+475179408+474196229+472870436+471547973+470334000+468893624
3208+467111980+465427386+464162515+463113668+462156807+461681050+462026781
3198+462913158+463634798+463552057+462498252+460914781+459450497+458440860
3188+457766010+456933223+455421654+453445273+452091817+452053883+452555071
3178+452172963+450499243+448403675+446810605+445785171+444770186+443330589
3168+441641426+440251772+439365395+438599587+437577765+436426485+435472492
3158+434762895+434158706+433629112+433203686+432853811+432551965+432310190
3148+432111344+431835425+431282914+430358532+429270086+428398550+427886169
3138+427464711+426732976+425539015+424118652+422903758+422133416+421604388
3128+420889265+419896878+419057928+418732634+418625277+418129933+417123661
3118+416045238+415218863+414380904+413064498+411461369+410526184+410847369
3108+411753829+412100658+411652281+410990394+410386595+409616607+408730230
3098+408187743+408151509+408213104+407889545+407007702+405657222+404148026
3088+402936603+402272909+401994723+401856020+401898134+402256900+402632773
3078+402300076+400984909+399468913+398722798+398642254+398290926+397205278
3068+395832590+394873992+394686516+395067561+395349926+394977559+394028632
3058+392968805+392056713+391196653+390234301+389264228+388576662+388221969
3048+387830724+387118470+386345472+385923872+385775144+385446379+384715920
3038+383727251+382666574+381717859+381174167+381115619+381149444+380888189
3028+380377367+379772435+379066946+378295258+377560761+376890231+376314804
3018+375807276+375125589+374162068+373249233+372696970+372356622+371913700
3008+371241116+370382862+369471161+368606036+367756035+366964406+366507492
2998+366541637+366748381+366586655+365812169+364653486+363536386+362662441
2988+361863197+360903820+359844383+358963709+358361185+357826702+357222868
2978+356807856+356866901+357106798+356860206+355969154+355016189+354509121
2968+354243898+353714481+352852296+352017809+351406395+350825973+350077591
2958+349270165+348622092+348155473+347756116+347356583+346856847+346097556
2948+345165842+344437897+344090253+343872423+343567282+343333088+343349806
2938+343407044+343105020+342381432+341604644+341079371+340700132+340242369
2928+339690531+339078125+338323191+337417616+336553731+335977560+335765963
2918+335658499+335219614+334370747+333543202+333148344+333151390+333172784
2908+332796592+331942553+331037156+330540962+330332021+329897387+329028862
2898+328007394+327227454+326845382+326685887+326429520+325927730+325271333
2888+324582810+323914937+323326333+322887555+322629204+322551139+322593713
2878+322549368+322167792+321481749+320864136+320577308+320439844+320152378
2868+319734533+319342969+318894450+318257994+317648634+317398749+317381251
2858+317057020+316175708+315120840+314393356+314006963+313630169+313133656
2848+312712020+312541439+312545194+312495535+312256559+311917699+311637388
2838+311367561+310919999+310309612+309773925+309444664+309235050+308993134
2828+308571392+307888254+307066836+306357806+305875001+305548821+305272902
2818+304942543+304472276+303911158+303416664+303035761+302647562+302187248
2808+301764267+301441771+301062072+300478604+299820826+299309225+298946598
2798+298596085+298200342+297730783+297103395+296341093+295672724+295303528
2788+295159547+294959160+294512217+293881269+293267854+292825055+292573346
2778+292382593+292016814+291334508+290490900+289810400+289386923+288936792
2768+288189774+287340464+286843845+286745184+286541397+285853972+284938728
2758+284282455+283933572+283534658+282885487+282136503+281456516+280842570
2748+280303270+279914274+279601979+279157551+278545039+277942037+277431091
2738+276897511+276269308+275632746+275052980+274476738+273881440+273356892
2728+272971597+272692048+272475793+272307851+272116124+271774236+271219281
2718+270528545+269905601+269523299+269268136+268791777+268012758+267349950
2708+267197628+267394578+267468198+267183176+266632613+265996671+265405234
2698+264908349+264483491+264137122+263924622+263758061+263368019+262644307
2688+261852926+261347948+261208926+261246896+261202639+260913349+260431252
2678+259965873+259642014+259392677+259093718+258683859+258176154+257661506
2668+257259440+257017046+256907882+256901011+256947057+256942169+256777875
2658+256406783+255862170+255257752+254748470+254431075+254267454+254129388
2648+253924060+253643342+253299824+252899689+252503945+252216674+252049617
2638+251876486+251591924+251263301+251043026+250944666+250805502+250516460
2628+250176396+249923907+249727629+249463611+249109751+248758458+248502427
2618+248365442+248302023+248255340+248235718+248289927+248378901+248366682
2608+248154181+247777972+247384141+247122318+247044590+247094089+247181806
2598+247245933+247270727+247289818+247326283+247311707+247153948+246896908
2588+246692395+246586083+246468277+246285352+246151271+246137121+246080892
2578+245796402+245393220+245161947+245172608+245207107+245098900+244945799
2568+244911778+244960462+244943231+244896672+245035977+245438026+245954214
2558+246437922+246819604+246995038+246882811+246551832+246125893+245639847
2548+245091551+244548266+244122062+243851863+243645260+243393355+243131781
2538+242975439+242908584+242786900+242532924+242202688+241885718+241633884
2528+241453988+241323555+241253566+241317764+241531787+241738974+241737274
2518+241501078+241186074+240971537+240967906+241174385+241431904+241515140
2508+241337422+241002423+240657701+240387254+240228450+240188408+240209660
2498+240190179+240099824+240034652+240089924+240226644+240325482+240307702
2488+240156832+239889165+239529638+239086503+238584925+238133838+237864348
2478+237775250+237708926+237506645+237165093+236821948+236576135+236369816
2468+236120922+235896698+235817216+235851679+235856744+235759925+235572555
2458+235287940+234889965+234420247+233972366+233661204+233581475+233702096
2448+233842942+233853267+233748053+233604001+233434182+233222001+232974523
2438+232721096+232519186+232419515+232378393+232268468+232019362+231705172
2428+231470605+231393054+231433007+231513233+231598240+231682804+231766235
2418+231862878+231994267+232163626+232346321+232488282+232527846+232456121
2408+232336934+232251662+232241337+232286532+232336757+232394668+232536241
2398+232792449+233071237+233295939+233610483+234396569+236075744+238923944
2388+243127584+248979442+256872923+267057242+279524587+294192998+311049280
2378+329971308+350457857+371600909+392288570+411556258+429087002+445375011
2368+460771509+474090218+482963053+486185321+484855029+480750175+474402867
2358+464925454+451450863+434393326+415347755+397163519+383696613+377914497
2348+380727986+391045872+405469993+418989214+428148169+432520760+433219731
2338+432003704+430616635+429764367+429048855+427830525+425713493+422440327
2328+418003414+412799488+407144032+400897741+393987368+386792964+379589846
2318+372182889+364432184+356669365+349324144+342392838+335509985+328430305
2308+321195416+313932156+306798533+300064655+293940969+288337563+283002000
2298+277867461+273101092+268838868+265014431+261469615+258137476+255055647
2288+252262507+249759311+247557077+245697120+244196159+242988650+241967148
2278+241085110+240366835+239806974+239318944+238804279+238235245+237650024
2268+237088038+236576950+236181100+235958257+235830800+235624551+235271931
2258+234843725+234388759+233907814+233461792+233133823+232891606+232628987
2248+232341078+232139948+232081877+232068772+231943741+231641576+231247815
2238+230929163+230798694+230863264+231078262+231349895+231513551+231482205
2228+231396330+231446289+231607980+231739476+231857352+232124771+232605256
2218+233185217+233734487+234227246+234689260+235142064+235648831+236307017
2208+237132755+238019362+238840620+239560258+240233976+240923667+241631706
2198+242335105+243056302+243861461+244780548+245739411+246596921+247275101
2188+247809743+248260777+248659213+249034909+249397659+249726106+250032787
2178+250343523+250587830+250634938+250460550+250186472+249927201+249652504
2168+249271105+248811074+248394150+248067350+247792405+247514591+247165336
2158+246737130+246350967+246106430+245960306+245855641+245854915+246115161
2148+246753441+247729535+249054248+251142980+254530285+259185986+264596568
2138+270449807+276776146+283622605+290965347+298712014+306659971+314676571
2128+322854898+331347999+340174292+349184804+358137156+366851806+375217043
2118+383011633+389899586+395556387+399738669+402430137+403833464+404097057
2108+403393304+402217053+401110118+400208333+399332972+398270914+396871271
2098+395048044+392685908+389665568+386047167+381914828+377120247+371539208
2088+365312114+358578591+351287952+343319911+334635367+325448218+316193737
2078+307235469+298844235+291329478+284836242+279259825+274530505+270626197
2068+267369785+264556119+262083065+259858091+257868109+256217890+254913685
2058+253872241+253078115+252438454+251783668+251191806+250932056+251114396
2048+251696377+252650440+254008518+255905772+258482764+261769035+265910460
2038+271223336+277718397+284959785+292495263+299982198+307039599+313407804
2028+319049304+323993392+328319583+332115507+335332603+337904034+339765337
2018+340542975+339734841+337377238+334048535+330242303+326080955+321471831
2008+316358544+310884260+305302265+299773753+294382475+289249442+284466939
1998+280066189+276230878+273292641+271189776+269173070+266537866+263477696
1988+260708836+258589005+257016816+255801302+254814988+254000974+253352759
1978+252828229+252364338+251950956+251585230+251328792+251452690+252134252
1968+252932894+253053746+252312856+251352239+250771977+250575345+250558875
1958+250746971+251193595+251707056+252041683+252183857+252321551+252656710
1948+253351820+254603268+256467333+258324669+258950286+257862283+256100987
1938+254955427+254715512+254971508+255355776+255737139+256111454+256493295
1928+256975711+257929722+259647894+261633413+263085335+264165387+265479792
1918+266504642+266184838+264933834+264299149+265049868+266641946+268020621
1908+268576089+268528415+268487540+268751682+269197828+269693881+270347957
1898+271320900+272418608+273105714+273339218+273915301+275166854+275973058
1888+275206560+273471156+272084565+271427637+271132202+270899105+270643534
1878+270387238+270222767+270289037+271030742+273276773+277231997+281103719
1868+281893648+278942146+274840232+272078438+271078807+271026226+271159776
1858+271177220+271089255+271044804+271179062+271625491+272591155+274315631
1848+277096109+280965866+284536928+285065389+281976123+278235790+276368253
1838+276290188+276665548+277006267+278374068+281856599+286422617+289225852
1828+289242234+288272196+287304194+285541730+283031575+281214547+280873102
1818+281429686+282089005+282899796+284489094+286875794+288908403+289380955
1808+288512855+287678899+288195565+290622042+294314151+297435985+298434642
1798+297892970+298092205+300823521+305575067+308919709+307594164+303272613
1788+300191315+300109425+301951601+304174857+306280131+308039814+309018601
1778+309735849+311941962+317018979+324155011+329671516+330186659+326782406
1768+322476828+319153013+318268159+320528216+324255107+326540560+327043803
1758+327454564+328132744+329026984+331719090+337579520+344877455+349515375
1748+349825262+348078435+346967781+347649574+349978841+352730133+354395070
1738+355628559+359291270+366135090+371226877+369430322+363805964+358795819
1728+355302344+353451667+353466898+354892609+357728165+363485240+373201416
1718+383969132+388817905+385032288+377659582+371757499+369334901+370817355
1708+375630957+381725510+386612748+390703612+396896702+405381621+411442951
1698+412241133+409645758+404294698+397653656+393761142+394424446+398306440
1688+404422493+413967132+426040522+432471385+427897114+419786652+415383529
1678+416304758+421176589+426734358+430521604+433870248+438279003+441040425
1668+439188084+436027411+436455210+440603170+444464479+445274951+445372957
1658+448877732+458394248+474627959+492649442+499238347+495038179+493978954
1648+499072725+503456261+500865561+495280201+493033604+495892359+503651104
1638+515643171+528421554+534392067+531395423+527548105+529030913+535895561
1628+545169381+554456803+563581543+572185543+578692274+583826211+591169059
1618+602459498+613908546+619650850+620762177+622137097+625319836+628908626
1608+631447365+633027790+634730554+637250591+640369362+643665869+647380824
1598+652210789+658404411+665320098+671960645+677905762+683388937+688580962
1588+693369273+697647896+701348541+704458103+707379020+711161910+717110640
1578+725510410+733715089+737658075+739016490+743693513+754009840+766802568
1568+777100761+784747934+792923073+803308681+817185250+837571597+864376834
1558+883931740+886285730+882229188+879433161+878142753+877066491+875365569
1548+873977827+875293950+880157564+886978964+893504326+894981821+884765802
1538+868356516+857472978+853771766+851751004+846513571+839732975+835827038
1528+835735017+837678281+840678255+844989534+848947114+849513403+847438307
1518+845399694+842799396+838619169+835051347+835113332+840047218+849492435
1508+859957383+861674315+850055607+836988944+831180546+831938314+835286109
1498+836974988+834831816+830790292+829008967+831625275+836923205+840052035
1488+837668363+832087077+827515604+825548609+825189312+825004280+825199867
1478+827375271+832412867+839274928+844935767+845433484+840337801+834449638
1468+831721121+831862658+831785514+829521915+827512770+829718990+837225334
1458+845785910+846394774+837316363+827274113+821712094+820751017+822364028
1448+823704945+822952207+820743296+818627113+817347401+817507286+819970156
1438+824036828+826000776+823144394+818569592+816155034+815529027+814064779
1428+811416948+809942144+810710751+812394884+814120884+816533670+818804566
1418+817652506+812268932+805942628+801610805+799894298+799743977+799960107
1408+800536527+801744762+802447417+801440011+799929434+799993827+801701337
1398+803580775+804813166+805308121+804764429+803480183+802713489+803005985
1388+803089859+801401546+798940517+798655460+801712601+806410734+810798875
1378+815119222+820638029+826830871+831197477+832431568+832159404+832313408
1368+833138048+834442767+836698998+839852056+842356933+842777648+841643653
1358+840416858+839669149+839051005+838367902+837993870+838111605+838206955
1348+837707467+836786343+836268366+836931918+838928524+841611066+843909731
1338+845224508+845948486+846804437+847990075+849210423+850268196+851465663
1328+853429116+856550650+860688870+865429577+870380111+875050900+878817568
1318+881455198+883566493+886118408+889619924+893733208+897531824+900399894
1308+902732703+905261454+907983454+910597283+913336213+916215335+918266275
1298+918730414+918349086+918407386+919120384+919766793+919781598+918993582
1288+917373841+915220255+913045347+910900546+908454890+905861675+903748114
1278+902345425+901452212+900970505+900780301+900732485+901206541+902736529
1268+904955570+906978244+908605777+910147878+911687570+913321833+915164009
1258+916670336+917179104+917242930+918085280+919810288+921317323+921997097
1248+922559065+923777856+924970789+924510476+921948501+918696765+916208180
1238+914513775+912867399+910854713+908655719+906839612+905875914+905527668
1228+904964000+903618974+901675143+899736484+898251622+897273118+896768034
1218+896978569+898021890+899360115+900447215+901539557+903073086+904862983
1208+906574106+908363436+910513055+912919891+915311992+917585509+919794278
1198+921916128+923673297+924872748+926053001+928181368+931379267+934608547
1188+936976067+938607213+939888059+940779430+941347490+942161079+943473165
1178+944760527+945886235+947737691+950748432+953794876+955574147+956628661
1168+958752848+962345817+965578923+966705551+966151092+965316747+964867555
1158+965207725+966976370+970122910+973528226+975935204+976741426+976521824
1148+976886930+978839969+981482134+983213163+984051829+985549018+988261951
1138+990632588+991110895+990347531+990053193+990770370+992077285+993928953
1128+996619855+1000092114+1003797080+1006803146+1008074499+1007470523
1120+1006549116+1007364264+1010302253+1013909461+1016851559+1019109137
1111+1020802338+1021146334+1019653679+1017259877+1015345587+1014712992
1103+1015786561+1018378500+1021132803+1022660311+1023132668+1023736644
1094+1025326915+1028173026+1032230134+1036580588+1039251017+1039563773
1085+1039662169+1041517592+1043764472+1043848346+1042238877+1041800878
1077+1044278482+1048762539+1052025043+1051527893+1048845846+1047917497
1068+1050073350+1053209406+1055859858+1058361902+1059722088+1058264498
1060+1055128584+1053033866+1052393124+1051978644+1052099637+1053653993
1051+1055565025+1056131810+1055942386+1056897016+1059419250+1062194592
1043+1063346297+1061353729+1056845658+1053869132+1056705750+1064771655
1034+1072123924+1073741823+1070794341+1067410277+1065732873+1065276668
1025+1065149937+1065791103+1067531483+1068566800+1067232612+1064686081
1017+1063028016+1062575424+1062097259+1061169618+1061328298+1063577304
1008+1066173565+1066598955+1064545111+1061670523+1059068241+1056407304
1000+1053429078+1050874117+1049661632+1050073846+1050908474+1049526895
991+1044617378+1038449825+1035046917+1036446985+1041012932+1045084988
983+1046363566+1045377979+1043800601+1042373259+1040455710+1037552857
974+1034393070+1031573170+1028485002+1023859054+1017313502+1010590286
965+1006078956+1004016186+1002690004+1001337327+1000785772+1001002045
957+1000498377+998530037+995658211+992373747+989100475+986846581+985785763
947+984046233+980280132+976190509+974221318+974154800+973697532+971839771
937+970008221+969789611+970710451+971007835+970014172+968729784+968077354
927+967529483+966047950+963583097+961230665+960351337+961443112+963562553
917+965275377+966199050+966546234+965787191+963433484+960551741+959110728
907+960217946+963222737+965965776+966396621+964683231+962952343+962617415
897+962857985+961959176+959474205+956524243+954242651+952652663+951324568
887+950719317+951743441+953573007+953570103+950543210+946714559+945089789
877+946066875+947701917+948221877+947267743+945593456+944528812+945166082
867+947393058+949846293+951091790+950874455+949902398+948457701+946143381
857+943407355+941827001+942002612+942640803+942422051+941815029+942351495
847+944371407+946240927+946345061+945137959+944418090+944947827+945639289
837+945414233+944884850+945460561+947288145+949050839+950286772+952152963
827+954634251+955602483+953911478+950752470+947685411+945700494+945696527
817+947928744+951398949+954819708+957206355+957479370+955304532+952248171
807+951047515+953424103+958070595+961734687+963046560+963234000+963042097
797+962108081+960995266+960738474+960928890+960484869+959468112+958441722
787+957176532+955453720+954334034+955185947+957395284+958236004+955954554
777+952153246+949840697+950438581+953011393+955142381+955167458+953839080
767+952501775+950982485+949446406+949458023+951311321+952972644+953086837
757+953057085+954663083+957217689+958301389+956957426+955112416+955347815
747+958308969+961880403+962770924+960915643+960500170+964096965+969097865
737+972281525+974008871+975005367+973268529+967546910+960812076+957387137
727+958698868+962806485+966349159+966531995+962669057+957209755+954590189
717+957218114+962285887+963919087+960041982+955199407+954722517+958539338
707+962284683+963540593+964285397+966616435+969067263+968695002+964928264
697+960367559+958236500+958559102+957852268+953458460+947013430+941867167
687+938623719+935549647+932558529+931493956+931729780+928850729+920557076
677+911332665+907446775+910125635+915397920+918573292+917388930+912724799
667+908023407+905112833+904099335+906142766+910677473+912009322+904995877
657+893585791+886620446+887497153+891801207+893249729+890147676+885315373
647+881997048+881795935+885095276+891479809+899127266+904699982+905076209
637+898877416+887713638+877069183+872660499+875275532+879910193+880875379
627+877801449+874180781+871893664+870142091+869108546+871160831+876953361
617+884171390+888435490+886808453+881402565+876507073+874312330+874763505
607+877549757+882075184+887684665+892586390+891832448+881491255
##END=
