##TITLE=<SNM>
##JCAMP-DX=4.24
##DATA TYPE=INFRARED SPECTRUM
##DATE=3/5/2025
##SAMPLING PROCEDURE=Instrument type and / or accessory
##ORIGIN=Admin
##XUNITS=1/CM
##YUNITS=ABSORBANCE
##RESOLUTION=4
##FIRSTX=4497.3318
##LASTX=599.83466
##DELTAX=-1.4281778
##MAXY=1.7115542
##MINY=0.17847766
##XFACTOR=1
##YFACTOR=1.594009e-09
##NPOINTS=2730
##FIRSTY=0.19851083
##XYDATA=(X++(Y..Y))
4497+124535571+124541236+124432142+124399629+124597082+124748206+124528233
4487+123934947+123137169+122498452+122604171+123614761+124829517+125383511
4477+125116003+124558727+124407865+125020548+126082067+126806106+126697424
4467+125987669+125282046+125060998+125420100+125977975+126164238+125832731
4457+125389868+125156462+124939798+124399909+123586361+123025290+123332220
4447+124552033+125861786+126243315+125447304+124069216+122898575+122430537
4437+122694933+123222051+123359573+122828388+121941372+121222465+120868906
4427+120699983+120576390+120624674+120921649+121134629+120703115+119429381
4417+117780401+116503115+116043163+116384570+117169578+117734566+117436844
4407+116382429+115461629+115329968+115799941+116429984+117075853+117623687
4397+117769071+117358739+116643993+115999956+115543566+115190128+114995956
4387+115112136+115305251+114971903+113958695+112956051+112645381+112802104
4377+112782379+112580364+112659675+112957425+112930904+112535250+112352557
4367+112730329+113403027+113939522+114155831+114100031+113857725+113427529
4357+112822399+112337348+112501531+113515430+114876729+115830379+116076359
4347+115783722+115142340+114310609+113587318+113183362+112994846+112910132
4337+113019385+113221886+113093844+112517404+111989799+111967784+112376171
4327+112995874+113756596+114451721+114756585+114709994+114689876+114866623
4317+115134955+115490215+115947690+116220967+116028477+115625643+115550764
4307+115926067+116386411+116566458+116417906+116255349+116513248+117119930
4297+117373229+116977369+116667915+117127922+117997579+118573897+118695779
4287+118487912+118007796+117356935+116643712+115939435+115443371+115372110
4277+115738747+116496094+117583303+118679186+119351585+119473365+119172679
4267+118599689+117981173+117567523+117381353+117331760+117555099+118228433
4257+119065745+119518311+119541457+119648205+120146643+120811283+121296746
4247+121469006+121420722+121426275+121684726+122052831+122271271+122264914
4237+122017934+121578698+121270263+121348517+121530069+121390425+121031013
4227+120924733+121343497+122151389+122940819+123358377+123422692+123396742
4217+123361667+123267699+123275028+123583061+124040769+124323170+124348186
4207+124264248+124230837+124315813+124432759+124411987+124257536+124191126
4197+124379605+124780476+125205026+125407695+125300490+125119807+125149647
4187+125357037+125478807+125305837+124827030+124335061+124318197+124954138
4177+125846856+126558472+127178764+128002278+128867606+129281218+129139976
4167+128903232+129005240+129370606+129495096+128952628+127964221+127340629
4157+127518105+127935989+127891239+127551225+127502241+127841544+128291334
4147+128660739+128793418+128598638+128355388+128465940+128837065+128981860
4137+128741582+128488161+128583326+128958676+129357864+129758445+130254285
4127+130654800+130586764+130003621+129345693+129145398+129547184+130239047
4117+130863350+131393534+131937929+132358590+132373687+131894048+131106712
4107+130416813+130294370+130921636+132027821+133142859+133845248+133907526
4097+133518078+133162182+133057519+132998700+132797265+132473834+132106028
4087+131869331+131993915+132373285+132576740+132490446+132512574+132894785
4077+133323149+133392672+133151460+132958718+133069485+133508543+134107709
4067+134536708+134512543+134091321+133610009+133321242+133237248+133277960
4057+133378117+133460512+133486407+133580655+133971505+134716858+135557254
4047+136132554+136295091+136137368+135818163+135490171+135304572+135322614
4037+135449937+135584850+135819715+136376253+137292725+138206673+138559475
4027+138157109+137481101+137223109+137521345+137924151+138113481+138282899
4017+138677328+139120836+139231529+138904518+138406108+138091540+138154921
4007+138570011+139135177+139626576+140010592+140423026+140833965+140926727
3997+140480649+139658434+138783001+138113238+137931424+138433966+139413754
3987+140443471+141333946+142007196+142189187+141771966+141228226+141173034
3977+141698667+142385116+142702984+142365588+141626283+141151225+141303115
3967+141786035+142210669+142605968+143131404+143643855+143772020+143328568
3957+142617841+142236199+142447404+142977607+143527881+144044165+144406241
3947+144413448+144108565+143705657+143420704+143554290+144229587+145021710
3937+145368445+145236653+145026019+144999863+145107891+145205888+145252405
3927+145362023+145672131+146109329+146423822+146515033+146525933+146619686
3917+146805782+146965936+146982276+146819561+146528887+146226911+146089455
3907+146310830+146945154+147728330+148225665+148291094+148114665+147846071
3897+147525277+147320813+147489810+148029876+148546057+148784690+149138165
3887+149868103+150363643+150082878+149745398+150218895+150982888+151044175
3878+150598816+150491620+150981869+151893593+153092615+154201455+154633409
3868+154524885+154492531+154448473+153850672+152846850+152131804+152051802
3858+152701214+154334855+156814528+158466463+157752464+155888951+154476387
3848+154078330+154653377+155729507+156695666+157430530+158252463+159115866
3838+159509912+159474184+159659222+160173936+160559719+160715778+161070917
3828+161690480+162084209+162288580+163046273+164391539+165295419+165567079
3818+165887723+165780031+164486236+162979564+162738585+164124909+166574425
3808+168926140+170124396+170595659+171462651+172456050+172442009+171811153
3798+171738518+172213538+172689363+173261176+174283367+175680871+177163669
3788+178690739+180425210+182390899+184522800+187031565+190190986+193698386
3778+196874689+199662070+202750145+206736342+211441773+216006775+220016062
3768+224298560+229654796+235583461+241244655+246863203+253345507+261084738
3758+269580502+278175974+286871528+296442114+307832257+320423293+331850755
3748+341633003+351832370+363450274+373648443+380225558+385565827+392539157
3738+402488477+415755147+431222091+445631862+455810662+461660971+465275856
3728+468178257+470510191+472176083+474034398+477162278+481337497+485480856
3718+489322118+493881548+500544816+509598576+519318752+527595561+534408364
3708+540613381+546760478+553527810+560906292+567346175+571556654+574505385
3698+577837991+581792367+585413235+588133345+590741688+594195634+598086030
3688+601478428+604433515+607255371+609487990+610360217+609377532+606963408
3678+604537168+603324965+603662024+605359251+607670769+609617893+610982772
3668+612778978+615722735+619199342+621689523+621972886+620572036+619599708
3658+620818717+623806298+626420400+627755775+629431427+633414520+638984120
3648+643449133+646181957+648234454+650302731+652800428+655637728+657945469
3638+659203666+659998789+661052970+662640150+665244117+669667624+675507725
3628+680227010+681849563+680896119+679197807+678585012+679983806+682995506
3618+686533998+689760633+692059175+693152170+693342276+693213719+693332180
3608+694395634+696708984+699530205+701973234+703875710+705166589+705196353
3598+703711181+701944366+701529081+702263029+702325550+701387436+701607755
3588+704497928+708172231+710124889+710830269+711741310+713093587+714860627
3578+717258036+719457637+719870081+718575314+717937840+720131981+724834664
3568+728529981+726678658+719301784+711659494+709035858+712787713+719558299
3558+724108493+724062500+721365424+719129701+718624373+719134862+719295875
3548+718170274+716156815+715238969+716809022+719726492+722458942+725571902
3538+729754973+733053402+732942495+729715636+725580578+722463429+721165970
3528+720798398+720010304+719107714+719109060+719204936+718126898+717261925
3518+718913196+722845211+726587569+728497748+729087659+729339014+729173812
3508+727929600+725598451+723110551+721674065+722155013+724054722+725210911
3498+724338609+722707007+722268537+723571830+725817574+727678170+728164877
3488+727323461+725795138+724113878+723384118+725315387+729775763+733291894
3478+732362680+727976416+724642314+725048028+727213302+727694549+726407933
3468+725915244+726906082+727281058+725875458+724279379+723975150+724171313
3458+723111822+720273401+716754653+714304370+714226742+715983162+717164479
3448+716494398+715938141+717813770+721690293+725789978+729251739+731411703
3438+731138062+728858665+726945568+727195353+729202231+730785297+729994288
3428+727705542+727228558+729770828+731768058+729379025+724354613+721790880
3418+723700686+727341410+729052584+727805531+725184512+723153628+722083816
3408+721407977+721731725+724462380+729138738+732711257+732057554+727382841
3398+722606794+721369013+723226544+724795625+724059060+721847718+719964162
3388+719910465+722356261+726180360+728682694+727885402+724573437+721914576
3378+722895617+727588876+732931127+735712786+735561270+734254462+732795914
3368+730405011+726602601+723097090+721930132+722914313+724382508+725471540
3358+726474941+727582819+728362012+728535590+728740354+729933412+732276976
3348+735058186+737184721+737196163+734086867+729309923+726131973+725938876
3338+727048549+727380672+726366203+724395671+722597595+722663556+725047953
3328+728063916+729966318+730897476+731908356+733270505+734086793+733326221
3318+731155487+729062531+728557577+729839631+731789970+733054748+732843329
3308+731031118+728520334+727283227+728702138+731750035+733823322+733822126
3298+733473399+734814907+737382455+738861419+737906778+735220995+732175192
3288+729792665+729189143+731274172+734765923+736277045+734235317+730983255
3278+729215618+728987147+729484697+730958352+733697682+736469768+737068653
3268+734722697+731574811+730411219+731356811+732611866+733379319+734060244
3258+734553980+734431181+734065778+734025543+734264334+734483382+734554129
3248+734429611+734139367+734251097+735669036+737859289+738023294+734395733
3238+729896543+729047649+732021283+734677675+733816068+730083731+726316844
3228+725207920+727291453+729964373+729931468+726916327+723323018+720756817
3218+719077276+718224269+718923367+721546705+725362278+729076516+731485442
3208+731708828+729574739+725870223+721931029+718865333+717042578+716509505
3198+717645053+720653238+724482422+727060066+727147715+725523366+723721776
3188+722216262+720523560+718645014+717286978+716855240+717034502+716969213
3178+715858644+713891777+712432630+712574050+713612526+713899480+713097775
3168+712394041+712392620+712140143+710927191+709676772+709548216+710446992
3158+711506408+712001266+711472006+709774517+707590322+706161689+705893357
3148+706066262+706132821+706361217+706615414+705672739+702733132+698996084
3138+696672638+696451123+696871344+696402063+695275041+694653570+694612289
3128+693831151+691439575+688606164+687426043+688244275+689302046+689384385
3118+689141630+689139611+688831494+688148848+687812985+687655935+686941282
3108+686136586+686158124+686475889+685934664+684740335+683760640+682890283
3098+681712032+680738769+680661515+680923415+680399615+679206931+678330142
3088+677888532+677188686+676205850+675822498+676524513+677425682+676977341
3078+674944064+672999333+672734068+673919124+675226754+675662008+674815358
3068+672656440+669842997+667628140+666777676+667079436+667817573+668218873
3058+667799026+666739610+665707640+665030828+664306228+663047583+661445595
3048+660251116+660015915+660460890+660702449+660299727+659607734+658788604
3038+657415911+655547312+654025196+653263876+652859135+652571135+652687726
3028+653218032+653420552+652457161+650319707+647911828+646171562+645342486
3018+644970801+644317845+643153281+642111963+641670053+641194565+639918120
3008+638315909+637518916+637876542+638623802+638541911+636916217+634154077
2998+631362098+629406299+628625684+628955116+629825847+630392425+630213612
2988+629394782+628158796+626784981+625696286+625013529+624347112+623511007
2978+622966154+623079829+623513923+623799455+623783077+623105032+621310994
2968+618885802+617065552+616506080+616963507+617873277+618467749+618059119
2958+616803129+615418731+614088702+612479835+610692678+609343280+608701842
2948+608254660+607306562+605874040+604646393+604046274+603745897+603179095
2938+602063851+600390967+598441375+596840173+596111535+596093811+596083004
2928+595566608+594550044+593318434+592247314+591642446+591386417+590859812
2918+589446397+587150547+584850247+583818390+584418546+585287370+584595115
2908+582180356+579617445+578309740+578237011+578331054+577615242+575994259
2898+574077573+572489944+571594047+571449860+571583241+571296437+570583018
2888+570064341+569804310+569134902+567886054+566776232+566290909+565948054
2878+564968621+563215903+561190441+559403882+558046258+557127476+556675882
2868+556659766+556741806+556333924+555060583+553100110+551021774+549404456
2858+548583793+548526657+548849395+549033855+548692607+547745407+546465747
2848+545249542+544221985+543179321+541941653+540588066+539249363+537885568
2838+536548772+535681405+535658035+536020073+535715583+534271019+532246567
2828+530454250+529228061+528427741+527725091+526891677+526025433+525434064
2818+525191758+524944479+524269088+523131371+521867416+520751125+519788145
2808+518869775+517863943+516656489+515289628+514018680+513125176+512668534
2798+512423872+512080755+511551309+510953919+510199854+508921203+507042097
2788+505059525+503511271+502492688+501856447+501516621+501316868+500901021
2778+500015632+498807766+497658831+496766150+495932176+494731601+492971816
2768+491062796+489692420+489042269+488636182+488017778+487202388+486387335
2758+485619060+484836726+483907287+482595619+480806517+478870387+477331182
2748+476408063+475800428+475032939+473917845+472620198+471324010+470008602
2738+468648959+467444159+466588646+465962315+465321774+464608617+463854289
2728+463019754+462056962+460900698+459447609+457812454+456415642+455565140
2718+455166345+454913943+454437557+453349909+451601603+449732705+448454541
2708+447987952+447863621+447326247+446057992+444526789+443407956+442771154
2698+442144823+441210374+440076883+439003781+438134470+437421911+436666574
2688+435697574+434585883+433612134+432988906+432648331+432302335+431713097
2678+430891051+429992425+429083702+428089537+426936302+425674179+424469042
2668+423478018+422701367+421974486+421171025+420376350+419736258+419173719
2658+418462170+417578949+416741385+416096469+415620046+415283136+415039708
2648+414681559+413966120+412890364+411688032+410608424+409801671+409284415
2638+408890069+408331120+407399139+406137128+404861880+403992757+403731081
2628+403835781+403778795+403220481+402344739+401642836+401329559+401122888
2618+400691149+400065304+399422931+398768144+398062016+397389280+396787852
2608+396162194+395497423+394951786+394619325+394363707+394012139+393594236
2598+393234142+392874497+392295804+391422605+390442387+389578012+388878353
2588+388291958+387850460+387663009+387719323+387791267+387596450+387051971
2578+386348199+385755522+385323708+384817894+384048834+383178364+382530607
2568+382207083+382081294+382056353+382085669+382028046+381748945+381337287
2558+381012380+380870997+380888348+381019858+381109340+380882178+380262502
2548+379588682+379330372+379609697+380073818+380260408+380032312+379564190
2538+379015336+378419518+377800254+377219168+376814614+376814801+377289055
2528+377932737+378334898+378370496+378188878+377967550+377758074+377479684
2518+377089153+376746671+376662836+376816371+376969757+376907610+376578515
2508+376065708+375485034+374926047+374462487+374105871+373778047+373497002
2498+373460021+373696344+373829201+373480587+372760137+372115633+371843674
2488+371871794+371895351+371689279+371324062+371015272+370811293+370625226
2478+370510580+370603464+370811368+370868654+370682550+370362578+369990332
2468+369604213+369295759+369150300+369188104+369352297+369453557+369300208
2458+368972946+368703230+368485379+368153068+367744513+367429067+367193417
2448+366893825+366511519+366178423+365995011+365878719+365651482+365310160
2438+365038500+364875467+364663337+364401998+364256203+364135200+363717035
2428+362988957+362365356+362193573+362459548+362976618+363565780+364034314
2418+364224307+364148960+363960276+363768936+363564546+363285558+362912152
2408+362516498+362255084+362274977+362581188+362991687+363268357+363339254
2398+363342171+363390183+363406674+363301263+363160965+363098406+362998829
2388+362538597+361427504+359574909+356983169+353503197+348819211+342794540
2378+335769009+328360613+320938343+313401521+305626898+298030378+291324089
2368+285767539+281156320+277483476+275049627+274061725+274672426+277226306
2358+282013347+288876312+297478084+307944361+320232776+332423801+340985919
2348+343243741+339445219+333012927+327959686+325329655+323492803+321039416
2338+317829870+314269466+310607690+306944101+303651430+301396413+300579901
2328+300993542+302047368+303165061+304184616+305598236+308118631+311798075
2318+315799771+319137313+321472912+323210449+325023183+327329615+330087156
2308+332976843+335701926+338073759+339957053+341321782+342316172+343172096
2298+344051465+344977239+345842473+346510386+346960858+347287373+347573840
2288+347898261+348360587+348916807+349293952+349263514+348911497+348517974
2278+348261384+348093789+347830318+347381117+346924961+346729209+346781596
2268+346801153+346659172+346566213+346748167+347104260+347321288+347272640
2258+347142737+347096258+347026744+346818877+346666352+346854700+347352212
2248+347851296+348127704+348192244+348159039+348095397+348018778+347989014
2238+348119403+348447600+348866289+349249978+349593020+349958274+350325286
2228+350547400+350493479+350269608+350233860+350642340+351302063+351769624
2218+351891675+351917775+352107357+352489438+352981005+353487343+353892532
2208+354122200+354214411+354286654+354460867+354778819+355176942+355612644
2198+356130910+356703433+357171704+357482701+357808468+358341205+359114528
2188+360021082+360875173+361517920+361970561+362433373+363066996+363806479
2178+364424957+364796718+365072977+365514288+366147873+366746684+367209271
2168+367761677+368632483+369728694+370851379+372089458+373771765+376097642
2158+378944813+382002282+385049244+388108172+391290720+394583353+397903395
2148+401187952+404269053+406931952+409276226+411709271+414433307+417232990
2138+419876332+422476299+425332333+428560986+432022411+435575673+439226642
2128+442945443+446547913+449907779+453060862+455897788+457984200+458962287
2118+458990406+458495623+457585517+456035655+453800195+451167060+448408248
2108+445619036+442928952+440553829+438550541+436714026+434799022+432724239
2098+430476626+427912369+424788490+420976058+416562348+411794938+407001503
2088+402494198+398455801+394910653+391805359+389080425+386661739+384433607
2078+382302922+380328426+378713351+377601996+376921819+376449360+375976265
2068+375416530+374803286+374181592+373523925+372813759+372162599+371731383
2058+371544718+371453367+371256755+370827073+370196479+369612140+369425400
2048+369775809+370407749+370934840+371266477+371670994+372491394+373910792
2038+375899123+378279930+380901846+383780054+387009343+390534860+394030835
2028+396988316+398955108+399737892+399396494+398135792+396243337+393995686
2018+391557705+389020820+386470624+383968140+381591933+379503127+377794981
2008+376304462+374756246+373066011+371377385+369851305+368498990+367197119
1998+365877037+364688690+363858118+363363148+362918023+362324373+361646215
1988+360985520+360337500+359728332+359250002+358903108+358599253+358319517
1978+358090111+357848067+357507792+357106678+356753090+356502147+356343601
1968+356210931+356006317+355748343+355627938+355741799+355856483+355633846
1958+355040831+354360467+353871705+353684964+353795086+354094604+354352353
1948+354358448+354147889+353958269+353902217+353808548+353499346+353081704
1938+352797817+352723480+352732604+352680740+352548407+352399022+352258836
1928+352138132+352144638+352401939+352850467+353309652+353703137+354018659
1918+354166510+354104176+353939797+353754740+353532177+353278242+353026812
1908+352800398+352686013+352779981+352991326+353092399+353007704+352901471
1898+352940771+353076133+353141496+353147479+353269866+353470030+353428449
1888+353042891+352653069+352559924+352685003+352788507+352755563+352636392
1878+352556820+352598326+352737203+352947875+353279102+353703249+353974872
1868+353853457+353472946+353204765+353206485+353340576+353444603+353521595
1858+353633399+353721198+353663463+353504170+353496130+353824515+354389933
1848+354977413+355483414+355820810+355852594+355654075+355504915+355538344
1838+355715587+355990985+356345246+356805814+357438353+358144219+358606096
1828+358710123+358707132+358748302+358741795+358710796+358868931+359319852
1818+359941771+360558754+361136026+361780867+362537064+363240387+363716698
1808+364061012+364513541+365169450+365974520+366861592+367762873+368597595
1798+369376041+370277435+371526807+373091700+374476996+375210682+375603831
1788+376342827+377678614+379407925+381283366+383218936+385143400+386894996
1778+388384543+389768716+391316932+393072006+394711536+395951410+396938583
1768+397936376+399097650+400588543+402454150+404423112+406206193+407927277
1758+409803878+411704522+413484986+415374263+417592373+419875435+421728703
1748+423085392+424297185+425706187+427513237+429671145+431789902+433552193
1738+435337218+437850209+441091913+443995024+445735702+446980811+448440332
1728+450087078+451879433+454033302+456618910+459484890+462609778+466113719
1718+469829864+473089293+475411654+477144779+478954072+481254858+484138637
1708+487539560+491285022+495062454+498759117+502675240+506964058+511139874
1698+514789161+518078018+521023570+523718066+526825828+530868451+535660765
1688+540763813+546273659+552458746+558484652+563183371+567162800+571534331
1678+576485340+581608880+586588606+591585646+596991353+602807073+608347207
1668+612921520+617010585+621687204+627250934+632962365+638078090+642873731
1658+648032757+653926479+660719126+667914944+673547065+677038665+680315407
1648+684348980+688605491+692204484+695243331+698389796+701958276+705864266
1638+709746473+712857788+714337500+714488567+714512050+714822785+715098446
1628+715028820+714545779+713516726+711657101+709185953+707057025+705774149
1618+704606069+702356287+699135635+696281359+694194385+692084079+689127496
1608+685403386+681745387+678863440+677029168+676274055+676321245+676525261
1598+676384364+675968181+675553045+675029320+673989797+672368365+670576497
1588+668931283+667464883+666323277+665667704+665285474+665013328+665212707
1578+666156131+667297961+667887423+668245198+669129765+670690395+672773929
1568+675447672+678870320+682884599+687243042+692228042+698781599+707442845
1558+716275799+723181972+729571374+737015630+745551460+754686176+763957076
1548+772724817+780461710+787109348+792808328+797647943+801265334+802800911
1538+802843838+803217842+804571316+806550598+808831416+811463578+814523665
1528+817795320+820851743+823496543+826039037+828878132+832138046+835780116
1518+839574001+842987601+845655136+847907835+850394165+853344092+856323634
1508+858442317+859207675+859594168+860662858+862293787+864350547+866840092
1498+869195098+870668678+871493940+872264757+872830363+873135339+874138741
1488+876538768+879247436+880885245+881523318+882153837+883541040+885773546
1478+888394416+890870575+893000400+894605902+895101957+894540764+894268095
1468+895097171+896230026+896286415+895359594+895227298+896955374+899824159
1458+901777938+900898008+898274521+896574490+896544351+897382999+897837996
1448+897106292+895746012+895184371+896020850+897484858+898519295+898931964
1438+899336929+900308322+901690140+902770421+903054981+902583980+901972531
1428+902068182+903111594+904485634+905454859+905992195+906555332+907139110
1418+907099549+906151563+904693763+903144874+901787436+900791214+900116347
1408+899591051+899046984+898515332+898312587+898478537+898467992+898038722
1398+897743991+897680498+896855834+894815303+892426344+890333164+888177013
1388+885402235+882188314+879753661+879366121+881055308+883797854+886879330
1378+890419167+894362026+897828274+900087479+901797757+904381084+908195535
1368+912051866+914726133+916434540+918127991+920014089+921509656+922176297
1358+922126789+921894504+922124396+923027659+924232010+925301896+926065684
1348+926486504+926731652+927266296+928433403+930116010+931941008+933560944
1338+934866854+936224591+938281800+941031076+943211382+943468646+942259209
1328+941646863+943001533+945654561+947878093+948638441+948277823+947792837
1318+947767934+948009641+948000368+947604078+947347188+947820508+948801100
1308+949512762+949684919+949605197+949390487+949058961+948940127+949181834
1298+949223191+948433901+946943719+945337394+943839957+942215833+940311711
1288+938372141+936745699+935399703+933745590+931034006+927339137+923938550
1278+921900487+920620827+918677517+915895708+913394421+911785479+910592869
1268+909243060+907533306+905243140+902132348+898455503+894994265+892328076
1258+890272288+888145977+885542682+882822049+880850320+880224587+880784883
1248+881853273+882723107+883044013+882907230+882468985+881704973+880797073
1238+880376253+880791987+881504771+881959693+882616762+884218898+886444899
1228+888182547+888937062+889248470+889903295+891274792+893173006+895028068
1218+896603133+898440247+900908254+903182865+904190679+904262772+904826209
1208+906768546+909795204+912953260+915422912+917159589+918852291+920984735
1198+923108951+924583503+925830034+928011312+931386621+934659398+936420754
1188+936955772+937917892+940324949+943501477+946087870+947653362+948826602
1178+950055557+951120208+951903814+952882611+954739020+957835378+961853321
1168+965729396+968318332+969329810+969459863+969664552+970444269+971776204
1158+973658638+976304412+979546228+982481198+984229840+984853479+985275720
1148+986343961+987840649+988634052+988156171+987261209+987165932+988091032
1138+989421323+990826548+992620586+994978807+997489667+999905100+1002743820
1128+1006250229+1009427280+1011094032+1011126489+1010044712+1008612563
1120+1008199521+1010010086+1013467659+1016454007+1017446789+1016552201
1111+1014699382+1013118185+1013344338+1016120462+1020006110+1022614640
1103+1023654911+1025126023+1028546053+1033570016+1038527569+1040767404
1094+1038362591+1033346705+1030859179+1033477805+1038503488+1042276283
1085+1044576097+1046519930+1047408087+1046364600+1044806662+1044950849
1077+1046903731+1048156768+1046277998+1042748331+1042715351+1049545167
1068+1060226303+1067381662+1067168373+1063212801+1060736791+1060487904
1060+1059894927+1057031303+1052496440+1049039764+1049461930+1053962541
1051+1059669672+1063560779+1064952693+1064461201+1063086188+1062633061
1043+1064214333+1066496273+1067120136+1064998985+1060850989+1057358641
1034+1057808702+1062679578+1068835648+1072859724+1073741823+1071915628
1025+1067691051+1061628837+1055678727+1052784141+1054340509+1058279179
1017+1061036234+1061304939+1060387990+1059623904+1058735822+1056842095
1008+1054184880+1052050791+1051028918+1050001285+1047543524+1044180929
1000+1042259531+1043282302+1046321374+1049252081+1050589326+1049757484
991+1046760965+1042589486+1039168334+1037702756+1037407053+1036451738
983+1033564557+1028992375+1024424382+1021491057+1020439868+1020449066
974+1020491844+1019582598+1017106514+1013354957+1009122528+1004939532
965+1001207420+998108146+994931917+990869924+986666661+983641575+981184112
955+977473838+972343530+967355016+963502050+960678361+958892775+958074618
945+957311503+955850487+954067144+952567763+951513806+951187590+951838825
935+952736255+952772078+952175362+952285147+953449712+954252538+953389285
925+951452183+949968282+949516950+949453457+949060233+948457160+948256958
915+948637618+949052380+948800950+947702496+946122795+944464419+942757358
905+940929293+939575968+939877879+942074264+944354185+944230863+941197699
895+937284456+934974920+934982548+935908995+935984080+935014108+933971369
885+933128757+931708798+929443012+927718825+928302678+930917115+932851152
875+932010933+929618983+928106664+927592137+926656118+925508679+925456404
865+926086026+925796754+924536762+923836468+924356080+925253061+925836764
855+926368566+927097803+927578003+927482651+927520867+928686927+930713249
845+932118550+931900923+930340591+928231481+926339325+925100947+924288399
835+923826820+924512307+926604740+928695677+929484593+929514956+929831225
825+930352183+930521050+930538176+931147157+932560908+934253311+935756357
815+937048806+938204172+939302851+940700747+942430319+943511049+942908575
805+940744347+938415965+937771087+939344132+941460721+941872342+940289350
795+938294139+937180504+937165472+938044429+939374645+940453655+941226492
785+942430020+943950042+944372358+943187825+942035076+942510340+944165724
776+945504241+945779004+945185579+944362636+943757768+942835584+940711816
766+937764656+935642458+935623238+937568866+940165356+941898891+942121379
756+940841868+938004569+934394208+932239329+933115744+935999934+938533005
746+939516140+939417348+939239507+939441728+939838616+940642714+942677636
736+945854613+948673216+949938667+949867321+948953887+946810151+942910669
726+938351500+935954764+937506420+941376063+944051601+943654040+940989346
716+938206789+937204061+937832860+937718139+935646571+933517793+932589476
706+931207135+927505236+921891961+916516356+913420223+913160716+914700706
696+916686494+918187520+918332979+916788277+914379575+912136524+910065031
686+907513488+904510239+901429287+897736213+893026800+888791454+887017609
676+887437681+887789922+885515685+877729433+863145074+848840639+848050526
666+860351599+874131113+882903939+885754401+883716338+879539100+876922195
656+877088518+877474114+875105123+870211512+865789800+864093059+863944236
646+862395496+858664730+854367760+850771160+847400937+843422630+839744064
636+838544051+840309520+842620701+842957686+841390400+839407005+838101319
626+838153968+839281290+839535412+836683753+831199110+825957521+822801409
616+820582962+817284234+813344666+810813091+809894945+808968872+807866081
606+808843232+813586000+819606484+822757884+822653782
##END=
