##TITLE=<SNM>
##JCAMP-DX=4.24
##DATA TYPE=INFRARED SPECTRUM
##DATE=2/5/2025
##SAMPLING PROCEDURE=Instrument type and / or accessory
##ORIGIN=Admin
##XUNITS=1/CM
##YUNITS=ABSORBANCE
##RESOLUTION=4
##FIRSTX=4497.3318
##LASTX=599.83466
##DELTAX=-1.4281778
##MAXY=1.7539392
##MINY=0.18763734
##XFACTOR=1
##YFACTOR=1.6334831e-09
##NPOINTS=2730
##FIRSTY=0.20580463
##XYDATA=(X++(Y..Y))
4497+125991281+125548474+126294634+127535927+128339202+128215686+127453087
4487+126804481+126792658+127375292+128117731+128535004+128413631+127910599
4477+127338657+126977714+127080906+127718073+128496407+128844369+128670160
4467+128300305+127860372+127270686+126746627+126750231+127423303+128377516
4457+129109865+129499991+129694743+129530477+128635277+127309566+126587142
4447+126986252+127775698+127861147+126958557+125662293+124751420+124610736
4437+125074159+125596558+125626014+125035626+124285069+124077609+124729399
4427+125755833+126195703+125660049+124860049+124602836+124676836+124485450
4417+124310511+124923777+126241460+127293200+127389496+126674296+125703854
4407+124990644+124782883+124866334+124691350+123986349+123111427+122592075
4397+122496117+122477727+122229864+121705540+121096023+120709693+120719700
4387+121039975+121480365+121766359+121467803+120412916+119130609+118338308
4377+118178613+118369525+118646177+118682274+118187981+117433830+117136898
4367+117622306+118395204+118577796+117729493+116326872+115325597+115230196
4357+115870765+116970242+118347659+119571966+120086145+119872236+119520288
4347+119405246+119158660+118313733+117234014+116779330+117113262+117524004
4337+117426286+116941288+116454293+116078763+115653316+115124860+114869472
4327+115409796+116663751+117793733+118059357+117545460+116897100+116642094
4317+116866531+117307540+117621640+117632861+117397377+117137975+117178359
4307+117718811+118525443+119056445+119057494+118864402+118952386+119309015
4297+119486581+119344592+119382504+120009874+120847914+121205299+120966258
4287+120540510+120186956+119799932+119248780+118659396+118306635+118333738
4277+118703329+119347173+120106880+120605981+120594560+120406311+120653426
4267+121470832+122343245+122619515+122045748+120896509+119780611+119275955
4257+119518399+120100130+120497170+120564775+120537646+120743381+121388740
4247+122318542+122958281+122874767+122302624+121781292+121567547+121707948
4237+122224692+122903447+123332069+123356945+123125402+122735834+122305059
4227+122189288+122542449+122840558+122499757+121807801+121560760+121904160
4217+122185520+121949982+121464027+121189326+121193577+121225679+121225204
4207+121567848+122603204+123966161+124813370+124923394+124943044+125297601
4197+125600188+125478241+125258740+125392592+125744440+125855750+125633357
4187+125488759+125851426+126670958+127424480+127598096+127172293+126701225
4177+126883179+127914951+129283627+130321985+130895642+131330367+131752903
4167+131870600+131462950+130742250+130071979+129603976+129321084+129167400
4157+129032563+128823780+128611057+128585432+128860881+129338662+129767430
4147+129952303+129864400+129486216+128758346+127821155+127055929+126770856
4137+127024530+127706414+128550247+129193189+129538961+129954346+130736367
4127+131471033+131369246+130230233+128645074+127355825+126849928+127300334
4117+128361981+129283326+129603100+129448769+129078676+128675150+128522178
4107+128750008+129052979+129250513+129790181+131037458+132445215+133080484
4097+132708750+131876356+131168363+130769435+130567266+130447034+130525312
4087+131012654+131806388+132534942+133058372+133500576+133792463+133686854
4077+133255533+132890001+132755502+132633153+132334269+131963994+131731028
4067+131735963+131982686+132381514+132697940+132677159+132286961+131772617
4057+131449778+131445390+131617255+131762190+131864980+131993386+132063008
4047+131961932+131747357+131450608+130920665+130145286+129495813+129368511
4037+129732172+130243889+130713068+131257196+131965372+132559025+132678071
4027+132507913+132694309+133467326+134271312+134506249+134223712+133856010
4017+133664058+133621064+133514160+133103016+132462374+132048476+132129811
4007+132403982+132490151+132499255+132816138+133546288+134346033+134687737
3997+134295788+133358332+132298327+131503828+131338650+132033351+133364033
3987+134724829+135602113+135794147+135347245+134582137+134076834+134348369
3977+135422613+136751617+137665236+137908547+137664488+137183267+136597350
3967+136070599+135973720+136654793+137809615+138439649+137961548+136990704
3957+136531742+136889063+137699682+138632066+139758262+141176008+142419362
3947+142917003+143019538+143422508+143740339+142973790+141228781+139636862
3937+139048354+139816253+141980524+144803783+146642350+146348466+144774929
3927+143829363+144234677+144997495+145252291+145750251+147544001+150052649
3917+151268390+149898746+146852282+144108570+142810227+143014713+144830201
3907+148958198+155566938+162844728+167680325+168524286+166012345+161034585
3897+154949576+150490128+150021113+153148318+156333432+156572912+155822418
3887+157595141+161350546+163660847+164054457+164518200+164004558+160619775
3878+157017880+157004562+160505363+165150796+169566329+172379563+171744704
3868+169303059+168730013+170039285+169773479+166440930+162658979+161532336
3858+164709349+173076417+185272799+192880817+187445536+175252018+165229102
3848+160331692+160585657+164716556+170625030+176692998+182426561+186835489
3838+187697950+184609424+180203870+176449213+173209475+170362051+168830833
3828+169042708+170507753+173813282+180311222+187887567+190711181+188208344
3818+185405474+182932503+177840952+171146535+166897283+167383631+172343092
3808+178877521+183414965+186630182+191400519+196028419+195938966+192262761
3798+189235937+187005858+184128841+181537645+180946318+182527071+185757194
3788+190479602+196029405+200882937+204842591+209845145+216741932+223342699
3778+227872078+232212224+239315942+250447420+265114583+280898483+294310561
3768+304150209+311522086+316910715+321263377+327074188+335307121+343521226
3758+349386989+354945695+364770656+381855272+404423024+424150887+434992039
3748+442660410+454465973+469727292+480410846+484611420+489978667+501626195
3738+518883040+536403995+547612958+550840071+549910178+549203490+551571463
3728+558440426+568085130+575085601+575318439+569637859+560893090+551745042
3718+544945408+542646802+545390176+551243022+555046447+552175689+544877575
3708+538782805+536649786+538432288+542554082+546284930+547560195+547088534
3698+547212525+549645010+555014337+563477663+574689218+586059281+592019516
3688+589951959+584142098+579033414+576011371+575374669+577310463+582028528
3678+589118471+595145115+595213752+591134687+588389853+586567504+580990627
3668+571609886+563062561+557969203+555659978+554402229+553789647+554616385
3658+556571590+557992593+559245197+563974867+575207475+590148527+597052119
3648+587781430+571933364+561328481+558040029+558277501+558696544+559383492
3638+561752377+565563537+569602464+574302796+581804484+592535401+601464696
3628+601409196+593899116+586581662+584880130+590647518+601334794+610318130
3618+613251760+612636112+611884834+611447765+611434009+612982104+615806375
3608+617524510+617201726+617048835+619454647+624429671+629776520+633489597
3598+635871035+638473086+641289403+642763935+643257343+645844434+651794451
3588+656322773+653351157+645286002+639481358+638778720+640767533+642620751
3578+643875034+644629560+644213290+643144664+644220734+649919631+659171200
3568+666519706+666238008+659425165+652135480+647724508+645605575+644596427
3558+644584751+645188138+645328694+644790696+644517173+645186532+646752945
3548+648614044+649347990+647423910+643307407+639600094+638103012+637836713
3538+636556449+634083424+632730401+633842376+635919711+636830557+636073769
3528+634452331+632962035+632237212+632215464+632346169+632360910+632340476
3518+632238161+631838895+630995481+629811185+628754674+628111440+627361075
3508+626159774+625399483+625845966+626670405+626422935+624745960+622356203
3498+620080366+618443529+617703672+618028062+619479022+621583579+623036728
3488+622420570+619884929+617456129+616653583+616677447+615828269+613948121
3478+612384555+612296981+613714298+615478847+616100406+615176716+613583885
3468+612137194+610873716+609836836+609455341+609548826+609284571+608631157
3458+608336250+608164678+606910906+604599856+602886210+602921130+604369682
3448+606352510+607939940+608088160+606246290+602969223+599733863+598253492
3438+599145510+601246235+603098796+604169866+603968847+602030025+599327810
3428+597344727+596066470+594752564+593565895+592848260+592100704+590917466
3418+589354155+587099190+584172894+581917893+581444079+582049035+582645416
3408+583492333+585050827+586396005+586338753+585542046+586083948+588640133
3398+591150341+591160302+588660822+585365802+582543575+580799204+580289558
3388+580191986+579515547+578278487+576635228+574272583+571687061+570294046
3378+570672257+572132121+573831318+575189814+575808855+575801156+575544162
3368+574951174+573810957+572866067+573544111+576258148+579492340+581005113
3358+579946230+577425112+575182443+574126443+573986981+574084517+574157678
3348+574155087+573840951+573148421+572320406+571526253+570918998+570841531
3338+571454661+572579443+573947719+574811895+573963263+571408648+569077091
3328+568729823+570090545+571619483+572256404+571901764+570903855+569744079
3318+569069356+569428191+570720788+572099755+572593528+571923293+570642519
3308+569418960+568484396+567908814+567978472+569093658+571220801+573637487
3298+575439657+576253039+576467268+576646102+576765896+576309744+575221998
3288+574248464+573903238+573784685+573468651+573400379+574208289+575608383
3278+576649897+576852303+576577758+576285223+575814183+574797408+573648288
3268+573388776+574231751+574961574+574370119+572736895+571236017+570523491
3258+570421248+570535714+570749396+571110311+571280789+570521593+568860892
3248+567687360+568013465+568822834+568554236+567450289+566754256+566568489
3238+566197612+565719529+565727593+566108797+566165173+565631663+564953254
3228+564600330+564468530+563972933+562589769+560426392+558357960+557276965
3218+557136664+557200629+557083718+556836649+556195897+554780513+553058292
3208+552252134+552901789+553966547+554020332+553174072+552798306+553314666
3198+553495069+552210390+549713975+546950495+544719467+543630553+543908200
3188+544992625+545799805+545584555+544603832+543867989+544008582+544509580
3178+544308998+542989254+541055467+539077054+537045111+534803173+532665703
3168+531192265+530551550+530453321+530528087+530530167+530400375+530249820
3158+530080072+529646323+528849105+527816385+526343313+524118998+521737488
3148+520434601+520492984+520773003+520115101+518546864+516913457+515942076
3138+515854283+516344334+516605524+515797542+513981944+512297781+511625685
3128+511436852+510697762+509450156+508550987+508321178+508340225+508083158
3118+507221062+505858880+504625870+504043465+504021681+504270866+504609158
3108+504576683+503570819+501744895+500100724+499373784+499199803+498616412
3098+497304586+496010748+495537519+495712448+495827353+495703654+495559631
3088+495197037+494214417+492787795+491554749+490950888+491023027+491478924
3078+491669581+490964425+489335397+487450433+486183671+485885225+486044537
3068+485912847+485413418+484972044+484626125+484064993+483395852+483055407
3058+482995820+482603852+481537015+480180817+479144448+478661695+478579521
3048+478634437+478593022+478291329+477653350+476708350+475664866+474898664
3038+474653674+474731360+474573836+473632047+471810976+469680768+468030247
3028+467125678+466566662+465844758+464834917+463797380+463036031+462545250
3018+462081945+461579670+461236087+461146907+461069769+460604567+459599250
3008+458348945+457262585+456436650+455796154+455419949+455306905+455024004
2998+454059701+452488326+450943698+449955860+449534773+449338826+449075957
2988+448702745+448324132+447976936+447565154+447052553+446570274+446132731
2978+445459175+444377304+443164290+442191413+441523221+441069184+440710823
2968+440113785+438931751+437381941+436162506+435658844+435534817+435208384
2958+434505673+433682620+432928934+432156857+431362704+430818868+430642588
2948+430531040+430252955+430002347+429907548+429654421+428976231+428103845
2938+427404346+426884154+426256940+425333615+424277505+423475981+423096201
2928+422879162+422460521+421694282+420611791+419363784+418238819+417398471
2918+416649966+415856688+415428997+415863694+416797674+417088384+416056540
2908+414245650+412711311+411963573+411809332+411814186+411607182+410968291
2898+409962536+408919125+408103115+407469369+406772715+405858914+404923365
2888+404468635+404745261+405229985+405057354+404038719+402786661+401799590
2878+400992519+400212269+399628696+399383998+399272743+398984258+398389738
2868+397532532+396593516+395843953+395444724+395305627+395177659+394803461
2858+394068019+393141702+392329925+391689830+391023936+390247992+389464238
2848+388735985+388052467+387424560+386879410+386459527+386209758+386061539
2838+385836327+385428157+384856626+384170007+383460436+382896822+382532039
2828+382138429+381458305+380570265+379795196+379310071+379029139+378733868
2818+378193608+377348662+376436064+375729778+375187547+374551283+373718451
2808+372852779+372169590+371693186+371262138+370751470+370140092+369359112
2798+368365764+367393689+366764504+366391803+365806332+364785799+363727062
2788+363178154+363083756+362810451+362005753+361047508+360423504+360072258
2778+359639532+359069168+358564484+358087679+357315565+356197825+355186853
2768+354673084+354491002+354214267+353665067+352930391+352119380+351282827
2758+350429196+349522839+348529819+347490239+346486419+345555139+344732889
2748+344154388+343918667+343887286+343817519+343594131+343151407+342418556
2738+341547921+340866338+340428868+339922177+339109634+338141026+337358330
2728+336904987+336579795+336099559+335440708+334810064+334348036+334003359
2718+333622264+333043581+332197941+331210833+330339104+329734403+329316236
2708+328935032+328553391+328149491+327612624+326925786+326260695+325721931
2698+325181890+324477062+323617630+322774691+322161926+321879025+321800062
2688+321677640+321375217+320932200+320430290+319884556+319263107+318544597
2678+317772702+317126769+316835511+316840364+316685102+316015049+315050017
2668+314306694+314007189+313944793+313774607+313304844+312580276+311755837
2658+310945154+310199349+309516379+308865994+308330587+308129348+308311977
2648+308564228+308527629+308185359+307761244+307366029+306919655+306357611
2638+305731856+305125878+304629040+304338767+304212277+304012954+303591613
2628+303084959+302670203+302287795+301778660+301185618+300742127+300538754
2618+300342807+299897364+299286277+298781174+298432282+298077478+297680292
2608+297387739+297263950+297183637+297031367+296851985+296730604+296644033
2598+296509679+296285070+295956666+295513613+294981070+294454092+294080478
2588+293954060+293976939+293898724+293552113+293002310+292461010+292094457
2578+291882417+291652590+291286347+290839937+290421988+290047042+289650732
2568+289177630+288661854+288263482+288135733+288214021+288267916+288214824
2558+288231207+288492416+288943880+289369765+289550058+289347251+288810949
2548+288212270+287824461+287663671+287527147+287229066+286728688+286110030
2538+285498962+284978278+284590999+284411964+284506618+284785122+284993950
2528+284925515+284623128+284351155+284341248+284550076+284704992+284621559
2518+284394285+284214138+284120816+284032056+283895988+283718923+283540819
2508+283425549+283398347+283400207+283354085+283220242+282977972+282629335
2498+282216896+281809621+281480378+281257428+281082444+280900782+280756832
2488+280686189+280620125+280490697+280255068+279803184+279104396+278416518
2478+278081601+278145001+278338832+278356749+278066987+277570441+277101900
2468+276817338+276680759+276576655+276465217+276375873+276299446+276173996
2458+275992863+275853638+275836269+275867413+275768581+275449336+275018763
2448+274684995+274558779+274574725+274576239+274451409+274204741+273907500
2438+273591320+273263810+273030315+273029531+273178863+273188697+272947101
2428+272680000+272593046+272581387+272463162+272297081+272286372+272500290
2418+272812602+273029056+273035515+272879669+272691111+272523534+272369184
2408+272281445+272339609+272526234+272738675+272868923+272856152+272753307
2398+272707330+272771697+272833328+272817200+272834240+273065181+273647240
2388+274703605+276307455+278381178+280788322+283562968+286936056+291121835
2378+296177390+302080372+308819032+316288318+324103850+331637210+338347117
2368+344036893+348662129+352004366+353784934+354013175+353014171+351169163
2358+348599915+345029949+340220514+334814880+330471925+328655451+329644348
2348+332993919+338228673+344669909+350933259+355361199+357055068+356217347
2338+353804091+350851596+347868816+344864324+341885666+339163455+336651387
2328+333912975+330640177+326916919+322977535+319033042+315284388+311849395
2318+308661800+305542385+302397482+299319172+296458704+293849154+291419386
2308+289111256+286919363+284877367+283032359+281380343+279858082+278445199
2298+277195951+276124206+275157276+274230868+273325952+272405327+271443049
2288+270534265+269857608+269495141+269362630+269310469+269202826+268921639
2278+268436003+267896436+267521581+267358073+267283106+267228883+267212882
2268+267171193+267007666+266802195+266726626+266753555+266667841+266366312
2258+265977391+265692063+265589565+265614250+265649845+265625871+265580953
2248+265601715+265703448+265814138+265860151+265816747+265707461+265612206
2238+265646433+265897917+266379485+266987816+267516546+267860074+268201669
2228+268800823+269616687+270371103+270950863+271492638+272082542+272637946
2218+273138470+273750304+274638928+275822877+277242712+278797521+280320986
2208+281712760+283050695+284444148+285911893+287487045+289227365+291051155
2198+292758689+294260625+295655137+297076322+298560268+300069429+301567825
2188+303009134+304311492+305437825+306439018+307338370+308063412+308571306
2178+308964333+309403043+309910719+310299330+310321260+309892438+309147764
2168+308304314+307478598+306631791+305690021+304630262+303413673+302009674
2158+300486684+298871066+297045287+294998275+292918604+290919501+288978107
2148+287062984+285129234+283420787+282851409+284344605+287749914+292089257
2138+296698457+301461222+306277772+311013681+315717406+320481631+325306026
2128+330202269+335250161+340553114+346195490+352160942+358302528+364439516
2118+370449959+376339222+382301463+388629618+395614873+403792854+414193105
2108+427949715+445709345+467635981+493547174+522468405+552417357+581181283
2098+606995707+628576022+645559234+658746245+669132485+677227999+683072198
2088+685878808+684364648+677935600+666695365+650815662+630632194+606697188
2078+579910872+551865858+524154393+497573074+472700768+450341223+430911550
2068+414231054+399894082+387347969+376159804+366485872+358623743+352289311
2058+346934215+342279094+338164634+334515449+331551424+329567428+328705551
2048+329058731+330606643+333281163+337484255+344110236+353932351+367533370
2038+385660229+408912265+437083021+468991594+502635927+535598603+565908726
2028+592546202+615184014+634012562+649603926+662542300+673353639+682356351
2018+689162772+693001664+693671899+691577049+687151993+680583774+671683086
2008+660140574+646080666+629996842+612240933+593047747+572879458+552310079
1998+531777882+511784486+492904816+475175216+457998939+441103667+425010794
1988+410284408+397084626+385503946+375588017+367050836+359464785+352607352
1978+346389248+340709178+335514964+330809706+326639016+323168483+320505312
1968+318292529+315821072+312790089+309627854+306867877+304607456+302712294
1958+301141886+299849946+298650342+297396205+296171059+295207486+294657793
1948+294541520+294959122+296026032+297199272+297168056+295306956+292690765
1938+290776573+289921483+289615611+289374326+289062817+288751928+288526898
1928+288523122+289120452+290576228+292318173+293459594+294118828+294902636
1918+295256163+294066703+291802123+290210843+290252495+291390323+292369203
1908+292380350+291679592+291076898+290961610+291106162+291258761+291560983
1898+292300804+293353319+294165352+294665894+295626055+297278764+298345437
1888+297665222+295982427+294717070+294226307+294134226+294202151+294344295
1878+294480747+294634440+294989171+296094741+298875444+303551438+308154964
1868+309361190+306383080+302029360+299056413+298003606+298016833+298181345
1858+298090833+297865804+297833785+298084284+298534361+299350316+301013535
1848+304092884+308659100+313021249+313882578+310419526+306009083+303716370
1838+303647040+304235594+304646190+305923315+309416690+314170552+317090571
1828+317000224+315831910+314661515+312694888+310082656+308318801+307997293
1818+308332739+308644212+309332765+311181860+313960301+316097114+316246318
1808+314915262+313836784+314430538+317134103+321112385+324365077+325278659
1798+324555733+324713294+327695929+332885071+336446645+334780617+329766915
1788+326041650+325488290+326972565+328937258+330890275+332494782+333223692
1778+333746656+336071535+341632686+349324191+354923546+354837431+350614161
1768+345694382+341975868+340868892+343091200+346836424+349004107+349327439
1758+349657886+350254851+350942345+353472732+359439680+367018798+371729493
1748+371679320+369258073+367345925+367218942+368767730+370686410+371473812
1738+372161526+376076243+384003323+390250838+388669647+382437349+376687913
1728+372788996+371119282+371778826+373908487+377414525+384230688+395696901
1718+408359160+414040908+409871788+401949962+395934337+393889258+396269783
1708+402511496+410220333+416274199+421037000+428182005+438458996+446461499
1698+448195434+445602979+439871679+432817131+428825713+430003405+435115774
1688+443058070+454953616+469832125+478544783+474532165+465961560+461274729
1678+462577944+468475453+475318290+480277806+484881696+491027807+495723942
1668+495181456+492804580+494441088+500707796+507005994+509411697+509976879
1658+513524624+523340536+540098317+557730746+562180396+556016479+554175265
1648+558581640+560890937+554590076+545081732+539613666+540011545+545975501
1638+556524300+567282402+569717770+562484826+554955954+553154405+556533131
1628+562020609+567669043+573501017+578495015+580376111+580511413+583560641
1618+591096811+598214412+598990248+595965249+594814668+596775968+599717552
1608+601536690+602130808+602640272+603764215+605286585+606811217+608452104
1598+610542940+612927224+614985585+616416914+617606027+619017506+620599025
1588+622017947+623212315+624395152+625640823+627044275+629595314+635127675
1578+644131846+652597143+654287619+651280828+651307976+656543679+662393642
1568+664103676+663536852+664937749+670396766+681973724+702969152+731255215
1558+748885309+747684811+743946264+746353681+753775677+763369806+773005972
1548+781861559+791077440+802050136+814304408+825987039+832798860+827826099
1538+814480140+804312618+800796364+800039941+797370019+793362181+791833790
1528+793925284+797890940+802534203+808336511+814257264+817194798+816899818
1518+815573798+812870087+808017449+803494017+802864650+808035474+819167993
1508+832770472+837337836+825546467+810140761+802291622+802903182+809002952
1498+815555845+817045703+813120622+809554378+810743199+815611163+819123695
1488+817653687+812892491+808224051+805072836+803278949+802617398+803690110
1478+807298172+813359408+820830518+827402094+829040828+824238764+817779867
1468+814904365+816327666+818683926+818664733+818164172+821937019+831831018
1458+843562545+846940067+838951685+828746797+822845238+822027221+824143673
1448+825574418+824354727+822158582+821203147+821576505+823030020+826671578
1438+832612108+836993596+835925774+832289543+830705543+830862082+829365364
1428+825558290+822593024+822399777+823697482+825158878+827173525+828833496
1418+826761780+820439280+813557472+808860497+806565029+805748326+805671698
1408+806274428+807296566+807522581+806516717+806242828+808592520+812608386
1398+815766826+817012060+816624689+814662952+811919395+810342838+810888207
1388+812034920+811245073+808603175+807295107+809718507+815180443+821403619
1378+827321890+833462017+839525151+843383237+844096675+843803739+844503896
1368+845906106+847506965+849924453+852934528+854517215+853344741+850474274
1358+847606653+845622293+844718234+844575926+844500174+843909558+842766714
1348+841541914+840738931+840627492+841568186+843997643+847536594+850565716
1338+851536842+850588194+849266478+849012951+850112884+851788545+853380354
1328+855258239+858094698+861660505+865057950+867786473+869914091+871500864
1318+872567373+873519963+875036969+877402497+880212902+882874358+885260101
1308+887625921+890008526+892109725+893789546+895221897+896413126+896978273
1298+896535657+895177891+893539303+892381935+891901006+891338560+889631080
1288+886715732+883761851+881748079+880275153+878158336+874901301+871316009
1278+868757818+867893825+868292580+869136358+870017720+870887114+871720384
1268+872637360+873939444+875712750+877696600+879612288+881326555+882719351
1258+883649537+883989179+883543791+882145521+880033739+877985450+876716206
1248+876086985+875259042+873725762+871865319+870393852+869655601+869609770
1238+870125875+871100285+872547888+874649014+877408700+880276028+882516325
1228+883855920+884537832+885007303+885660607+886718213+888245509+890187396
1218+892256120+893988340+895126806+895707861+895771207+895605107+896198058
1208+898434049+901759976+904588990+906257646+907678831+909848849+912773101
1198+916134349+919943685+923934957+927266283+929676693+932017116+934739728
1188+936952804+937869853+938242701+939461005+941773770+944157104+945821965
1178+947239209+949383174+952382959+955465866+957926412+959452540+959835459
1168+959338183+959125523+960159192+961838502+962957921+963664207+965424232
1158+969080897+973818302+978275031+981888639+984880104+987573525+990254320
1148+993219586+996097424+997660917+997192175+995428648+993664026+992820977
1138+993820638+997039942+1001090983+1003732516+1004172577+1003620421+1003628449
1128+1004562429+1005703449+1006586344+1007793264+1010066766+1013096764
1120+1015486447+1015838350+1014442270+1013618707+1014849490+1016560838
1111+1016730732+1016149239+1016912230+1019335338+1022154939+1024773265
1103+1027766408+1030821803+1032425434+1032458493+1033239948+1036466988
1094+1039844510+1039527637+1035816895+1033152739+1034317696+1037653620
1085+1039732269+1038981174+1036984334+1036867495+1040379297+1046286987
1077+1051110798+1052069956+1050076108+1048445985+1049292318+1051983914
1068+1053787945+1052387048+1048732645+1046463157+1048360746+1053944411
1060+1059994993+1063139275+1062509105+1060262970+1059411237+1060737623
1051+1062532969+1063637208+1064796108+1066402658+1067322043+1066784774
1043+1065475976+1063916424+1062012340+1061209356+1064006917+1069791273
1034+1073741823+1072133886+1066738214+1061695905+1058721297+1056860635
1025+1054827671+1052367344+1050152809+1049625684+1052044268+1056277755
1017+1058874479+1057977719+1055959642+1056565291+1059982586+1062235727
1008+1060334270+1056301181+1054061980+1053943608+1052884543+1049489287
1000+1045661925+1043559339+1043548392+1044627746+1045469992+1045387745
991+1044640882+1043514238+1041732174+1039310015+1037135764+1036077064
983+1035950008+1035798577+1035016174+1033985716+1033294682+1032591679
974+1031049423+1028526188+1025515822+1022359936+1019058165+1015668018
965+1012642034+1010467491+1008888818+1007083693+1004213737+999518149+993423415
955+988474883+986688368+986164089+983133216+977349955+972224669+970154412
945+970555064+971565015+971774245+970686864+968560122+965841086+963032870
935+961017201+960617643+961686634+963054398+963564883+963009443+961990443
925+960941157+959711541+958411793+957790307+958197235+959029556+959631484
915+959905153+959822250+959418970+959266810+959765472+960219691+959605284
905+957796583+955203435+952056890+949056814+947589141+948226536+950062750
895+952186792+954831974+958032012+960282672+960024984+957620778+954878680
885+953377073+953587762+954434022+953703068+950412391+946517524+944522581
875+944011585+942369640+938668823+934875177+932999116+932824624+932986856
865+933012252+933274464+933892666+934868682+936727300+939926171+943751124
855+946253925+945539611+941693712+937312807+935247951+936052394+938393547
845+941311815+944636063+947521052+948293457+946384849+943536859+942034449
835+942289290+942631195+941364214+939011238+938090540+940144523+943241588
825+943874531+941675905+939755401+940079791+941395813+942263675+943647787
815+946759229+950375683+952382448+952691877+952662831+952802512+952712165
805+952050833+950669494+948885387+947877553+948726366+950959584+952584233
795+951912685+949474178+947866898+949373176+953439980+957105768+958237812
785+957308648+955732895+954219027+953258118+953567985+955201027+957310181
776+959056996+959626448+958026685+954539841+951283463+949919056+950156455
766+950833185+950882008+949881763+948893852+949667717+952156871+954428037
756+956028020+958872725+963378934+966444619+964943449+959807070+954986470
746+953237684+954156046+955973870+958084119+961083612+964845950+967432384
736+966890299+964107479+962125235+962600836+964260442+964352031+961462443
726+957086501+953850412+952602259+952185405+951791613+952186135+953976227
716+956391745+958560158+960152624+960248591+957586332+953039839+949988896
706+950779619+954247270+957498174+958509730+956332560+950902734+943897519
696+938054343+934381841+931477367+928844810+928626823+931701338+934607564
686+933569663+929182409+923888980+918823099+915100534+914272884+916375689
676+919159311+919428967+915638532+909441993+903866429+900912840+900677630
666+901927607+902852538+902023720+899849834+898410550+898855063+900021772
656+899518803+895337349+887383851+878252186+871796209+870464568+873384223
646+876861725+877130724+873478219+868717461+866269832+867216583+869835055
636+871833282+871675210+868155088+862502021+859286730+861030189+864766035
626+865725923+862290091+856693728+853447859+856756344+866430458+876541860
616+880630120+877661644+870805524+863498908+856802174+850439025+846744630
606+848376723+852403171+851992156+844971980+837234718
##END=
