##TITLE=<SNM>
##JCAMP-DX=4.24
##DATA TYPE=INFRARED SPECTRUM
##DATE=3/5/2025
##SAMPLING PROCEDURE=Instrument type and / or accessory
##ORIGIN=Admin
##XUNITS=1/CM
##YUNITS=ABSORBANCE
##RESOLUTION=4
##FIRSTX=4497.3318
##LASTX=599.83466
##DELTAX=-1.4281778
##MAXY=1.7602415
##MINY=0.19660892
##XFACTOR=1
##YFACTOR=1.6393527e-09
##NPOINTS=2730
##FIRSTY=0.21853043
##XYDATA=(X++(Y..Y))
4497+133302881+133556155+134083910+134490909+134450723+133733349+132604058
4487+131768655+131683839+132349475+133572289+134825245+135238251+134479765
4477+133402431+133207676+134080610+135066411+135267984+134757717+134144247
4467+133624600+132895228+131863915+130963838+130641400+130874850+131349558
4457+131895347+132524615+133068222+133103063+132446771+131423920+130479795
4447+129918754+130005669+130648690+131107991+130833910+130343632+130454653
4437+131051735+131378827+131203505+131003342+131120580+131225329+130805742
4427+129957131+129269761+129000762+128797381+128269580+127525746+127006808
4417+126929901+127087206+127182330+127112103+126929564+126824033+126991683
4407+127298723+127411807+127376203+127572467+128071526+128524191+128628377
4397+128366976+127910430+127416916+126862419+126198119+125654439+125587594
4387+126013445+126493715+126451412+125607609+124292817+123215619+122795386
4377+122961536+123507916+124157772+124443587+124160117+123798103+123934348
4367+124352672+124316114+123598621+122760227+122419265+122618556+122941648
4357+123050188+123020392+123122287+123347465+123390077+123126859+122839144
4347+122847879+123139503+123437907+123470921+123154301+122665868+122308817
4337+122215202+122258842+122257715+122118288+121829146+121480657+121253989
4327+121253889+121325052+121120461+120507273+119930825+120094739+121099737
4317+122248570+122933058+123249360+123476484+123479810+123028182+122348784
4307+121958228+122103345+122645879+123373698+124133403+124682309+124728703
4297+124244551+123619491+123382706+123701516+124208520+124445378+124327149
4287+124042188+123776279+123675347+123800421+123995512+124049378+124002148
4277+124058658+124299098+124691690+125239805+125910050+126508068+126816362
4267+126853957+126801627+126646530+126190602+125486290+124932938+124821517
4257+125052322+125378650+125668983+125869364+125983358+126161515+126515067
4247+126777394+126563742+126096770+126067674+126604991+127101341+127240467
4237+127357406+127624151+127723655+127469054+127081671+126801482+126696860
4227+126824488+127208362+127675689+127967913+128027786+127997709+127955142
4217+127887224+127958823+128447202+129270407+129933198+130066034+129667752
4207+128884978+128056082+127786192+128310229+128950687+128892831+128344834
4197+128263436+129019832+129970202+130380645+130235774+129939106+129683623
4187+129473742+129394726+129385227+129038566+128191691+127444276+127514248
4177+128317947+129223004+129990762+130936269+132234764+133431881+133751719
4167+132929023+131650117+130899201+130911727+131086439+130866333+130342496
4157+129996098+130154804+130738451+131394643+131835264+131978881+131821938
4147+131415540+130996252+130866624+131071860+131390625+131607813+131627747
4137+131444354+131173764+131017585+131070178+131236855+131439300+131786234
4127+132387215+133081138+133490473+133367717+132843753+132302454+132013421
4117+131931742+131874749+131821629+131934705+132278467+132649825+132762164
4107+132515580+132064914+131768164+132029219+132881666+133752683+134033099
4097+133837698+133803521+134222727+134743856+134828135+134287337+133484619
4087+133015129+133082365+133364263+133577725+133812965+134157918+134371998
4077+134204039+133779924+133392632+133098000+132789660+132522533+132479675
4067+132696409+133026164+133266058+133196086+132720252+132079967+131668287
4057+131535550+131331951+130874123+130511791+130673641+131237146+131706836
4047+131916389+132105727+132329051+132309381+131987770+131726797+131758602
4037+131820802+131638854+131493293+131906700+132859451+133664195+133682947
4027+133004431+132351611+132349448+132903726+133377643+133366017+133101054
4017+133042544+133277502+133518178+133563236+133482083+133382243+133319651
4007+133428064+133782951+134194604+134475302+134731430+135057022+135222681
3997+135014046+134613346+134391795+134526958+134956090+135506315+135994093
3987+136333265+136556080+136689634+136660911+136358780+135852640+135552536
3977+135928384+136933037+137900668+138182393+137735263+136993883+136378568
3967+136122003+136437741+137448548+138784456+139652500+139617241+138995654
3957+138319274+137862191+137785966+138300858+139482578+140949295+141873977
3947+141809695+141455962+141775427+142525888+142584743+141647045+140579155
3937+140307974+141288603+143435499+145741692+146544127+145282173+143556328
3927+143399632+144990995+146555299+146655448+146059403+146413882+147857302
3917+148714457+147505495+144777224+142315289+141293793+141838319+143868522
3907+147674545+153227537+159095769+163028793+164062105+162538714+158626542
3897+153273568+149220451+148911475+151925971+154731586+154472367+153159892
3887+154217838+157213663+159162196+159858209+161145069+161797434+159611971
3878+156763616+156865620+160052983+164174926+167853712+169895559+168926983
3868+166490899+165659159+166372534+165755764+162735615+159735372+159458537
3858+163110145+170943016+181088932+186182252+180211598+169240122+160610633
3848+156750600+157654475+162016804+167756780+173248045+177804165+180520229
3838+180172658+177335338+174189061+171773502+169677989+167800956+166888390
3828+167201602+168317285+170852664+176109816+182341106+184461379+181853264
3818+178934192+176653959+172720626+167744091+164972908+166324777+171313656
3808+176884600+179717393+180975730+183936524+187663994+188310996+186285292
3798+184642718+183299884+181167213+179448576+179898060+182501939+186226009
3788+190496169+195145495+199865992+204884613+211375831+219760680+228388896
3778+235746723+242944772+251997075+263664547+277278442+290401242+299614686
3768+303932403+305247459+305663329+307220788+311741004+319021387+326620417
3758+332882612+339559187+350070399+366473312+386971226+404881678+415903329
3748+424735935+436840820+450969826+460370864+464249713+469332252+479951558
3738+495944491+513932132+529164805+538566243+543007124+546307326+551635067
3728+559520640+568069212+574285232+576441627+574703284+569764325+563066117
3718+557267131+554719917+555783516+558406611+558629271+553828366+546735485
3708+542156986+542370811+546509043+551050057+551978402+548981904+545672177
3698+544943004+547277229+552414342+560496033+571326438+582398446+588651661
3688+587685866+583176666+579352646+577765336+578574498+581686144+587505891
3678+596113328+603527547+602987003+596299847+590920222+587511163+581302924
3668+572054956+564651608+561467718+561165905+561729246+562732417+564697929
3658+567089783+568703780+570513277+575292657+583787201+592109441+593056911
3648+585349605+575678204+568779915+564983672+562840075+561115112+560074018
3638+561171759+564891139+569823044+575139297+582414807+591873546+597492120
3628+593548080+585724935+581919639+584036476+590883682+600067294+607747331
3618+611472747+613176150+615095014+616549723+616795362+617214650+618602387
3608+619532296+619387661+619733795+621385423+623095516+624043531+625670872
3598+629039864+632322977+633203802+632823272+634853466+640845808+648235339
3588+652258932+650503173+645254221+639761738+635905104+635266937+638481114
3578+643203229+645310940+643224318+639270169+636842939+638115637+643156036
3568+648643283+649504256+645333046+640959901+639430147+639347031+638184427
3558+635468073+632221973+629320044+627441901+627363803+629511726+633389013
3548+637462563+639588453+638246819+633956207+629015867+625544416+624073273
3538+623982158+624546008+624935845+624201982+622486436+621344847+621839252
3528+623225316+624166205+624181112+623367842+621888336+620166609+618698592
3518+617421967+615771866+613427897+610952382+609706662+610318724+611384905
3508+611191040+610103262+609533304+609442808+608411531+605537053+601409619
3498+597621012+595807842+596668779+599039181+600573407+599952219+597825893
3488+595583873+593921301+592817998+592406564+593093924+594600772+595376374
3478+594093750+591819226+591042205+592191066+592716630+590549218+586858234
3468+584069780+582913284+582576276+582427424+582474436+582484143+581671237
3458+579881155+578470221+578921796+580777468+582084089+581968578+581376986
3448+580925630+579672166+576948576+574024904+572662582+573030022+573842347
3438+573797953+572522201+570697033+569448987+569217891+569171570+568152619
3428+566192524+564507265+563878987+563730171+563128727+562033677+561131510
3418+560929501+561186702+560964369+559522567+557369989+555879358+555966073
3408+557587705+559911350+561569886+561564977+560170296+558435516+557099081
3398+556268322+555764283+555391388+554896511+553940424+552491313+551140553
3388+550530892+550513985+550158325+548537711+545663196+542894412+541958795
3378+543174374+545055716+546015293+545871785+545393815+545258270+545743512
3368+546618374+547292391+547642052+548175651+548814618+548521095+547047842
3358+545955956+546753664+548729321+549649267+548374897+545852261+543630239
3348+542414660+542047983+542003734+541692214+540888615+540051966+539811199
3338+540213580+540837822+541244348+541080225+540321056+539371005+538382922
3328+537099571+535634936+534512581+533981126+534110854+535017311+536329931
3318+537358408+538118231+538990439+539456738+538705969+537230099+536191005
3308+535605994+534603768+533105355+532018596+531945224+532566448+533093503
3298+532929089+532250091+531919882+532437665+533390625+534277740+535151111
3288+536029827+536461440+536105017+535267895+534704263+534977680+535854506
3278+536493036+536385814+535775171+535114025+534570427+534180372+534126888
3268+534521343+535033964+535106172+534514617+533417022+532104984+531010334
3258+530491132+530352242+529981711+529217453+528574450+528514385+528836741
3248+528819834+528068592+527081927+526545892+526218010+525302135+523869568
3238+522938023+523068224+523655161+523728569+523001106+521966993+521273961
3228+521108783+520842420+519554524+517247350+515029763+513868395+513650389
3218+513570182+513035746+512168701+511612159+511802206+512453862+512873441
3208+512627984+511753158+510337243+508266509+505845678+504168090+503859987
3198+503844680+502570927+500158422+498148443+497632369+498433859+499464990
3188+499475425+498011226+495843778+494215710+493716688+493916697+493953019
3178+493366081+492236454+490722662+489053946+487860800+487689369+488043975
3168+487559024+485560207+483060659+481557047+481129906+480484285+478743724
3158+476384266+474440206+473502662+473413546+473565526+473494444+473111006
3148+472445243+471544167+470512926+469340178+467973384+466696795+465927883
3138+465586148+465093161+464029780+462667203+461792632+461824155+462189123
3128+461988023+461127305+460180744+459338060+458338742+457356986+456928390
3118+456821387+456057783+454446586+453003147+452443697+452358727+452092181
3108+451460777+450513634+449327070+448129780+447279569+447018696+447189327
3098+447192199+446480297+445153024+443891307+443323276+443496052+443891561
3088+443995947+443809645+443640359+443593238+443487180+443064911+442228189
3078+441269303+440736940+440823437+440989850+440439344+439028483+437498984
3068+436570457+436056345+435296813+434161405+433021562+432026898+431044851
3058+430081129+429285347+428668559+428083658+427486903+427055944+426873533
3048+426642074+426075024+425413988+425053492+424848574+424351588+423516757
3038+422618480+421745946+420901916+420254877+419824718+419304608+418531841
3028+417688939+416889921+416048000+415110092+414035367+412786811+411589048
3018+410767525+410282609+409903171+409623282+409398658+408849570+407708308
3008+406251599+405032966+404380110+404136762+403804844+403075344+402123984
2998+401225052+400441596+399907597+399875492+400216173+400385058+400054595
2988+399292627+398133331+396574709+395011650+394053418+393738480+393413470
2978+392632850+391740063+391241986+391029142+390621744+389878209+389075738
2968+388508361+388258541+388187314+388021337+387544130+386714134+385629229
2958+384560394+383940188+383955349+384171283+383920881+383026350+381830623
2948+380669982+379668374+378908260+378440288+378121932+377682465+377047679
2938+376480848+376214775+376045489+375579917+374769228+373847791+372937988
2928+372105739+371501931+371055992+370422479+369539582+368771978+368307860
2918+367899516+367338975+366792723+366518833+366490110+366432481+366141685
2908+365596923+364807904+363832293+362920309+362286068+361793409+361213706
2898+360628587+360222424+359940717+359687988+359534191+359411517+358977141
2888+358060539+356892118+355738094+354716053+354028292+353902673+354177763
2878+354316071+353973464+353327043+352763411+352421822+352140079+351779619
2868+351437339+351218133+350962640+350468781+349864391+349418525+349068755
2858+348541954+347867138+347341101+347040124+346747182+346302371+345736630
2848+345151510+344655033+344310026+344063660+343821329+343566273+343294456
2838+342866624+342061207+340887768+339800390+339343144+339494978+339617724
2828+339139172+338071682+336862139+335950809+335433717+335053914+334573289
2818+334025074+333490092+332906209+332295020+331879877+331741569+331581627
2808+331047919+330194545+329436540+329050738+328888397+328642467+328238013
2798+327821925+327470918+327069301+326462002+325641751+324763472+324008812
2788+323439508+322939286+322311590+321499920+320689885+320105493+319736598
2778+319353705+318750879+317928264+317089070+316455921+316029288+315573460
2768+314894862+314034835+313156119+312418584+311960356+311726497+311338514
2758+310479432+309390054+308614306+308294314+308036858+307423742+306433151
2748+305417617+304775924+304584386+304523467+304196567+303501135+302693646
2738+302113798+301813694+301494192+300865242+299972183+299106411+298526999
2728+298282160+298150596+297790264+297059964+296117003+295161188+294245605
2718+293383141+292676366+292211739+291881475+291453115+290845690+290222302
2708+289773382+289526652+289389526+289248800+289012850+288633830+288098885
2698+287426323+286715075+286109721+285657711+285303941+285004455+284693043
2688+284222144+283543037+282866348+282474475+282431935+282530867+282444515
2678+281973562+281231154+280519070+279995288+279592907+279221503+278844882
2668+278418340+277966312+277651028+277576620+277607797+277508738+277146370
2658+276499985+275647321+274777531+274038687+273389849+272763353+272261294
2648+271986932+271816319+271552683+271187533+270846307+270611430+270508171
2638+270502790+270449888+270198705+269770836+269306773+268875777+268455071
2628+268029839+267608951+267181573+266720818+266245411+265870335+265730136
2618+265806707+265904639+265831177+265550724+265187538+264944280+264934263
2608+265029287+264988874+264761378+264516921+264403918+264414807+264448057
2598+264400209+264244667+264050603+263879954+263701524+263465810+263219899
2588+263084717+263102188+263137728+263003510+262662448+262212219+261734030
2578+261301944+261046070+261032290+261147565+261218991+261184942+261088846
2568+260973225+260846933+260760164+260845534+261195358+261715614+262188731
2558+262466947+262562553+262585168+262592185+262478055+262086018+261444742
2548+260778616+260272885+259935786+259681184+259443744+259196469+258921416
2538+258600751+258216276+257748413+257231993+256827212+256723445+256915255
2528+257175128+257301602+257314873+257386317+257616031+257892539+257995816
2518+257847218+257579545+257342214+257165984+257054236+257046637+257109537
2508+257086486+256864698+256518818+256218914+256055464+255988418+255887378
2498+255620469+255198963+254799254+254549907+254380221+254184302+254022943
2488+254021379+254126110+254089715+253709822+253033278+252313432+251794866
2478+251546410+251467475+251409883+251264176+250969798+250533276+250055087
2468+249674285+249473676+249462514+249580152+249663686+249514361+249072349
2458+248473559+247913490+247498892+247221858+247030138+246881232+246717036
2448+246479705+246232921+246142206+246215396+246209851+245937307+245509165
2438+245149942+244940734+244877252+244987237+245202389+245262708+244976075
2428+244507321+244213307+244227232+244362814+244406517+244372630+244431677
2418+244650429+244886651+244985928+245010216+245136435+245340752+245372021
2408+245106130+244749033+244572112+244616542+244776520+244996672+245252691
2398+245482969+245636512+245696340+245653400+245549214+245509820+245646783
2388+245931707+246196635+246257299+246024422+245487096+244638049+243506513
2378+242244995+241067920+240092109+239316833+238745893+238410994+238253216
2368+238133214+238038118+238096255+238299264+238513489+238899127+239960927
2358+242057894+245137853+249022520+253762178+259419966+265414198+270539113
2348+273808955+275175367+275573713+275934336+276038158+275060274+272766371
2338+269550703+265961741+262468874+259321470+256560431+254196137+252211864
2328+250452069+248748612+247144050+245860953+245078424+244809152+244945552
2318+245284305+245521018+245427268+245106257+244909157+245040066+245383110
2308+245726845+245998589+246246991+246512937+246750377+246838547+246707874
2298+246461417+246292058+246293549+246427676+246607596+246722581+246689058
2288+246565366+246499139+246523044+246526408+246416768+246199252+245935107
2278+245696976+245521146+245367494+245150996+244834894+244507703+244328764
2268+244331909+244354578+244257210+244113484+244071272+244118538+244085942
2258+243838849+243416434+242981785+242670264+242519648+242490052+242489816
2248+242446640+242380867+242334074+242263756+242115140+241957853+241944818
2238+242138246+242430061+242665756+242808809+242919303+243048939+243269836
2228+243692651+244329836+245067680+245830539+246616104+247385199+248094592
2218+248820620+249715297+250845015+252144219+253527974+254975666+256458354
2208+257886158+259226938+260590659+262102143+263754771+265443030+267098930
2198+268753303+270442471+272103134+273644777+275095069+276582101+278175937
2188+279766246+281110662+282082438+282834189+283600920+284423680+285178558
2178+285768114+286181748+286418079+286419461+286134663+285610117+284922757
2168+284101524+283195176+282265522+281285038+280210385+279085467+277950223
2158+276773639+275516557+274188375+272884518+271719460+270698672+269829737
2148+269211367+268849035+268944531+270510680+274734264+281532659+289649127
2138+298127218+306780303+315485945+324006121+332346140+340737862+349367332
2128+358249895+367320250+376585306+386006232+395268561+403882360+411357044
2118+417258379+421515395+424609516+427195961+429873630+433410199+438685221
2108+446255600+456162096+468114601+481532432+495047887+506378550+513692128
2098+516931829+517088244+515001076+511253627+506146109+499685687+491906318
2088+482618720+471197123+457285541+441065622+422955889+403928863+385399006
2078+368292044+352964002+339674844+328404318+318843157+310873196+304444078
2068+299275660+295140809+291838353+288896103+286023533+283422817+281229936
2058+279381899+277994144+277155968+276778111+276988537+278039247+279917898
2048+282639379+286577875+292297054+300434119+311489475+325451014+342095784
2038+361480179+383366557+406536542+429228846+449688766+466313284+478250992
2028+485825334+490080641+492239727+493147239+492838626+491015386+487639013
2018+482744702+476356561+468746805+460262333+451015311+440951565+430018119
2008+418275076+405938587+393311266+380764005+368711950+357389613+346755472
1998+336818072+327924202+320485077+314402021+308966149+303529077+298118637
1988+293153155+288901284+285434759+282675974+280353348+278238511+276377439
1978+274860429+273587458+272413710+271293664+270287911+269607095+269440100
1968+269539232+269257379+268258498+266930753+265894023+265401781+265349388
1958+265532909+265708085+265649693+265353370+265055465+264991219+265218079
1948+265703376+266544297+267861353+269195933+269428120+268048163+266028859
1938+264630451+264075381+263849267+263631751+263518930+263636514+263911513
1928+264353470+265331282+267027776+268758684+269735423+270316398+271190405
1918+271771343+270985706+269276668+268180454+268460907+269606750+270552892
1908+270635027+270108063+269716516+269814503+270167327+270494628+270865504
1898+271510288+272369643+273054204+273534574+274439268+275953879+276978629
1888+276439957+274877008+273536065+272864466+272635425+272602720+272605629
1878+272584977+272654531+273013064+274066301+276505094+280432809+284135083
1868+284891234+282217601+278513364+275966477+274925747+274724229+274753898
1858+274778167+274821852+274982975+275302841+275868836+276887187+278594462
1848+281338412+285289525+289171647+290161747+287419433+283741265+281721705
1838+281473358+281797968+282143538+283391949+286574276+290818312+293471548
1828+293454732+292393041+291342803+289719935+287549033+286017952+285737100
1818+286178239+286737235+287572248+289192262+291450970+293279683+293752982
1808+293213019+292883937+293837170+296434577+299977455+302794868+303595413
1798+303036199+303251642+305900860+310516627+313868930+312779734+308699385
1788+305638569+305384495+307061574+309282687+311503546+313339185+314267239
1778+314845160+316909822+321878704+328893887+334226646+334561509+331125326
1768+327028688+324095273+323523678+325760353+329206208+331394671+332224339
1758+333129087+334153820+335171862+337829861+343540495+350607998+355061460
1748+355394505+353875768+353016431+353809013+356124114+358857084+360565032
1738+361882342+365557619+372100140+376454270+373915854+367961144+362956667
1728+359652357+358055776+358218008+359569641+362195172+367754809+377283429
1718+387782861+392436331+388922486+382301358+377216929+375302428+376927114
1708+381721656+387834308+392804571+396956874+403124283+411492734+417353130
1698+417849135+415016178+409865721+403857673+400548163+401456730+405294021
1688+411188776+420425581+432409355+439417521+435738244+428117871+423792756
1678+424601445+429266986+434685515+438673259+442561635+447548950+450647798
1668+448822994+445503558+445755924+449914626+454098451+455277671+455314067
1658+458169529+466569867+481326279+497835250+503948375+500408569+500032367
1648+505454059+509918574+507313622+501641528+499182701+501645272+508823487
1638+520233304+532816777+539131510+536336149+531963876+532432466+538232797
1628+546616520+555173491+563772965+572330082+579414492+585474242+593752233
1618+605773747+617374919+622326894+621876629+621317069+622540465+624400646
1608+625278635+624897451+624563969+625838412+629254453+634462611+641092392
1598+648921208+657419024+665579868+672415221+677767941+682437555+687256603
1588+692220140+696642951+700000454+702465134+704819647+708285353+714346994
1578+723651536+733697212+739659230+742133218+746837372+756413658+768351002
1568+778566109+786990117+796338361+808270906+824196284+846704177+874549956
1558+893402424+895145385+891695676+889680826+888115295+885819828+883334860
1548+882254863+884201432+889386539+896653251+904204433+906575453+896029482
1538+878513558+866851158+863159810+862078286+858300695+852769891+849736343
1528+850077896+851311618+851986653+853577416+856702587+858900758+858372904
1518+856084490+852876058+849422495+847537154+848941180+854329677+863384361
1508+872549504+872505728+860053182+846915494+840667988+840732342+844531894
1498+848643111+849017824+845089490+841650835+843056242+848653437+852772799
1488+850115418+842365064+835023308+831184416+830571773+831647335+833926658
1478+838098813+844245678+850912691+855338338+854520123+848945761+843432336
1468+841424029+842116153+842140004+839902129+838414842+841504018+849793063
1458+859181883+861376419+854008266+844161108+836859056+832974934+831828837
1448+831681148+830624929+828238566+825387830+823084146+822504226+824682327
1438+828771075+831111044+829073215+825265374+823094835+822519496+821553810
1428+819560484+817901948+817565776+818260153+819891275+822770371+825257157
1418+823876183+818535388+812919650+809251862+807182037+805681588+804478335
1408+803946699+803907141+803320458+801996785+801519832+803077800+805744634
1398+807802316+808588462+808038429+806127346+803925320+803141064+804015344
1388+804709067+803205128+800227937+798824784+800908353+805746016+811434690
1378+817121401+823196421+829288895+833440252+834645396+834706697+835724084
1368+837855574+840484740+843557191+846672545+848383438+847797555+845924285
1358+844339920+843495381+842754029+841696792+840981036+841434719+842775117
1348+843981933+844624245+845161335+846217262+848097295+850731116+853588033
1338+855788604+856804319+857142091+858077308+860596453+864495336+868429414
1328+871168966+873062088+875823164+880651446+886961999+893058180+897759644
1318+901329045+904901428+908981886+912815469+915566655+917619901+920140719
1308+923757022+928060068+932014726+934625713+935590090+935583836+935701711
1298+936325625+936799742+936479349+935600052+934504711+932759932+930025980
1288+927077803+924924353+923411106+921551143+919034470+916783434+915882539
1278+916229183+916570808+916051752+915230701+915039310+915427838+915855416
1268+916397887+917437380+918876965+920465692+922190037+923759858+924574147
1258+924705183+925099893+926388152+927994914+928716196+928064795+926671241
1248+925273760+923850319+922000173+919755244+917624627+915841018+913771629
1238+910432669+905737241+900797191+896822537+894261870+892958703+892409978
1228+891848674+890656837+888885517+887174406+886151492+886054051+886931094
1218+888797674+891114593+892656926+892826794+892549014+892984881+894271687
1208+896224800+898973950+902151405+904733087+906421656+908112042+910578613
1198+913658263+916783870+919673728+922407753+925147450+927688919+929204129
1188+929161299+928645370+929479583+931877944+934377165+936274432+938384906
1178+941026580+943338481+944970693+946539714+948432836+950560472+952848521
1168+955085742+956799979+957910518+958771199+959457142+959968635+960939556
1158+963197647+966702184+970461304+973517540+975849365+978101492+980419938
1148+982047278+982606038+983037106+984167787+985735209+987734643+990640135
1138+993685463+995455475+996345389+997903357+1000291975+1002595804+1004589567
1128+1006222143+1006697205+1005636187+1004157408+1003894026+1005607318
1120+1008782010+1011753965+1012786042+1012025928+1011703645+1013816082
1111+1018306303+1023421601+1026985912+1027822379+1026818444+1026036587
1103+1026721584+1028901067+1032322925+1036243987+1038891696+1039266917
1094+1038889296+1039852873+1041740469+1042286139+1041112191+1040566085
1085+1042480949+1046031080+1049013943+1049976066+1048496633+1044906362
1077+1041193126+1040615387+1044471512+1049937090+1052768556+1052508446
1068+1052548295+1055110561+1059029587+1062060953+1063430656+1064124161
1060+1065468849+1067308597+1068004065+1066860876+1065163146+1063999596
1051+1063053908+1062030775+1061570766+1062536815+1065427546+1069793492
1043+1073517854+1073741823+1069971940+1065546948+1064195060+1066389668
1034+1069562833+1070734599+1069334355+1067645423+1067960289+1069967795
1025+1071523655+1071148942+1068929974+1065890028+1063329797+1062169956
1017+1062541687+1063515081+1063621466+1062305574+1060630095+1060305849
1008+1061740270+1062757585+1059971349+1053043936+1046492980+1044980679
1000+1048073491+1051211242+1051657799+1051322281+1052409187+1053870586
991+1053295029+1049886115+1044524814+1038834977+1034806293+1033418338
983+1033532068+1033472876+1032951857+1031981662+1029562213+1025307451
974+1020739642+1017404899+1015424153+1014561144+1014738574+1015171242
965+1014477083+1011620384+1006482907+1000417485+995693551+993341874+992334521
955+991173444+989151685+985897514+981075630+975277589+970409021+968465142
945+969797759+972491935+973803173+972641951+970116188+967523889+965110257
935+962948663+961588267+961301398+961554163+961601138+961169489+960377670
925+959249752+957702110+956128144+955426568+955734453+955808406+954608425
915+952751589+951764743+952462320+954167177+955194018+954418706+952507332
905+951054949+950801602+951294553+951572478+950749173+948751774+946722307
895+946127916+947052080+947800487+946947077+945373620+945037520+946041455
885+946725362+946385626+945806506+945496076+945374638+945590826+946131916
875+946309055+945466916+943750352+941885589+940375033+939029254+937612794
865+936792034+937079776+937170963+935323290+932412998+931382885+933330036
855+936080277+937149148+936841409+937307672+939595067+942325747+943055465
845+940988258+938119270+936949030+937769281+939343538+940998802+942306113
835+941932855+939094263+935292385+932971903+933170494+934806561+935659898
825+934659017+933408643+934252455+937176926+940076819+941842104+943288888
815+944617942+944427059+942732891+942522302+946261789+952408436+956981191
805+957996251+956902656+955968748+955491577+953985529+950868138+947779253
795+946502483+946908245+947894583+949181679+951246850+954047775+956551577
785+957333070+955585237+952247149+949646561+949524468+951778850+955192491
776+958593042+960709261+960113706+956853281+953352452+952036196+952710577
766+953286788+952836959+952943272+955306366+958931178+960843642+959364718
756+955774883+952930037+952881826+955652864+959484338+961944364+961567179
746+958988551+956855317+957977417+962561661+967301374+968132097+965293141
736+963386784+965403671+969104400+969753911+965464172+958750111+953748761
726+953006900+955738961+958687865+959338031+958027883+956852554+957402442
716+959411693+960898326+960200167+958033846+956099421+954285488+951354908
706+947513326+944425604+943587538+945649800+949732003+952737337+951633852
696+947473259+944184765+943111385+942295206+940027081+935724907+929261140
686+921902440+915809967+911937553+910393692+912113020+916932213+921422724
676+921770531+917594886+909765779+897398530+881096840+867971368+867072728
666+875275166+883915217+890180175+893564947+892979064+889748089+887773087
656+888951108+891194727+890660182+886131785+881517946+881136544+883411068
646+883950412+883326643+884799168+887416991+887209528+882587035+875747974
636+869770103+865906270+863158647+860772938+860403461+863306772+868006563
626+871907192+873221702+871455690+867876618+865106525+864576125+864918696
616+862847490+856751453+849856763+847483271+850887822+855078519+853882465
606+847441022+841407595+840405842+845148609+851915535
##END=
