##TITLE=<SNM>
##JCAMP-DX=4.24
##DATA TYPE=INFRARED SPECTRUM
##DATE=2/5/2025
##SAMPLING PROCEDURE=Instrument type and / or accessory
##ORIGIN=Admin
##XUNITS=1/CM
##YUNITS=ABSORBANCE
##RESOLUTION=4
##FIRSTX=4497.3318
##LASTX=599.83466
##DELTAX=-1.4281778
##MAXY=1.8311927
##MINY=0.31969649
##XFACTOR=1
##YFACTOR=1.7054311e-09
##NPOINTS=2730
##FIRSTY=0.33923206
##XYDATA=(X++(Y..Y))
4497+198912786+198461338+198667036+199169073+199479079+199235583+198413596
4487+197515629+197326270+198295588+200073315+201604225+201979395+201361079
4477+200731177+200731247+201137277+201339951+200875712+199637070+198085452
4467+197177436+197589792+198952174+200178304+200646825+200713422+200982956
4457+201496370+201744164+201220178+199858652+198037029+196299669+195158083
4447+194916003+195377027+195906850+196086615+196118174+196420054+197109249
4437+197929278+198358323+197951978+196972437+196383706+196848697+198012424
4427+198945202+199003411+198216828+197093993+196114173+195347896+194703420
4417+194425254+194871267+195904910+197049554+198023503+198597363+198365872
4407+197310822+196202788+195839781+196089725+196117441+195503336+194778213
4397+194640248+194962434+195144226+195236808+195927313+197298048+198294609
4387+197884472+196395589+195022635+194236350+193596277+192983868+192807301
4377+192910316+192606636+191863863+191290440+191150011+191303511+191750503
4367+192556413+193475263+194002849+193770799+192927319+192117128+191898533
4357+192226503+192645343+192835470+192776108+192531668+192181016+191922876
4347+191900333+191849202+191323293+190427475+189912471+190316264+191329409
4337+192119976+192062780+191168308+190012847+189294259+189305443+189741758
4327+190063105+190049317+189908521+189921994+190165822+190422984+190245071
4317+189410328+188449660+188299725+189234547+190526051+191292240+191282349
4307+190727380+189925419+189228309+189021860+189443321+190253547+190998242
4297+191221746+190792928+190175294+190069029+190668367+191487732+191902710
4287+191687506+191074415+190392525+189723182+188980706+188222206+187663707
4277+187457869+187635520+188150332+188895376+189759565+190580241+191017184
4267+190855174+190528742+190726209+191289846+191320043+190653845+190215906
4257+190509677+190934213+190979648+190871688+190747354+190414788+189996001
4247+189744606+189494225+189174171+189257859+190010505+190990745+191659022
4237+191773675+191221729+190183822+189273936+188977386+189196365+189583627
4227+189981374+190399899+190810788+191043816+190958608+190802784+191125459
4217+192074436+193106594+193634075+193558199+193014117+192170863+191415718
4207+191165809+191439274+191959940+192493555+192851110+192928752+192891670
4197+192954335+193011688+192872762+192678318+192674369+192783692+192755907
4187+192517566+192154157+191838227+191840377+192209937+192506522+192362790
4177+192133869+192378780+192979359+193409942+193552537+193681747+193942893
4167+194252479+194463262+194436508+194162011+193849996+193724071+193781075
4157+193896969+194047358+194269430+194536167+194759812+194778947+194389151
4147+193607409+192794125+192263201+191949490+191725269+191704824+191934567
4137+192193738+192330846+192419165+192504512+192524399+192533643+192736894
4127+193174764+193479964+193168455+192248994+191334931+191058740+191529864
4117+192342991+192961587+193148359+193090098+193009206+192803456+192315556
4107+191771211+191608344+191953562+192531214+193051618+193474634+193863889
4097+194141216+194120770+193781931+193407775+193321501+193428745+193234546
4087+192545439+191882334+191862483+192429248+192986087+193037900+192529134
4077+191807052+191354468+191394486+191743670+192047717+192041234+191646947
4067+191050090+190645422+190722295+191184769+191647139+191786571+191571525
4057+191199885+190885668+190678695+190422057+189963218+189505339+189555440
4047+190347265+191457780+192147254+192060019+191490948+191039745+191086542
4037+191510555+191894986+192016297+192036516+192176770+192358334+192345001
4027+192152916+192056210+192198369+192467063+192777663+193217158+193800629
4017+194211972+193948450+192853382+191474504+190703876+191040758+192299863
4007+193820673+194782442+194670864+193815745+193211951+193441449+194052286
3997+194303418+194160998+194104204+194257162+194312208+194151229+194015728
3987+194094715+194283742+194370243+194305253+194221531+194261531+194574665
3977+195345310+196468215+197346751+197446970+196907850+196281006+195950730
3967+196102255+196869318+198131324+199364478+200005127+199963904+199587756
3957+199140065+198639006+198260865+198540325+199859596+201735130+202946808
3947+202892740+202445556+202553639+202646483+201611093+199787390+198575362
3937+198786285+200486265+203436369+206696163+208480530+207793782+206014238
3927+205469894+206732721+208163010+208354973+208134142+208968046+210525903
3917+210805712+208493532+204673088+201602652+200445251+200912479+202847026
3907+207110914+214120727+222074765+227804434+229521400+227099442+221087063
3897+213894392+209458918+210088645+214378937+217803241+217274606+215535884
3887+216635163+219930554+221804952+221927224+222509856+222383827+219244924
3878+215642848+215696094+219657648+225173528+230468403+233514129+231971003
3868+227795627+225539471+225883675+225495207+222462342+218984128+218183618
3858+221963834+231232285+243957962+250528823+243124704+230054736+220388590
3848+216359111+217356738+221699246+227318788+233058260+238808007+243446942
3838+244376190+241082564+236370235+232421980+229301792+226933640+225950604
3828+226359867+227601585+230640636+237128053+244724082+247170697+244032004
3818+240697696+237702595+231898972+224534504+220128283+221122625+226935370
3808+234073257+238583245+241351451+245613871+249717042+249169150+245390209
3798+242663488+240894709+238333772+235810792+235104594+236467920+239444690
3788+243893672+249266555+254406060+259423013+266248151+275638612+285062765
3778+291872945+297399835+304979349+316473951+331463404+346974553+358687208
3768+364949425+367299806+367557736+367810040+370161434+374254032+377118316
3758+377415111+378221230+383781339+395616284+410298771+420385137+423882468
3748+427649788+436267210+446576696+451762492+452893051+457456389+469431518
3738+488001552+508272493+523441623+530491576+532209399+533145147+536743274
3728+544724259+556240704+567775149+575887370+579268878+578262496+575032146
3718+572719442+573327116+577430304+584287998+590279669+589605136+581035490
3708+569958050+562444346+560936922+563181300+564624102+563711839+562833374
3698+563524822+565262531+568072049+573199688+581161135+589587241+593289694
3688+589794215+583045599+577898947+576604403+579438804+585311750+592919225
3678+600898217+605034747+601090581+593981492+590924354+591014385+588118996
3668+580694310+573099137+568163967+565245511+562717340+560596510+560312822
3658+561838175+563133558+564133090+568335886+578019489+589334903+591833821
3648+580997220+566161338+555799462+550956699+549369869+549131930+549943676
3638+552298391+556222146+561094721+566710401+573892465+582084372+585911875
3628+580750439+571842584+566197057+565968659+570729325+578285947+584088748
3618+585542524+586109272+589193426+592878124+593902925+593217208+593390489
3608+593538118+591579036+588854691+588482125+591245894+594945480+597778309
3598+600997684+606327404+612018086+614282770+612933424+611728002+612991441
3588+614574392+613066653+609189800+605925620+604112070+602587275+600567451
3578+598769698+598328490+599471772+601922528+606233179+613694283+623770828
3568+631197053+629340863+619464092+609280181+603415798+601538988+601765883
3558+602623483+603251813+603669115+604268995+604768009+604888936+605328186
3548+606532490+607490397+606762320+603988487+600155252+597070434+595931626
3538+595879202+594905917+592479555+590188659+589668535+590802030+592048902
3528+592174233+591301184+590181320+589162111+588232443+587047222+584825422
3518+581561521+578984805+578847452+580780426+582858442+583484150+582150777
3508+579552426+577146930+575520816+573847869+571855061+570551849+569892974
3498+568280141+565564568+563698593+563625932+564360265+565156843+566052015
3488+566338988+564928620+562257679+559754323+557881392+556199603+554712240
3478+553729030+552777204+550985323+548471552+546419433+545818470+546543401
3468+547470377+547609757+547297724+547577498+548359537+548272722+546513554
3458+543860402+541541092+539862413+538305150+536681064+535774289+536272849
3448+537607306+538653007+538843833+538063227+536499569+535025137+534640724
3438+535279817+535771213+534944613+532623380+529733653+527439751+526072337
3428+525206313+524704572+524882292+525512894+525484689+523967619+521459299
3418+519167040+517804274+517269506+517055577+516807433+516641666+516777726
3408+516886944+516250821+514589268+512568150+511482362+512223544+514113460
3398+515119667+513982573+511542021+509278701+507581149+506129400+505130707
3388+505273792+506547890+507724269+507626409+506635894+505892125+505522985
3378+504916429+504122612+503660749+503409529+502845683+502105618+501934294
3368+502638185+503626498+504188493+504338358+504376209+504139108+503456607
3358+502789343+502510198+502139415+501297297+500638352+500810480+501323719
3348+501370972+501051320+500986767+501327075+501654380+501561169+501017558
3338+500217380+499289915+498317644+497517605+496970779+496263883+495039343
3328+493791562+493365593+493748469+494041174+493647289+492913271+492427118
3318+492152901+491647735+490930458+490530701+490669802+490964045+490905434
3308+490241456+489081783+487928751+487404468+487862416+489229202+490868073
3298+491752655+491399591+490405406+489497023+488667383+487911346+487947380
3288+489270443+491080149+491960851+491423532+490263230+489496639+489395948
3278+489551685+489590444+489660554+490080232+490653445+490679134+489726190
3268+488216389+487113230+487071745+487875697+488605277+488380898+487104633
3258+485446470+484121344+483399699+483190104+483181437+482941785+482205566
3248+481091747+480003058+479411496+479549443+480094592+480417878+480312539
3238+480109096+479893315+479121412+477451681+475574067+474589563+474722128
3228+475160750+475080994+474400170+473647664+473396933+473611525+473513002
3218+472487677+470896932+469509631+468622253+468100031+467625377+466710563
3208+465146940+463462599+462338715+461761727+461320660+461034210+461210917
3198+461595086+461316326+460002629+458424117+457483650+456956047+455954243
3188+454447378+453389619+453306159+453574644+453289558+452273983+450969339
3178+449711282+448454519+447064596+445593101+444252562+443201130+442370860
3168+441549432+440617633+439607022+438535598+437385047+436288319+435453017
3158+434772228+433883417+432826672+432168285+432100972+431980080+431232712
3148+430088697+428979631+427945464+426978330+426228970+425600535+424736469
3138+423540134+422260059+421102274+420147023+419452848+418908853+418242219
3128+417405588+416683174+416227916+415796879+415163587+414497966+414095274
3118+413972530+413946876+413930345+413954495+413971726+413736897+412914002
3108+411419754+409659083+408232463+407417327+407065591+406893148+406695996
3098+406390778+406026391+405721767+405477852+405139991+404698225+404448473
3088+404543082+404549687+403934464+402859860+401962242+401458474+400976445
3078+400185633+399209098+398419685+397980260+397610175+396966573+396218296
3068+395842095+395873445+395794249+395163822+394064159+392947195+392196681
3058+391801258+391460147+390976790+390346818+389579877+388771101+388171676
3048+387874672+387605243+387018888+386037775+384852030+383825586+383338699
3038+383455956+383778439+383755686+383072171+381716499+379921228+378174747
3028+377016157+376552163+376284621+375612674+374439476+373156850+372185872
3018+371669347+371502252+371508892+371550273+371474397+371069991+370259993
3008+369324314+368726356+368643874+368786051+368720834+368261837+367501712
2998+366614124+365729962+364943379+364300371+363732645+363096452+362384697
2988+361807744+361492007+361212722+360683406+359996431+359476306+359194715
2978+358892224+358300557+357385708+356369190+355614902+355368680+355436762
2968+355194874+354187827+352715878+351528490+350968208+350731667+350416908
2958+349984438+349663493+349581396+349525721+349134142+348342946+347464166
2948+346772822+346228093+345640725+344967136+344370226+343960718+343554216
2938+342911907+342166111+341661819+341423216+341142044+340634536+339977059
2928+339270372+338562357+337937732+337478666+337155344+336830100+336336608
2918+335598326+334791263+334321082+334424149+334818978+334962448+334619869
2908+333996712+333385718+332883068+332396286+331793960+331033904+330169244
2898+329291966+328580247+328293098+328447752+328573187+328139144+327241945
2888+326516560+326345550+326464450+326377844+325912136+325273287+324723001
2878+324311082+323889551+323342585+322769896+322384503+322245088+322195704
2868+322071737+321838236+321504290+321052388+320497139+319905123+319344666
2858+318882838+318585345+318434711+318267860+317882467+317275702+316751349
2848+316613751+316734922+316696722+316380181+316042460+315803333+315494411
2838+315038908+314582777+314208499+313799096+313221723+312529261+311948114
2828+311616125+311365430+310923907+310272476+309594448+309000230+308547070
2818+308343871+308364946+308329122+307980147+307323683+306482509+305573358
2808+304810157+304418403+304317398+304146493+303708746+303149582+302652350
2798+302244345+301950032+301853535+301926510+301954540+301684413+301020295
2788+300116595+299252564+298575060+298056718+297688416+297486685+297306344
2778+296906237+296226357+295441906+294784219+294370692+294092246+293681270
2768+293018760+292273715+291640581+291135100+290706370+290302192+289808192
2758+289153511+288454583+287888639+287499804+287207937+286889981+286429568
2748+285813069+285176387+284686669+284393282+284171962+283769322+283012831
2738+282048581+281215533+280636413+280136350+279595500+279130963+278847922
2728+278618231+278227177+277645488+277064638+276675104+276470315+276294727
2718+276027133+275661732+275244587+274775664+274192578+273501077+272899501
2708+272610256+272558303+272431173+272113338+271815268+271693643+271595101
2698+271280028+270711568+270049704+269503297+269220535+269189814+269203410
2688+269004685+268539344+268038198+267787467+267808752+267823238+267545282
2678+266940002+266191987+265536764+265131432+264958762+264811676+264469708
2668+263952764+263543676+263495969+263735481+263899571+263690168+263150717
2658+262552514+262059441+261615944+261167991+260845351+260808881+260986566
2648+261087816+260893460+260471894+260067716+259813735+259653140+259527024
2638+259432344+259268027+258892106+258385578+257989805+257762928+257561634
2628+257329461+257140103+256979788+256720093+256334036+255992401+255890696
2618+256019382+256133983+255976464+255561364+255190982+255101580+255164053
2608+255084699+254814484+254547869+254404679+254342171+254297296+254230751
2598+254087142+253826416+253480814+253164727+253011384+253057448+253219720
2588+253403103+253544125+253578306+253520220+253517284+253640832+253695441
2578+253435955+252951952+252658582+252836809+253282228+253541749+253463950
2568+253316724+253346291+253480342+253561530+253649412+253917967+254354247
2558+254710124+254750858+254468480+254039278+253638805+253311324+252983739
2548+252623318+252336851+252193259+252037942+251710060+251341478+251156453
2538+251072049+250787889+250219342+249623638+249304510+249309823+249440955
2528+249508950+249485586+249391518+249212784+249003400+248887838+248887960
2518+248902290+248876724+248835902+248760847+248597142+248377901+248206105
2508+248105292+247982181+247753382+247470515+247306600+247387823+247608357
2498+247699017+247556491+247375905+247360650+247466565+247532446+247488059
2488+247342650+247112331+246819188+246490275+246156049+245861089+245620686
2478+245390384+245150750+244971999+244914856+244920989+244871588+244707061
2468+244460489+244234713+244136364+244136836+244035866+243690753+243227457
2458+242904083+242833607+242908889+242912751+242694873+242327235+242035683
2448+241950685+242025303+242146492+242192800+242085434+241897299+241765975
2438+241653646+241396729+241010935+240719959+240647246+240666398+240606721
2428+240460439+240304422+240143303+239958715+239815561+239771611+239767854
2418+239737168+239729234+239829209+240053534+240360028+240634594+240700632
2408+240527420+240376681+240519521+240859846+241061717+241007981+240919471
2398+241053049+241467293+242102367+243006976+244498655+247158499+251692480
2388+258772787+268905637+282358726+299224429+319556008+343334451+370219695
2378+399387832+429661958+459749312+488497002+515300638+540105909+562535076
2368+581337423+595126940+603556436+607638235+608589641+606323280+599338263
2358+586394638+567569225+543418880+515201625+487154681+465789983+455775404
2348+458403112+472099208+491723297+509530025+520804094+525956687+526855249
2338+525565878+524395056+524491168+525223473+525202678+523487128+520074025
2328+515670268+510977860+505883807+499346499+490567958+480116366+469253623
2318+458659050+448444104+438718491+429433875+420024070+409785706+398570599
2308+386837568+375147596+363842667+353157470+343370834+334646186+326770226
2298+319264211+311846270+304654070+297956482+291841088+286281136+281287774
2288+276817315+272685853+268777982+265251660+262371089+260182177+258464599
2278+256970823+255619433+254454937+253492347+252634484+251721209+250654730
2268+249499374+248450510+247671249+247162221+246808004+246503101+246193585
2258+245862155+245513862+245115625+244568292+243843641+243091397+242473623
2248+241966203+241464637+240998667+240679522+240494043+240308739+240055946
2238+239786675+239550518+239349364+239204130+239153243+239182426+239231163
2228+239243116+239170770+239002766+238822791+238754779+238821009+238931817
2218+239031407+239161211+239345030+239520583+239669732+239910362+240327105
2208+240795713+241117497+241263028+241367843+241545318+241797569+242067697
2198+242303259+242487445+242666319+242928268+243295784+243654632+243860505
2188+243908054+243950937+244159204+244549227+244943707+245140772+245119208
2178+245025891+245009710+245119173+245280519+245338081+245180685+244833143
2168+244419074+244084918+243929985+243929286+243944070+243832352+243542356
2158+243145325+242793939+242594881+242544117+242605611+242772130+243038640
2148+243380241+243786428+244368099+245420983+247218596+249730952+252723886
2138+256067858+259764334+263810501+268229793+273114583+278520581+284385244
2128+290590476+297100069+304002045+311347011+318997753+326709518+334242550
2118+341361390+347855535+353497113+357916597+360726429+361817565+361395021
2108+359785438+357252095+353916197+349901362+345456993+340749172+335692271
2098+330107417+323848904+316869409+309416553+301962404+294801100+287976363
2088+281595438+275926827+271183374+267346871+264208737+261559465+259290430
2078+257314992+255557467+254043926+252835272+251901253+251176112+250649732
2068+250337979+250187782+250002058+249577871+248990905+248500820+248173916
2058+247909712+247709764+247594517+247484564+247383000+247403411+247557085
2048+247750306+247938966+248165983+248496748+248882753+249128870+249155397
2038+249131910+249191308+249288346+249436831+249779742+250380146+251125033
2028+251804721+252264190+252533304+252754118+253053219+253595589+254491285
2018+255441625+255841714+255484124+254814310+254347484+254170393+254058553
2008+253825909+253495510+253220087+253081546+253013114+252922454+252776748
1998+252602558+252629242+253284605+254598948+255770801+255936393+255205346
1988+254286269+253544457+253019492+252798260+252885320+253091804+253277021
1978+253453256+253652313+253844694+253973170+254136526+254716660+255939417
1968+257241807+257635273+256939438+256032611+255687323+255846695+256161121
1958+256584662+257162471+257708720+258009831+258112689+258274647+258745771
1948+259669829+261175960+263278371+265306042+265901169+264524213+262406354
1938+261068402+260788698+260962136+261101604+261141971+261234221+261497219
1928+262025190+263130603+265003271+266976018+268155857+268867803+269908576
1918+270650475+269852604+268055323+267058709+267642128+269092898+270235760
1908+270426324+269892797+269327133+269141321+269225481+269383157+269783858
1898+270771420+272149424+273127584+273560771+274458389+276224303+277414556
1888+276652142+274757228+273364457+272898733+272875194+272927356+272991140
1878+273122220+273369979+273789798+274897098+277770958+282726085+287626690
1868+288870836+285643161+280977244+277806275+276713164+276816197+277152624
1858+277272258+277249925+277374277+277757607+278422180+279615841+281747016
1848+285216125+290009154+294440347+295203024+291534892+286972742+284600343
1838+284382745+284750662+285137907+286792453+290926764+296276440+299531639
1828+299525732+298329222+297081895+294935622+291999097+289869827+289334621
1818+289690394+290128805+290893369+292775316+295641925+297952253+298313670
1808+297181223+296244286+296906971+299656445+303718636+307072219+308041659
1798+307345178+307564698+310679118+316080905+319875939+318283063+313120264
1788+309232857+308756280+310594819+312963199+315143444+316798182+317509272
1778+318016815+320379952+326106633+334136896+340143071+340283849+336015942
1768+330932340+327131573+326128546+328583078+332518017+334748344+335156350
1758+335711983+336548055+337389194+340186444+346776736+355197181+360419150
1748+360262050+357467666+355385491+355485692+357614316+360310211+361821864
1738+362940785+366970473+374821793+380884377+379002220+372341644+366004283
1728+361388136+359048170+359280901+361264098+364723964+371360949+382440556
1718+394564257+399548217+394522562+385758735+379018262+376264420+377799839
1708+383025967+389673822+394853223+399066083+405858806+415672493+422853439
1698+423429972+419310358+411684255+402934408+397902147+398435832+402797579
1688+409669114+420274660+433675779+440761172+435418556+426009065+420601407
1678+420990609+425736351+431317885+435070420+438506729+443211580+445879340
1668+443009359+438548599+438234784+442256574+446026899+446264278+445538264
1658+448573628+458358236+475615658+494780329+501347835+496403682+495170615
1648+500522248+504630050+500843123+494040929+491197930+494109571+502591038
1638+516040353+530697222+537866250+534675638+530110203+531308950+538612849
1628+548924188+559788014+571370970+583399746+593351136+601013971+610263671
1618+623290197+635858950+641760520+642970625+645111795+649624456+654806757
1608+658935529+661791145+664249801+666984281+669686327+671790101+673751070
1598+676828549+681579917+687146038+692280877+696797942+701408812+706421676
1588+711367576+715691647+719181185+721836399+724006228+726986056+732892589
1578+742799278+753703436+759589558+761064304+765000642+774440190+786102551
1568+794943338+801130309+808064159+817551239+831011214+851135225+876556104
1558+892963543+892777680+887495073+883496804+880889122+879176088+877617183
1548+876331306+877351004+882232037+890127918+898330869+900632040+889506230
1538+871581265+859750375+855848359+854287916+849691795+843328746+839912184
1528+840722882+843839784+848076830+853815463+859062561+859615189+856138932
1518+852904110+850238830+846361209+842412360+841657162+846395250+856664020
1508+868041959+869408780+856599013+842606821+836006673+836373087+840944884
1498+845654942+845588047+840274125+835443769+835623622+839609378+841936412
1488+838654337+831676310+825144803+821363504+820424610+821314784+823640700
1478+828184815+835464180+844281411+850912385+849988799+841084124+831437043
1468+827159595+828480492+831322617+831920610+831865110+835484172+844337191
1458+854365505+856025835+846557278+834830958+827099341+823852007+823064376
1448+822067744+819605035+816743896+814963758+814608318+815848340+819473973
1438+824958450+828170486+825471305+820177444+817262832+817011543+816675045
1428+815208827+814436504+815468365+817264021+819104063+821448362+823022715
1418+820677997+814868694+809520801+806427315+804604818+802792945+801073061
1408+800449764+801127303+801696707+801120103+800918582+803222340+807633017
1398+811503369+812710049+810854559+806858317+803029416+801735291+803215140
1388+805184637+804949005+802811049+801867542+804182833+809092035+814767829
1378+820319481+825806615+830577625+833085280+833286522+833284075+834406666
1368+836109705+838211871+841614034+845735326+847537553+845084140+840384567
1358+836810450+835905528+837071596+838826151+840138519+840651165+840157952
1348+838843067+837678746+837789117+839685639+843169375+847306604+850552611
1338+851799343+851331923+850223033+849477202+849884369+851576992+853704952
1328+855537305+857628637+860856959+864905905+868821342+872442501+876247636
1318+880256739+883824984+886349764+887940614+889561660+892436080+897058553
1308+902677308+907627682+910487422+911272677+911323354+912087499+914123889
1298+916783157+918641653+918797669+917924761+917545135+918192617+918659827
1288+917309223+914107673+910765763+908637804+907397432+906199909+905085287
1278+904381535+903753835+902729524+901535985+900954977+901594211+903436420
1268+905874665+908141026+909868250+911271209+912735190+914308006+915897807
1258+917823127+920441223+923266923+925295345+926198660+926477700+926682716
1248+927235623+928520032+930288567+931313508+930354413+927444973+923961657
1238+921378440+920065652+919233774+917869750+915715718+913408395+911871998
1228+911680612+912627405+913734827+913928310+912878205+911153917+909644012
1218+909028823+909464229+910381315+910979657+911281764+912067927+913501012
1208+914878248+915966518+917300765+919015268+920820430+922979495+925937165
1198+929273412+932124695+934142562+935280810+935547898+935336101+935396565
1188+936556622+939265798+942901496+945999106+947564581+947540326+946598426
1178+946366848+948484323+952605265+956453249+958730794+960478779+962831606
1168+965268173+966737187+967321829+967908638+968768056+969262177+969012705
1158+968848021+970317175+974223455+979421554+983416047+984760081+984435186
1148+984424072+985745808+988017481+989963631+990559667+990495499+991485769
1138+993758701+995687236+996151441+996103699+997003589+998938346+1001047083
1128+1002847282+1004404021+1005354867+1005131608+1004516769+1005396807
1120+1008353079+1011675976+1013265987+1013133457+1013109341+1013970786
1111+1015108056+1016468166+1018736135+1022237556+1026792856+1031237224
1103+1033229998+1032091470+1030586318+1031460974+1034740532+1039311420
1094+1043832888+1045860192+1043051548+1035909257+1028442631+1025140914
1085+1027825555+1034757658+1041873038+1046108965+1047395331+1046947204
1077+1045259054+1042912588+1041874715+1043510231+1046516202+1049254177
1068+1051836904+1053554133+1052146211+1048056234+1045276878+1046810200
1060+1051351590+1054874959+1055825946+1057201574+1062359759+1069832677
1051+1073588952+1070182036+1063411262+1059533012+1061029427+1066092409
1043+1071338318+1073741823+1071902340+1067604341+1065124856+1066869065
1034+1070670007+1072828862+1072386396+1070335886+1067148595+1063106010
1025+1059570897+1058398189+1059703777+1061395981+1061116661+1058492763
1017+1055485114+1055095144+1058613620+1063607541+1065977913+1063997302
1008+1059392863+1054918786+1051888001+1050212992+1049903825+1051136928
1000+1052802850+1052789569+1050647140+1048222875+1047205484+1047536599
991+1047406795+1044592210+1039602343+1036202976+1036871148+1039834200
983+1041671866+1040596667+1036736241+1031383944+1026382124+1023093059
974+1021966484+1022810524+1024552707+1025436450+1024483786+1022078534
965+1018894458+1015324606+1011737418+1008588013+1006333954+1005263578
957+1005159917+1005118746+1003823363+1000517802+996093983+992204339+989179076
947+986236294+983550604+982252425+982494558+982990707+982240473+979755605
937+976353512+973746808+973503068+975436007+977467714+977502804+975180593
927+971934586+969480474+968418487+968342506+968435123+968021456+967261435
917+966853710+967013920+967393546+967674264+967499934+966535876+965323603
907+964732880+964141877+962184194+959604542+958992289+961095225+963400101
897+963122599+960350792+957530335+956946672+959030105+961975962+962731789
887+959515070+953890443+949393579+948065693+948986833+950148567+950751173
877+950954023+950827434+950760819+951666162+953560866+954827939+954087561
867+951998535+950050428+948645442+947571222+947270373+948282103+950076640
857+951458489+951699504+950870702+949550085+948318241+947375572+946923321
847+947403602+948412815+948585328+947515092+946428849+946499378+947341671
837+947736185+947380116+947150006+948204724+951241590+955384901+957731856
827+955996594+951658193+948203326+946714460+945847004+945366722+946645469
817+949742799+952826079+954689468+955952837+957532502+959049957+959482357
807+959015147+958925885+959889244+961245160+961902707+961463177+960200717
797+958732891+957772049+957483502+957138127+956197136+955474512+955852111
787+956624923+956727047+956534053+956890193+957591358+958240727+959548133
777+962726057+968066891+973921558+976736143+974114621+968244017+963504042
767+961453811+960838693+961341062+964117063+968841381+972995805+974865625
757+975264473+975626274+976016455+975451315+973312102+969993189+966552721
747+964051497+963208645+964387435+967390051+971001913+973237519+972975604
737+971065592+969059747+967228862+964962501+963216893+963947206+966592844
727+968690956+969912595+971582920+973102123+972500565+969942093+967885641
717+967801202+968977755+970407276+971974359+973568005+974179768+972598145
707+968788257+964508991+962410529+963091144+963304548+959529889+952986149
697+947947143+946587662+947816360+949830174+952383613+955207914+956277032
687+953817608+948816417+944771735+943699262+943446924+941153722+938239809
677+938605035+943198291+949108179+952365929+949966898+940545873+926762542
667+916881017+914827641+916957557+920769752+925761157+930108645+930886280
657+927458464+922147198+917692833+915576897+914601655+911471332+904885094
647+896995503+890691381+888020160+889577667+893333942+895824612+895503143
637+894439967+895586044+898844633+901496561+902267835+902359334+901604067
627+897197863+888629337+879942609+874483365+872617670+874963297+882275585
617+890659576+891978655+884567669+876509131+874412277+877368340+881692271
607+886164879+889114930+886294054+877103489+867826738+864769880
##END=
