##TITLE=<SNM>
##JCAMP-DX=4.24
##DATA TYPE=INFRARED SPECTRUM
##DATE=2/5/2025
##SAMPLING PROCEDURE=Instrument type and / or accessory
##ORIGIN=Admin
##XUNITS=1/CM
##YUNITS=ABSORBANCE
##RESOLUTION=4
##FIRSTX=4497.3318
##LASTX=599.83466
##DELTAX=-1.4281778
##MAXY=1.839358
##MINY=0.38447264
##XFACTOR=1
##YFACTOR=1.7130356e-09
##NPOINTS=2730
##FIRSTY=0.40385771
##XYDATA=(X++(Y..Y))
4497+235755583+235671084+235985524+236505445+236708037+236090674+234840516
4487+233805024+233493350+233726319+234235679+234851181+235179591+234775920
4477+233784843+233060643+233336078+234311236+234907548+234520144+233611740
4467+233109512+233576284+234761845+235683976+235440673+234301754+233643194
4457+234429921+236029679+236861134+236110594+234388498+232961287+232798778
4447+233975588+235609115+236548486+236263639+235118874+233965915+233499683
4437+233801580+234369100+234693648+234686828+234453877+234100032+233778076
4427+233492724+233062070+232566157+232408781+232694428+233037661+233147212
4417+233095873+233016593+233147647+234047161+235963064+237972774+238524706
4407+237073313+234630582+232614505+231672854+231680179+232268175+232930615
4397+233059930+232521672+231988808+232126160+232674578+232883346+232541679
4387+232063425+231875951+231964608+231663060+230151489+227656549+225567802
4377+224985112+225816480+227228521+228249747+228197555+227290891+226600006
4367+226924693+227985777+228871390+228934769+228147937+226958027+225977389
4357+225567750+225600875+225852162+226453503+227534315+228741484+229505315
4347+229515458+228782820+227616535+226541012+225829755+225284225+224825352
4337+224913452+225891915+227154147+227547450+226730173+225590924+225105467
4327+225387113+225987027+226530973+226926729+227257905+227491030+227414690
4317+227174641+227385741+228136577+228504549+227723442+226315942+225484747
4307+225746682+226504460+226823110+226493673+226170604+226443290+227112063
4297+227545031+227520971+227412098+227537168+227720658+227640926+227226729
4287+226608461+226061540+225834087+225703137+225203032+224540940+224467088
4277+225068672+225619403+225673300+225507903+225521038+225717855+225781599
4267+225495916+225073943+224887495+224885321+224709259+224439374+224642314
4257+225472326+226356791+226851920+227133879+227432331+227753417+228222903
4247+228878314+229270225+229098321+228857020+229076662+229417528+229185256
4237+228327809+227417283+227004739+227318274+228211020+229141902+229458534
4227+228935847+228004618+227397676+227533306+228115718+228424869+228203974
4217+227925060+228001156+228311595+228605297+228749904+228582402+228018901
4207+227259628+226679564+226588959+226946562+227305087+227390804+227475738
4197+227758810+227882471+227543483+227033583+226801885+226882000+226902146
4187+226542108+226027041+225998022+226651207+227327825+227286106+226627198
4177+226155033+226428885+227205261+227890091+228354375+228995607+229941520
4167+230581065+230275863+229308464+228560360+228420520+228636508+229009455
4157+229526262+230017581+230195139+229845069+228951174+227932314+227489708
4147+227825634+228331445+228324782+227819301+227424381+227680783+228561508
4137+229544842+230085901+229955264+229368781+228964292+229232194+229824348
4127+229893346+229076035+227683741+226249258+225366671+225541672+226745100
4117+228292370+229323200+229356655+228491918+227251329+226265333+225951832
4107+226241829+226666377+227025424+227698424+228892406+230052724+230478855
4097+230064137+229149139+228164169+227539360+227448232+227595049+227611472
4087+227578226+227818518+228301835+228650722+228726244+228848878+229278210
4077+229730907+229744321+229337761+228888126+228513856+228032819+227450825
4067+227070553+227009923+226967143+226765838+226846370+227679618+228854480
4057+229433516+229132838+228403522+227531235+226542386+225849622+226071422
4047+227158323+228306410+228819998+228735603+228523964+228424730+228259524
4037+227854044+227433392+227321806+227427286+227491134+227656131+228230575
4027+229079863+229816937+230415024+231067339+231632249+231713599+231110014
4017+230005299+228930471+228385881+228289952+228225582+228281462+228951487
4007+230203820+231428995+232261112+232763913+232957042+232745507+232214208
3997+231664956+231387920+231430718+231599698+231750864+231948046+232280562
3987+232710312+233103493+233244185+232892289+232043523+231167582+231012798
3977+231922872+233372961+234480443+234944761+235113116+235234288+235176512
3967+234940499+235013777+235938517+237566598+238964825+239282466+238574097
3957+237558543+236786534+236290152+236063099+236538343+237926654+239278865
3947+239499620+239223611+239882432+241167646+241305816+239849290+238242921
3937+237779803+238704612+240661225+242798006+243871424+243354896+242255973
3927+242043812+243065125+244290144+244704428+244701540+245410222+246940686
3917+247908276+246903056+244235273+241592333+240220793+240192871+241459052
3907+244733916+250376267+256685182+260776557+261651454+260179532+256752858
3897+251987647+248067723+247107179+249035086+251406992+252033768+251972216
3887+253288692+255362738+256072638+255892871+256638052+257124796+255205222
3878+252577488+252487526+255363573+259503818+263587016+266270526+265954886
3868+263783189+262658570+262972802+262529430+260219406+257642142+256980554
3858+259712516+266725033+276718068+282618857+277970731+268077679+260123912
3848+256481720+257031981+260610569+265473587+270260858+274695953+278411650
3838+279719010+277556865+273439724+269320826+265886323+263506658+262732718
3828+263174559+263794410+265308695+269883387+276775409+280715549+279330075
3818+276226052+273214393+269032012+264261147+261559926+262670557+267406297
3808+273363941+277569756+280439175+284312822+287978240+287658007+284214405
3798+281511949+280179588+278934737+277912710+278002168+279197437+281275449
3788+284591754+289188036+294141799+298861011+304073160+310154656+315539039
3778+318813121+321396735+325985084+334166826+345986046+359709547+372410048
3768+382956337+392670474+402051278+410245024+417288003+423656625+428436102
3758+430723161+432128347+435424349+441796833+449168449+453341105+454637035
3748+458862892+469253022+482329341+490246991+492433806+496096684+505931838
3738+521706699+538700559+550256486+553659239+552219537+551111881+553427088
3728+559185654+566014681+571468827+575341413+578136858+579203561+578307283
3718+576736752+576065909+577123565+579552830+581289924+579937695+575555575
3708+569951985+565176649+563000029+563551421+565019933+566067569+567142726
3698+568417884+569452506+571129613+575216744+581735923+588146646+591254653
3688+589964255+585761606+581174509+578924959+580769777+586212615+593251036
3678+599824321+603198298+601556891+598263429+597046795+595999961+591273651
3668+584068284+578096531+574126067+571320497+569678046+570152472+573268446
3658+577452863+579322072+578362989+579090443+584802871+592438440+594116869
3648+586617765+575350495+565574492+559005174+555485929+553951410+553491180
3638+553885857+554914425+556436278+559497311+565582982+573401397+576837518
3628+571509885+563170140+559356392+562074210+569510265+577627637+581841246
3618+581441385+580315636+581081225+583256279+585941842+588908443+591288473
3608+591391535+588723613+585022774+582988047+584312822+588440940+593428420
3598+597962176+601547218+603648195+604560513+606289603+610614799+616345912
3588+619108685+616107916+610142426+605237480+602719244+602620010+604897256
3578+608413683+610991487+611485294+610848968+611293575+614838743+621438332
3568+627246968+627299369+622252530+617492469+616092467+616864702+617307500
3558+616542294+615504366+615222111+615650922+616175000+616782517+617816199
3548+618695254+618477926+617635545+617268182+616972705+615719328+614006104
3538+613116124+612953772+612377988+611167409+610437764+611390513+613892186
3528+615936169+615024616+610755927+605490159+602101846+601402054+601931213
3518+602081457+601835806+602110475+603115626+603926135+603534903+602130448
3508+601016737+601265728+602655779+603851744+603625300+601878464+599326130
3498+596688897+594528212+593281725+593305177+594761894+597335870+599872338
3488+600579228+598631557+595187225+591920415+589492507+587923960+587144975
3478+586734397+586335162+586452490+587486173+588093341+586360771+582715116
3468+579733137+579010693+579633241+579847681+579241626+578680074+578640825
3458+578665738+578413755+578053803+577469773+576231080+574634419+573494891
3448+572730032+571617609+570416112+570073175+570503690+570789982+570824463
3438+571242974+572071263+572393637+571403761+569169764+566168543+562871010
3428+560036386+558442960+558110218+558646057+560033324+561942129+563005979
3418+562154377+559848564+557237461+555333040+554972428+556100056+557368846
3408+557447726+556190696+554333039+552781089+552094449+552206419+552542049
3398+552400191+551409028+549754050+547857771+545964728+544318832+543323702
3388+543205852+543979305+545514762+547033762+547364625+546335118+544834003
3378+543365143+541776275+540297220+539644505+540038625+540924917+541703450
3368+542174223+542266359+542029233+542064515+543155922+545086717+546430908
3358+545836475+543311733+540320045+538650976+538808318+539678569+540101430
3348+539931214+539328325+538387162+537515797+536961935+536553583+536720529
3338+538205603+540096941+540266566+538440503+536507306+535497632+534656713
3328+533525744+532919272+533484408+534691194+535687542+536302435+536865449
3318+537579785+538238658+538317190+537443633+535998781+534983540+534912141
3308+535132287+534737437+533813566+533219516+533396934+533968890+534393978
3298+534529190+534557130+534766038+535468161+536748051+538200976+539162215
3288+539309328+538959084+538618304+538417260+538333822+538654177+539536607
3278+540349343+540220080+539088068+537664719+536639213+536224808+536021989
3268+535246275+533691994+532404797+532603823+534064019+535315099+535348746
3258+534578390+534141542+534593421+535306853+535125850+533674909+531873063
3248+531009144+531422471+532329118+532922890+533001770+532371916+530715546
3238+528463665+526742717+526136383+526385896+527124380+527885446+527909280
3228+527002251+525992020+525545742+525263418+524430327+522955934+521277505
3218+519956105+519502834+520022667+520787386+520601374+519048832+517076596
3208+515828752+515298202+514759753+514041972+513556133+513484421+513713718
3198+514202967+514681813+514308535+512430488+509489392+506550245+504350973
3188+503327868+503898989+505894085+508115278+509236887+508838904+507291791
3178+505291197+503667395+502893421+502531799+501682459+499957057+497657264
3168+495382418+493800648+493252213+493227405+492784607+491775350+491070861
3158+491246261+491677055+491326568+489933038+488140621+486796117+486300640
3148+486383243+486312296+485428858+483620957+481396146+479503033+478352093
3138+477826066+477639566+477644020+477777945+477954737+477988035+477575717
3128+476623281+475544574+474857378+474583682+474319312+473695268+472604766
3118+471243247+470070490+469512974+469557963+469703579+469376022+468490808
3108+467562728+467118503+467109422+467076958+466749157+466164118+465353435
3098+464332001+463302180+462473752+461879493+461605971+461763626+462020655
3088+461775074+461027439+460400124+460168391+459953290+459362545+458352906
3078+457094136+455944448+455330495+455293473+455408713+455324753+455062436
3068+454738079+454299457+453571376+452459336+451206377+450365910+450218902
3058+450357420+450200913+449688839+449094336+448516743+447885462+447108391
3048+446094089+444999133+444279891+444100454+444068374+443867643+443654421
3038+443565137+443399062+443058212+442757064+442490814+441797981+440468752
3028+439101110+438441436+438393837+438203614+437519723+436654587+435822644
3018+434779011+433379253+431995779+431087079+430657468+430399883+430191845
3008+430139340+430204093+430147273+429853222+429360494+428608371+427550123
2998+426435160+425598033+425099598+424833384+424724929+424631087+424320335
2988+423726702+423012331+422281885+421433415+420372906+419287414+418622834
2978+418674991+419157873+419380699+418956516+418084037+417097711+416110827
2968+415137896+414208320+413354248+412738624+412620322+412954282+413270671
2958+413107832+412348297+411148122+409823312+408749963+408134792+407863915
2948+407597039+407041889+406277970+405740217+405645158+405620837+405230474
2938+404571079+404019513+403733743+403632734+403503611+403034612+402129114
2928+401170727+400579077+400159070+399293655+397783319+396129977+394959308
2918+394492397+394567032+394812822+394810699+394419920+393902139+393547128
2908+393388360+393382131+393544449+393763099+393699111+393045214+391864802
2898+390598447+389657423+389075690+388675550+388423253+388399871+388543713
2888+388598445+388286719+387571165+386767128+386239883+385942596+385435324
2878+384454321+383328850+382636643+382463226+382298542+381779613+381151916
2868+380813015+380793182+380836154+380682465+380217329+379538901+378862248
2858+378282149+377703826+377031000+376343490+375816037+375470247+375145786
2848+374761269+374403509+374111616+373789417+373348532+372811893+372331064
2838+372085135+372036457+371912240+371518850+370859072+369976330+368995500
2828+368196265+367733738+367428484+367034086+366552596+366147759+365859067
2818+365533110+365084640+364712093+364640172+364687945+364410770+363725348
2808+363023678+362546572+362080949+361496954+361087906+361003773+360824371
2798+360129207+359103631+358234702+357713512+357362015+356969739+356572905
2788+356341242+356193921+355813440+355165597+354639952+354492840+354448616
2778+354008671+353000563+351738870+350697916+350105187+349887859+349863051
2768+349818861+349544922+348986919+348298783+347640084+347025817+346423972
2758+345871119+345437332+345156643+345022649+344964959+344801911+344335209
2748+343565932+342720802+342010954+341445053+340889346+340258760+339658447
2738+339295155+339181271+339032245+338573094+337834923+337064185+336471595
2728+336126849+335960843+335789549+335412513+334778135+334022358+333305795
2718+332684918+332151062+331654749+331107080+330531992+330163377+330198415
2708+330524686+330807080+330747998+330262855+329552451+328933522+328469186
2698+327902310+327062921+326177604+325630039+325499663+325489572+325330491
2688+325101541+325020052+325055334+324956273+324584248+324041032+323505819
2678+323067405+322698129+322322137+321885950+321370361+320791794+320236330
2668+319831180+319614722+319470220+319261730+319004944+318814304+318685355
2658+318434763+317923350+317268512+316736257+316453167+316312770+316136361
2648+315843459+315464091+315035768+314529574+313943526+313457095+313303442
2638+313411758+313401911+313053859+312550518+312170490+311996134+311973726
2628+311993976+311886634+311559077+311123899+310722333+310319966+309833048
2618+309314815+308876054+308578837+308490110+308619164+308759282+308662309
2608+308389449+308189866+308050966+307694633+307026434+306304304+305828869
2598+305649049+305599989+305519334+305379842+305246857+305159104+305083147
2588+304961470+304745047+304377823+303855171+303333041+303028831+302948907
2578+302897968+302783562+302667870+302542783+302361328+302221175+302193026
2568+302085267+301686623+301106664+300627645+300359795+300216475+300090866
2558+299917380+299664839+299369467+299106593+298895388+298709306+298574581
2548+298545806+298591909+298623676+298617378+298614038+298613238+298534636
2538+298298693+297948241+297654016+297531191+297482443+297315046+297003146
2528+296749005+296751649+296947961+297057112+296905999+296599213+296326422
2518+296161774+296106659+296152692+296237244+296273743+296264105+296282720
2508+296345838+296371308+296268141+296027466+295720054+295424021+295175795
2498+294994305+294909198+294919845+294956553+294934285+294826351+294658258
2488+294474507+294340930+294322314+294401403+294436789+294250081+293800184
2478+293290755+293044964+293199001+293540998+293721096+293598758+293306238
2468+293018625+292811005+292728785+292798130+292900705+292820434+292515875
2458+292215736+292147121+292250009+292248895+291985708+291608759+291395554
2448+291452096+291653662+291825948+291889431+291850652+291753296+291657124
2438+291606758+291596981+291589222+291549730+291447068+291263630+291049312
2428+290886298+290772258+290653156+290574276+290643883+290852460+291059889
2418+291157001+291173111+291238404+291439082+291700495+291848042+291782298
2408+291577096+291441675+291540631+291783289+291910656+291862848+291872712
2398+292119007+292481916+292720016+292761631+292749244+292831916+292967337
2388+292961248+292637031+291864866+290459158+288180432+284917485+280848239
2378+276351487+271747359+267174703+262671497+258234627+253846191+249600658
2368+245760205+242585358+240192210+238616599+237957030+238438328+240320115
2358+243748355+248756398+255477317+264182511+274450528+284244555+290787655
2348+292452410+289778103+285276010+281676563+279768297+278695958+277690703
2338+276617598+275602235+274648580+273623057+272568533+271774186+271453726
2328+271557136+271847881+272060077+272190227+272642906+273806478+275555888
2318+277404446+278995384+280278388+281382443+282482966+283705062+285029924
2308+286274811+287207171+287735460+287997325+288225300+288527319+288842124
2298+289086749+289257104+289391429+289526171+289679755+289809836+289846353
2288+289841760+289979651+290320744+290638264+290633079+290263246+289766760
2278+289386818+289149605+288912827+288572900+288177196+287839739+287598107
2268+287394819+287200264+287100020+287199568+287456354+287683807+287740087
2258+287660390+287587982+287608911+287667418+287652787+287558494+287485755
2248+287484276+287514078+287576291+287714270+287869889+287917941+287845794
2238+287750735+287704492+287728118+287810651+287887547+287896107+287858929
2228+287835564+287849830+287928153+288100230+288293950+288337391+288136695
2218+287795585+287510877+287388765+287409067+287523560+287687425+287809625
2208+287810425+287750874+287772777+287895237+287990662+287957468+287811817
2198+287631719+287497203+287454127+287480919+287536034+287637095+287807380
2188+287967906+287995620+287874917+287700178+287559085+287483789+287484520
2178+287568201+287722081+287891531+287985721+287939966+287791166+287659537
2168+287633668+287711329+287866949+288082694+288270864+288298039+288174448
2158+288093237+288210373+288491149+288789532+288970186+288979424+288891063
2148+288833269+288831146+288809434+288755311+288773300+288962844+289318203
2138+289746405+290127407+290361228+290423685+290402425+290414777+290462168
2128+290449694+290376085+290378156+290532505+290735428+290856792+290924451
2118+291067248+291322033+291583202+291738317+291787569+291814831+291886508
2108+292005228+292161665+292402897+292789432+293294791+293819426+294270227
2098+294551542+294581361+294437694+294380213+294590234+294948168+295156310
2088+295071063+294872176+294867444+295150743+295527465+295769011+295828405
2078+295806972+295831293+295978231+296237209+296518211+296718003+296813584
2068+296906834+297124440+297451093+297728094+297830843+297780425+297708226
2058+297757774+297952242+298145318+298209340+298248867+298491804+298978757
2048+299478931+299744867+299783176+299799878+299908472+300019015+300032481
2038+299995042+299997303+300043720+300092084+300153288+300288640+300515084
2028+300766615+300981055+301172287+301389302+301691425+302166304+302814565
2018+303391670+303565957+303298351+302884050+302602491+302525699+302630640
2008+302871663+303139617+303328239+303439096+303527509+303598282+303607989
1998+303555797+303640453+304245012+305461854+306676434+307077200+306586211
1988+305795257+305174171+304826606+304733843+304828276+304988645+305155242
1978+305341394+305527546+305651937+305681687+305704651+305990769+306763699
1968+307765092+308315684+308065301+307394737+306874138+306721911+306921493
1958+307425495+308048982+308493903+308647974+308667424+308745747+308961718
1948+309367703+310137189+311425778+312863427+313482635+312758869+311387539
1938+310388199+310043696+310093800+310352221+310791713+311340635+311839905
1928+312244498+312844777+313925259+315132393+315868267+316339110+317100732
1918+317694400+317132152+315670250+314627069+314732219+315591127+316340432
1908+316466633+316126862+315793667+315730341+315919068+316293494+316867538
1898+317695409+318647324+319328118+319664026+320273839+321482504+322444023
1888+322236507+321263854+320489775+320203380+320218446+320394995+320605050
1878+320742977+320877076+321229616+322283514+324783900+328860244+332844382
1868+334006561+331733525+328363618+326182510+325583657+325787624+326096462
1858+326304674+326462886+326666679+327012956+327658538+328792359+330526112
1848+333033387+336447900+339778802+340617877+338133393+334783180+333026011
1838+333071209+333775489+334451725+335731337+338531097+342218818+344630616
1828+344911549+344417116+343820699+342366104+340171773+338617353+338383393
1818+338854235+339320798+339957925+341375637+343473482+345144917+345444674
1808+344748396+344278111+345026059+347248573+350230205+352510862+353108809
1798+352647466+352855956+355146111+359270925+362453531+361623502+357855300
1788+354872346+354458637+355802201+357579413+359372664+360904643+361583210
1778+361776007+363211047+367356250+373573898+378463848+378812108+375604450
1768+371725357+368837985+367991881+369656983+372419791+373930022+374055562
1758+374223272+374541644+374896307+376849128+381709745+387764519+391163166
1748+390522768+388110240+386397085+386311560+387602271+389181779+389896602
1738+390551091+393751060+400105869+405023863+403548322+398281719+393463899
1728+390185468+388632091+388865668+390274612+392765916+397789060+406417149
1718+416030660+420255821+416758531+410276165+405261581+403239867+404471357
1708+408584375+413924221+418238283+421759581+427147165+434805385+440508210
1698+441375434+439064923+434396964+428571314+424970162+425283245+428473089
1688+433646337+441809568+452389990+458542259+455153146+448054182+443613502
1678+443594226+447057695+451273114+454144864+456840308+460575386+462724379
1668+460399011+456535228+455763167+458540728+461504092+461923752+461337599
1658+463257852+470224144+482960692+496895746+500537538+494937845+492101516
1648+494433982+496225529+492444175+486300849+482918382+483790408+488811603
1638+497441745+506656056+509781250+504857341+498861719+497087395+499461476
1628+503440464+507289494+511059505+514051227+514526906+513574748+514771896
1618+519284601+523615852+523706805+521307429+520277017+521543616+523742748
1608+525354093+526137218+526875911+528131201+529631864+530886458+532063077
1598+533813636+536295093+538813015+540602022+541666011+542528329+543471858
1588+544445067+545482264+546736093+548123673+549505024+551485820+555395045
1578+561568294+567115586+567803548+565410191+565544534+569599584+573726380
1568+573990229+571896594+570999620+573178711+580061391+593435727+609871653
1558+615780080+608196495+599336777+594434406+592901419+593503716+595362521
1548+598577416+604409434+613729695+625730752+638392561+647748034+647786030
1538+640675654+636058599+637694300+642596950+645756452+646698764+649398697
1528+655925357+664667677+673459197+682394419+691502849+698360755+701836612
1518+703995556+705669392+706141975+706491105+709288255+716147970+727091963
1508+739617307+745977301+740733245+731964202+727598018+728433161+732530174
1498+737146880+739372909+738593855+737889609+740603599+746884678+752928108
1488+754292341+751207369+747405764+745650578+746399082+748785237+752264503
1478+757298190+764438629+773100852+780633984+782792512+778691324+773452209
1468+771936271+774645947+778484991+780120205+780424172+783177341+790309360
1458+798922174+801352170+795202059+787319796+782599401+781645189+783236005
1448+785007615+784840739+782965998+781267110+780994806+782370451+785246376
1438+788773242+790838937+790154454+788521606+788073659+788736986+789170876
1428+788879714+788573381+788553130+788538308+789253966+792036293+795714029
1418+796263647+792654318+788404070+785966767+784981867+784392374+784211581
1408+785221811+787304416+788794745+788564543+788144570+789791754+793556963
1398+797497817+799944096+800426421+799243747+797682994+797406863+798677359
1388+799807910+799023845+797190022+797071720+800096636+805434012+811447936
1378+817216558+822655951+827494579+830823949+832369950+833240862+834325206
1368+835501755+837038292+839815887+843385202+845625149+845498774+844431828
1358+843931619+843837046+843282001+842258200+841677336+842135026+843218187
1348+844060429+844192092+843863630+843854026+844910186+846986946+848852849
1338+848874769+846751594+844075947+842817212+843690630+845993973+848537121
1328+850540046+851951878+853231142+854835736+856843185+858849032+860340892
1318+861405751+862764694+864875831+867477017+870130604+872555798+874556774
1308+876395398+878801455+881889628+884675714+886209118+886568270+886540990
1298+886769940+887075299+886536746+884654767+882227346+880557059+880040357
1288+879888374+878996027+876825740+873714324+870601933+868296224+866712576
1278+864961008+862552307+860199834+858894892+858687306+859035741+859839013
1268+861277567+862984597+864238391+864840479+865185991+865564767+865896500
1258+866202694+866986968+868812648+871429840+873700475+874843552+875427617
1248+876482385+878091642+879624490+880929920+882442726+884279819+886079682
1238+887755188+889664933+891915387+894086510+895847055+897408643+899131471
1228+901053672+903125282+905384574+907517562+908938580+909722088+910931275
1218+913568091+917384379+921011870+923246250+924119668+924725653+926181535
1208+928705546+931389752+933102768+933985441+935440627+938223789+941451559
1198+944035208+946161446+948649966+951569315+954000285+954899103+954260759
1188+953592143+954768136+958122906+962083662+964845878+965970584+966112129
1178+965956109+965996332+966769611+968682695+971395920+973919584+975744429
1168+977217848+978575399+979373521+979051948+977719449+976406643+976672892
1158+979655289+985011315+990769498+994750365+996402211+996714737+996736937
1148+997112511+998143897+999138470+998984608+998496577+999896717+1003003332
1138+1004818991+1003901315+1002551348+1003393520+1006098046+1008471327
1130+1009333610+1009463116+1010339387+1012810928+1016702721+1020695627
1121+1023165010+1023976424+1024294796+1024614281+1024669257+1024562646
1113+1024502033+1024558679+1025139960+1026415257+1028164041+1031239758
1104+1036608658+1042093632+1043625993+1040593839+1036416243+1033950339
1095+1033611507+1034999679+1037670663+1040570805+1042719520+1044619035
1087+1047022587+1048625024+1047541585+1044964547+1044555848+1047869909
1078+1052823220+1056718283+1057864283+1056229278+1053859338+1052479726
1070+1051883970+1051705543+1052410902+1053536164+1053297611+1051875619
1061+1052254186+1056280843+1062129562+1066051835+1065935899+1063377511
1053+1061917384+1062736174+1063672501+1063409661+1063339724+1064013559
1044+1064157261+1063537219+1063250301+1063836454+1065279183+1068012172
1035+1071615794+1073741823+1072419553+1068639660+1065301243+1064368396
1027+1065515440+1067061649+1067794287+1067472087+1066156985+1064194770
1018+1062501588+1061623438+1060865608+1059183352+1057005896+1056446118
1010+1058930672+1063066655+1066241397+1068099437+1070067497+1071975015
1001+1071923449+1069353996+1066508551+1066208690+1067993800+1067722610
993+1063103398+1057289891+1053874091+1051896148+1048898163+1045497811
984+1043333091+1041768719+1040045752+1039745126+1042104558+1045151325
975+1045824395+1043421609+1039426893+1035601419+1033132871+1032258688
967+1031970448+1030260495+1025616718+1018969390+1013353308+1010989214
958+1011288866+1011876480+1010764579+1007509600+1003383360+1000380086+999186696
948+998426987+996276115+992389820+987957038+984416533+982242070+980773314
938+979517989+979086186+980133578+982041583+983203240+982347081+979582638
928+976593421+975511374+976756608+978307967+977932253+975903998+974398638
918+974387434+974524595+973456187+971816380+971092997+971915893+973847906
908+975700588+976016594+974221532+971450131+969674972+969938925+971418746
898+972035726+970338021+967102388+964535996+963850122+964114075+963476357
888+961523815+960080181+960835366+962612960+962627783+959927710+955982751
878+953084279+952794299+954473494+955258811+953546144+951272029+950529996
868+950636468+950190121+949513781+949815660+951535843+953600563+953466464
858+949649620+944202223+940486561+939857611+941832492+945714264+950202786
848+953170848+953665629+952771474+951632920+949848924+946475016+942297419
838+940091432+941687537+945809253+949419835+950768479+950518375+949994296
828+949476550+948654003+948014823+948562492+950170427+951339183+950667783
818+948616633+947934517+951272029+957668974+962350190+961866613+958425830
808+956730838+958469462+961451511+962591805+960609131+956432647+952110165
798+949331595+948649340+949919905+952447187+954808985+956147191+956905160
788+957873985+959308294+960390550+959638635+956677045+953658392+953891656
778+958232092+964058473+968115123+969285132+968895152+968752007+968939689
768+967956251+964651793+959443298+954297224+951813087+953340229+957374541
758+960926807+962521798+962974060+963539336+964399949+964902524+964397652
748+963282411+962985890+964836275+968745326+972334683+972698149+970297241
738+968746231+969720832+971396755+972218051+972461614+971777688+969069543
728+965259031+963190135+964386727+967390906+969683253+970621320+971546721
718+973086041+973757927+972333291+970233845+969573093+969979983+969694318
708+969153399+970372816+972535936+971526818+965833493+959352692+955762361
698+955048721+955116571+954020327+951187756+947252331+943535625+941019060
688+939510360+938251625+936707086+934380500+931774513+930998659+932714110
678+934033458+932027192+927872282+924439014+920721334+912070942+897362575
668+886297706+891235776+906448528+917725437+919896072+915386743+909485553
658+906124867+904728972+902301899+898953043+897613167+899032514+901370304
648+902705100+901390555+897013653+892086926+889512253+888699309+887552335
638+886260545+885742869+885295547+883804731+882058105+881719273+882115655
628+881722614+880151422+877133812+872238539+866083278+860818902+858347083
618+858272831+858234348+857453137+858253346+861586962+864874509+866930809
608+870864007+879570976+891332297+899160350+897201754+887632780+876666241
##END=
