##TITLE=<SNM>
##JCAMP-DX=4.24
##DATA TYPE=INFRARED SPECTRUM
##DATE=3/5/2025
##SAMPLING PROCEDURE=Instrument type and / or accessory
##ORIGIN=Admin
##XUNITS=1/CM
##YUNITS=ABSORBANCE
##RESOLUTION=4
##FIRSTX=4497.3318
##LASTX=599.83466
##DELTAX=-1.4281778
##MAXY=1.7153554
##MINY=0.17414558
##XFACTOR=1
##YFACTOR=1.5975492e-09
##NPOINTS=2730
##FIRSTY=0.19974615
##XYDATA=(X++(Y..Y))
4497+125032860+124885476+124464470+123612812+122676759+122032656+121532748
4487+120864227+120283888+120581818+122077867+123925685+124916183+124776400
4477+124075391+123243051+122470098+122172662+122658085+123532605+124060150
4467+123957613+123595556+123644218+124558099+126041034+127025068+126648078
4457+125306362+124243678+124059991+124167678+123840095+123142714+122523703
4447+122092446+121674853+121127599+120381994+119566257+119123060+119432463
4437+120329723+121233904+121677996+121610288+121353156+121314625+121536041
4427+121525855+120812898+119642313+118700496+118126611+117389336+116302952
4417+115446462+115250053+115404647+115493072+115482242+115286104+114632609
4407+113753677+113432689+113942652+114622600+114889041+114904767+114848914
4397+114423486+113585735+112939889+112935095+113391154+113980550+114430099
4387+114306659+113407337+112241967+111553065+111587745+112077318+112535373
4377+112509779+111913974+111084637+110340731+109729564+109312699+109378812
4367+110188002+111560685+112775948+113034050+112162497+110782883+109751456
4357+109509733+109887386+110430331+110931974+111566273+112437117+113226747
4347+113490809+113197776+112831401+112818053+112891283+112472795+111758839
4337+111629616+112262338+112741847+112330961+111289870+110307030+109957762
4327+110572053+111751340+112298538+111457187+109924919+109007960+109128658
4317+109661184+109955989+110037708+110331543+111008944+111707958+111926548
4307+111720345+111774537+112535914+113580073+114227515+114424045+114482333
4297+114358501+113847484+113201684+112972143+113394988+114239258+115115429
4287+115744663+115998679+115876507+115546257+115228394+114882194+114278210
4277+113541541+113203848+113528082+114207097+114821994+115186430+115248299
4267+115064846+114887586+114940948+115097781+115041471+114780618+114703386
4257+115068315+115769791+116558824+117081948+116939433+116252527+115809731
4247+116145494+116937484+117712311+118465871+119161639+119376097+118955855
4237+118411585+118210895+118159742+117823262+117154190+116431849+115967963
4227+116094594+117006778+118353456+119369717+119692458+119712270+119892384
4217+120108484+120000826+119636801+119420020+119560698+119905778+120081639
4207+119807979+119388017+119562908+120427643+121071811+120865439+120395547
4197+120520825+121197891+121824177+122145641+122290329+122332275+122290329
4187+122291420+122353905+122230652+121762905+121180700+120865971+121009288
4177+121498134+121947151+122042963+122040016+122540997+123657957+124809606
4167+125407071+125366132+124985122+124618420+124407208+124189737+123731383
4157+123049495+122456265+122291775+122580209+122975920+123181480+123302467
4147+123553862+123819780+123852156+123662294+123347966+122888484+122491738
4137+122658589+123450345+124180344+124293608+124133119+124414969+125229811
4127+125870648+125623357+124593432+123617914+123428024+124085698+125122703
4117+125916120+126063737+125756396+125654530+126095628+126616737+126554094
4107+125936211+125468269+125700123+126445531+127066902+127189755+126990034
4097+126824769+126813735+126871789+126950093+127065661+127192991+127265307
4087+127226962+127081434+126983962+127183785+127714371+128227608+128302592
4077+127929100+127521954+127366408+127252631+126901245+126520953+126520123
4067+126828379+126980650+126786116+126480183+126284305+126226036+126351612
4057+126731363+127184820+127357678+127231234+127225516+127602366+128113132
4047+128485561+128893966+129582971+130288774+130471500+130006468+129255099
4037+128530426+127908766+127544797+127712272+128444669+129411214+130167274
4027+130433332+130273281+130018808+129851556+129602521+129172094+128898965
4017+129217491+130066341+130850580+130980689+130389894+129559717+129114972
4007+129392988+130264746+131251187+131869974+131942197+131583713+131051214
3997+130709100+130874701+131422515+131767316+131547270+131109008+131059954
3987+131587817+132384424+132952273+132921073+132380711+131910166+132012788
3977+132603490+133231203+133609434+133765073+133877703+134080483+134288757
3967+134334117+134354544+134729342+135497108+136202054+136416960+136076580
3957+135328877+134494233+134121860+134695586+136186495+137923232+138940071
3947+138793591+138097246+137789484+137979803+138017328+137590258+137079605
3937+136940289+137427120+138652559+140294547+141418866+141333203+140564560
3927+140194770+140442789+140560651+140156966+139943776+140662760+141896127
3917+142401613+141456652+139561535+137799297+136883317+136909779+137904931
3907+140346818+144576071+149541806+152999972+153765388+152459256+149873949
3897+146743487+144549702+144623595+146521371+147902869+147202316+146129997
3887+146857012+148587508+149204075+149145284+149912397+150276049+148501229
3878+146324000+146421557+148897433+152381101+155877790+158016803+157403388
3868+155444741+154706814+155081957+154492001+152296818+150017798+149350629
3858+151524882+157458458+166079151+171154960+167274099+159201005+152755610
3848+149602118+149499823+151574458+154797888+158533883+162439630+165537875
3838+166312432+164688848+162356671+160453411+158904521+157690545+157370015
3828+158079596+159333699+161447089+165317373+169601183+170759753+168879662
3818+167364389+166291576+163194356+158627028+155683059+156202229+159893237
3808+164342331+166863072+168297066+171200870+174774147+175765979+174281337
3798+172781212+171375779+169176520+167070013+166527674+167663187+169731507
3788+172248368+174929487+177363558+179693421+182878468+187236824+191464929
3778+194328308+196574951+199945392+205562402+213328079+221612254+228377462
3768+233603742+238811181+244766033+251853973+261096046+272828192+285269658
3758+296292410+306692493+319410278+336395455+356327754+373908885+385486082
3748+394529367+405251605+416666615+424187165+427969771+433464683+444139089
3738+459774799+476715130+489632542+496298095+499062247+500991625+503232579
3728+505680678+507718441+508180302+506639136+504568913+503875170+505035811
3718+507360488+510672949+515880089+523500780+532105746+539316212+544259794
3708+547311495+549487306+552524195+556950659+560842807+562708832+563983716
3698+566690896+571405880+577874734+585829759+594554081+601394581+602353897
3688+597595447+592454085+590431283+591287810+594080281+598821567+605847237
3678+613994931+618891801+616348935+609721923+605099879+603455961+601895804
3668+598486299+594664034+593036606+594800066+598860556+603558862+608272838
3658+612042907+613432109+613882031+617061109+624008017+631492712+634541465
3648+632201006+628037428+624814623+623310841+623586040+625507993+628957195
3638+633723778+638630946+642015863+644515562+649025303+655722158+659165055
3628+655926319+651624246+651495377+655548219+662126653+669474868+675136295
3618+678054463+680286500+683085575+684909290+684839744+684726695+686155595
3608+688195933+689499919+690197169+690718465+691170215+692186467+694719372
3598+698584693+702018263+703243823+702720960+702649026+704011739+705312666
3588+704173142+700922466+698668268+698731172+699606466+699615868+698665432
3578+697569636+696673224+695776813+695137244+695770843+698370384+702058930
3568+704664888+705131712+704468861+703552004+702362336+701496220+702553811
3558+706354959+711204893+713677206+711911844+707580669+703683336+701306536
3548+699804956+698468136+697020133+695699656+694990317+695160526+696076338
3538+697009836+696729488+694997481+693839750+695690627+700416467+705073210
3528+706924833+706032153+703882422+701221171+698569470+697005358+697147808
3518+698412097+699791002+700769719+701506592+702322265+702926315+702994144
3508+703543423+705633084+707824826+707429265+704386033+701585018+700955672
3498+701893498+703202558+704433641+705630995+706332499+705386614+702339950
3488+698504476+696242666+696905890+699363130+701034023+700763749+699856369
3478+699657506+699626464+698395755+695862178+693564625+693443741+695889788
3468+699210159+702329204+705860750+709160377+709801065+707412251+704485576
3458+703004516+703102269+704178440+705071643+704185529+701351905+698215398
3448+695829271+694095398+693794231+696071488+699880023+702220334+701308028
3438+698278974+695531611+694831227+696422426+698915409+700536904+700544739
3428+699226351+697341597+695662271+694323437+693126307+692559269+693467619
3418+695861507+698842729+701381678+702562840+701702694+698802509+694785485
3408+691286847+689812130+690517439+691763669+691807397+691241403+692296308
3398+695330958+697929155+698337999+697574859+696948125+696080069+694335078
3388+692239820+691206481+692607026+695988212+698437468+697786183+695412816
3378+693905639+693943024+694843838+695987689+696944021+697731114+698543204
3368+698832730+698025788+696845298+696415487+696481301+695787708+694082116
3358+692560687+692222881+692748058+693508810+694723998+696763888+699286420
3348+701757988+703892346+705124250+704607729+702261375+699372159+697782303
3338+698423514+700398633+701291164+699237395+695373044+692964531+693519406
3328+695387893+696929992+698625734+700350205+699843758+696318704+692451144
3318+690848454+691328336+692624636+694432830+696599724+698117497+698364788
3308+698162418+698355833+698369787+697262649+695465349+694405594+694536552
3298+694726013+693901983+692237134+690318725+688278761+686746437+687315863
3288+690537661+694274039+695729952+694970841+694655870+696309601+698460824
3278+698925856+697583440+696051340+695913442+697637242+700219396+701667324
3268+700662564+697985717+695706745+695180524+695859119+695900832+694292171
3258+692014318+690803085+691405642+693207046+694922786+695710327+695997166
3248+696788886+698052726+698680431+698163313+697202057+696396458+695334913
3238+693417251+690890241+688515531+686804939+686167385+687236244+690039049
3228+693053478+694238146+693097280+690793981+688476877+686775838+686318043
3218+687183935+688251674+688293088+687613747+687433166+687878051+687906034
3208+687094988+686153133+685609376+685176356+684337103+682912008+681249473
3198+680042642+679642155+679429563+678439727+676971129+676481099+677156634
3188+677218793+675741464+674151832+673672025+673552931+672894036+672070230
3178+671388500+670156000+668145287+666755114+667434232+669348387+669928483
3168+668187447+666071967+665590817+666401489+667166495+667379461+667091875
3158+666354180+665655885+665887282+667018001+667441246+665644842+662199557
3148+659073198+657308358+656295763+655200191+654142899+653525119+653128438
3138+652438351+651508510+651002213+651083027+651068699+650681421+650483379
3128+650548373+649974470+648200526+645861037+643941435+642748409+642084588
3118+641876025+642135852+642589841+642846534+642839744+642691399+642223456
3108+640982225+638797572+636201539+634221121+633481487+633474473+633193752
3098+632432179+631702394+631029619+629943524+628684832+628251737+629031890
3088+630145670+630228200+628484775+625385616+622658065+621877091+622690039
3078+623219842+622518600+621495334+621090557+620915200+620333387+619754634
3068+619941893+620704473+621115406+620624965+619260014+617250196+615149566
3058+613800583+613513744+613607989+613123966+611657121+609510412+607565365
3048+606903895+607906304+609539701+609955671+608328430+605958122+604843037
3038+605314039+605854662+605112527+603164644+600863435+598916671+597516387
3028+596338434+595185815+594569602+595022471+596223445+597407293+598008880
3018+597532468+595697858+593105070+590902845+589655047+589043610+588528395
3008+587855882+587006892+586072946+585238731+584650575+584254753+583857289
2998+583338791+582695827+581827435+580465245+578561276+576548324+574854373
2988+573482333+572488804+572347884+573239631+574412324+574842359+574273194
2978+573168220+571917848+570538533+569017402+567583950+566542365+565972454
2968+565713970+565539135+565171668+564276451+562752335+561015851+559669555
2958+558718895+557460501+555632271+554186581+554100022+554948863+555456802
2948+554998635+553982607+553154623+552910876+553054856+553153914+553114850
2938+553008778+552460357+550943069+548623317+546215214+544208568+542796457
2928+542134912+542133382+542289973+542115399+541438520+540221205+538535723
2918+536769876+535397575+534516759+533905658+533373467+532757254+531797826
2908+530437502+529081505+528185019+527677715+527087843+526129870+524902369
2898+523693859+522868150+522706038+523036269+523185696+522573811+521269079
2888+519771864+518429560+517326414+516497198+515860837+515099712+514035854
2878+513003186+512409620+512100805+511569137+510585681+509285873+507904543
2868+506730060+506075231+506047547+506401956+506677901+506588655+506286854
2858+506006096+505458832+504078323+501939412+499842923+498340858+497263455
2848+496293692+495441419+494803865+494368419+494150342+494092959+493864248
2838+493155693+492103997+491094947+490299012+489614932+488830451+487751966
2828+486384292+484912373+483487875+482275858+481588831+481531858+481564579
2818+480904340+479448577+477899986+476920000+476513320+476287557+475987995
2808+475615603+475195529+474644087+473875052+472924056+471884187+470758319
2798+469544474+468445208+467706543+467198530+466442740+465192331+463808240
2788+462885973+462528878+462189245+461343016+460064549+458761011+457660401
2778+456732612+455801652+454675746+453412540+452304655+451439249+450638015
2768+449912074+449483530+449298771+448958764+448130108+446775007+445140715
2758+443651596+442597139+441851423+440999262+439740309+438213320+436968918
2748+436446092+436398074+436090639+435127518+433763164+432423434+431286298
2738+430325453+429460195+428615570+427740463+426788310+425716467+424519561
2728+423189719+421733470+420394188+419611311+419428828+419203065+418326764
2718+417022703+415964813+415352779+414814395+414034652+413064778+412080762
2708+411156779+410292417+409478685+408698009+407930765+407159044+406345051
2698+405453490+404525439+403669771+402941553+402285045+401607681+400841221
2688+399942981+398941169+397973160+397170919+396486951+395727132+394791956
2678+393861667+393271496+393104646+392993872+392519624+391654329+390564354
2668+389275627+387896312+386811932+386287017+386153783+386062560+385764900
2658+385152418+384315330+383506747+382867476+382301184+381652325+380860830
2648+379990349+379180945+378478135+377734583+376814853+375829681+375026508
2638+374479990+374001526+373414527+372838497+372499087+372315671+372014504
2628+371583349+371192638+370743015+369932976+368743047+367534649+366697523
2618+366348525+366302410+366228536+365864166+365175385+364405753+363910835
2608+363799241+363789764+363545682+363020916+362361946+361645817+360858351
2598+360039171+359345577+358923563+358710374+358489685+358164005+357774563
2588+357274235+356572135+355813024+355328777+355272178+355445408+355505813
2578+355293519+354944073+354648205+354356477+353866335+353165690+352489370
2568+352021166+351719440+351483976+351346936+351417788+351712202+352076684
2558+352250026+352050567+351581206+351159230+350964061+350871494+350687892
2548+350381800+350026534+349693915+349457929+349333462+349158814+348732024
2538+348146928+347774275+347781140+347904338+347838747+347612834+347438858
2528+347414158+347501800+347654137+347848597+348014179+347975003+347592575
2518+346987555+346460514+346183449+346135431+346250309+346406899+346372462
2508+345971229+345271927+344512108+343896865+343508505+343333595+343294457
2498+343256401+343087312+342768758+342376369+341917679+341336911+340729652
2488+340341068+340249472+340244174+340108738+339848762+339581249+339373059
2478+339237959+339141214+338978393+338662228+338236408+337833422+337540650
2468+337369583+337320558+337384657+337475992+337471253+337352085+337190532
2458+336965665+336575514+336083655+335741634+335676229+335726523+335670857
2448+335477180+335240821+334986628+334668821+334319039+334028020+333787072
2438+333536349+333362111+333410427+333576755+333521462+333068742+332414920
2428+331886013+331619731+331528844+331478774+331433517+331458067+331606785
2418+331833481+332045364+332214565+332347688+332376342+332221617+331976154
2408+331863590+331965969+332101068+332043200+331820124+331719834+331955447
2398+332352986+332491294+332202216+331774904+331582869+331689688+331888476
2388+331900639+331429599+330221164+328192915+325420591+322014781+318089651
2378+313766908+309132086+304276033+299396401+294736300+290429060+286517661
2368+283100862+280325796+278209029+276640272+275731567+276041576+278221715
2358+282466778+288429670+295724439+304401712+314326708+324016577+331098286
2348+333988994+332904540+329784263+326803675+324434114+321815619+318511479
2338+314802897+310944739+306913052+302783034+299025632+296277933+294868229
2328+294617766+294982043+295367605+295565834+295936117+297006860+298946143
2318+301433809+303826391+305524110+306478558+307268206+308486678+310223517
2308+312204737+314109564+315642895+316621724+317151378+317536865+317964924
2298+318403205+318784551+319138474+319539818+320033878+320608863+321171760
2288+321570045+321700555+321590379+321353311+321106020+320946556+320950064
2278+321122809+321374465+321568142+321600676+321459794+321226419+320985844
2268+320722099+320383361+320053018+319905904+319960340+320034064+319982950
2258+319831620+319657755+319514485+319465086+319507209+319478443+319266746
2248+319081912+319241077+319725995+320230838+320578045+320817314+320998567
2238+321103520+321180490+321387151+321819425+322324864+322647858+322805418
2228+323085281+323620531+324256667+324889557+325656764+326713198+327975696
2218+329182974+330224074+331306663+332672509+334297660+336055337+337954120
2208+340010613+342107848+344144865+346168264+348276095+350492536+352774195
2198+355081971+357420565+359810908+362237032+364652112+367061334+369519245
2188+371953167+374127634+375949857+377615079+379274593+380824714+382148549
2178+383295646+384378086+385446384+386382419+386912557+386912035+386606727
2168+386320559+386156357+385984768+385634763+385073843+384390958+383656472
2158+382926986+382297938+381837420+381569534+381438912+381218185+380722484
2148+380018294+379203965+378655432+379663177+383582038+390106522+397565585
2138+404837538+411804780+418445745+424734952+430923309+437210389+443562238
2128+449906402+456179192+462315316+468180605+473426025+477695974+480865650
2118+482790438+483273454+482514903+481152004+479863278+479235909+479866113
2108+482407861+487512659+495564206+506280138+518446051+529998736+538503189
2098+541788302+538778612+530447837+519349626+507509393+495506973+483465638
2088+471493402+459360285+446946745+434549249+422370427+410657608+400151172
2078+391481360+384609035+379230940+375014643+371487873+368345098+365605048
2068+363280743+361292229+359527539+357781689+356004947+354431582+353147669
2058+352027360+351125912+350535853+350151970+349990343+350224016+350828439
2048+351706232+352974737+354916762+357984022+362731166+369500926+378507125
2038+390125998+404542117+421315150+439629796+458518570+476625250+492112728
2028+502944918+507710046+506723867+501786665+494670407+486404215+477503454
2018+468179075+458647103+449349065+440595977+432282066+424145266+416034024
2008+407960762+400119159+392761505+386002938+379831856+374232475+369198976
1998+364720389+360847046+357699607+355244009+353069877+350666998+347981831
1988+345405572+343282630+341698781+340557280+339655757+338817661+337995049
1978+337206874+336500782+335943519+335503894+335098409+334819926+334809293
1968+334876488+334618825+333957169+333218952+332684672+332362164+332201619
1958+332212737+332260121+332046521+331488586+330865882+330468567+330330259
1948+330406446+330809021+331631782+332484839+332519650+331366396+329742849
1938+328640300+328359952+328567844+328841811+328997245+329083618+329167453
1928+329259758+329539621+330229148+331101793+331731736+332233892+332848575
1918+333032290+332121178+330634074+329737327+329887239+330637283+331269353
1908+331393819+331141379+330842078+330594936+330291008+329946002+329816872
1898+330152439+330812789+331305581+331506719+331964103+332916181+333568808
1888+333144854+332073011+331253906+330937032+330846443+330728693+330496214
1878+330199711+329976447+330006855+330678063+332561362+335677573+338653721
1868+339370372+337331378+334294750+332099128+331227416+331166936+331283941
1858+331317520+331355352+331533732+331855083+332320377+333033894+334152785
1848+335963144+338615776+341133869+341480144+339253293+336650022+335494753
1838+335690556+336224053+336629576+337517294+339614193+342320665+343899663
1828+343786912+343114026+342413455+341173157+339570317+338628238+338753600
1818+339399773+340020351+340757523+342040205+343725537+344948449+345062767
1808+344485506+344235902+345045791+347037588+349664290+351816297+352607307
1798+352404415+352678607+354697566+358207845+360913383+360541178+358123226
1788+356515573+356930647+358630903+360616097+362618565+364422132+365553597
1778+366308603+368071093+372036629+377681901+382257606+383284491+381646841
1768+379548747+378130928+378186296+380209807+383191178+385249051+386178445
1758+387130000+388349778+389768567+392401948+397092717+402502861+405739882
1748+405770737+404328890+403367149+403708237+405262201+407234000+408705285
1738+410231825+413749641+419604782+424179218+423845331+420770012+418153123
1728+416749780+416752802+418310459+420897053+424262681+429440272+437298403
1718+445923405+450567462+449341528+445622425+442915282+442697168+445360359
1708+450566268+456814545+462177380+466852031+472965172+480738982+486915549
1698+489631982+490298153+489212132+487031919+486566439+489375998+494594145
1688+501381403+510599001+521875330+529634179+529769801+527181342+527156083
1678+531002152+537685688+544716357+550225970+555333045+561602365+567447283
1668+570205839+571343982+574362851+579804335+584950063+587746377+589946066
1658+594671682+603794363+617651578+632385168+638302916+636035435+636076849
1648+641203847+646760657+647358215+644562199+643083229+645005070+650416967
1638+658297821+665587160+667406921+663316545+658852472+657678623+659527112
1628+662352976+664745072+666856896+668732398+669827448+670983985+674006024
1618+678582625+681079637+678659931+673736422+669525012+666489019+663683676
1608+660396810+656840191+653988510+652904951+653991270+656683116+659986623
1598+663254909+666143528+668089172+668478988+667355433+665468290+663585924
1588+661987859+660550005+659121253+657755407+656829222+657161282+659630461
1578+664034092+667968735+668695386+667924710+669575754+674463222+680002347
1568+683685894+686448330+690321785+696172076+705225808+719907985+739795362
1558+755187401+760371782+763630740+770330506+779947545+790633443+800894901
1548+809930053+818474577+827939093+838361432+848109430+853656912+850637260
1538+842166311+836231401+834943011+835254027+833878405+831797176+832310040
1528+836275875+841854847+847466801+853254560+858327832+860055511+858905243
1518+858433942+859642937+860809100+861075941+861593954+864333482+870835206
1508+879854464+884428229+879151020+870778421+866335316+866568429+869573455
1498+872524829+872951283+871303597+870814089+873668905+878688077+881733995
1488+879801484+874925582+871120703+870251901+871705799+873777552+875415985
1478+877156574+880244130+884885128+889001247+889299280+885641178+881873385
1468+880859821+882346029+883954689+883758886+883187893+885492162+892057314
1458+900066513+902658592+897569202+890527303+885758407+883946183+884217427
1448+884602765+883349670+880859298+878835526+878038658+878327886+879934531
1438+882977763+885655207+885429033+883197146+882034863+883068725+884912737
1428+885956374+886294030+886814057+888057974+890539541+894270397+896904412
1418+894789827+888467937+882284841+878687853+877168215+876338365+875706705
1408+875648278+876061897+876003320+875133623+874554720+875340992+877222165
1398+878995064+879460992+877862779+874491741+871013325+868906501+868016581
1388+867082337+865188703+862939429+862112265+864042837+868413635+873468923
1378+877647500+880760128+883245575+885155551+886600196+888273552+890596028
1368+893195569+895626468+897772691+899398663+900296418+900938001+901841502
1358+902715825+903223391+903788191+904950026+906541225+908012734+909164047
1348+910282080+911679342+913215471+914524606+915643012+916922449+918432834
1338+919982918+921534419+923128379+924762709+926610228+928924794+931566047
1328+933695780+934263191+933337678+932707213+934316545+938017179+941505893
1318+942698696+941754602+940563740+940852967+942983670+945798564+947234777
1308+945890645+942742572+940531877+940882218+942878754+944652026+945370543
1298+945443820+945668650+946423806+947175976+946834216+944932672+942221724
1288+939812614+938011359+936270397+934067612+931419867+928549754+925674342
1278+923195463+921358838+919706749+917606790+915226707+913338818+912356594
1268+912212577+912826253+913847578+914209336+912846624+909774813+905722344
1258+901225587+896855312+893493900+891415282+889559256+886516099+882118139
1248+877562955+874041408+871701024+869996626+868592648+867774961+868239546
1238+870422184+873502129+875339052+874554571+872533112+872110763+874438387
1228+877937847+880272933+880755502+880443217+880540148+881486853+883133868
1218+885031905+886713469+888108418+889649621+891891806+894961155+898250409
1208+900960462+903220257+906045673+909650869+912725516+914257019+915005309
1198+916220124+918043765+920108429+922679987+926139375+929930226+932932939
1188+934710315+935898864+937542148+940289511+943912018+947341932+949467933
1178+950222118+950774307+952365133+954992507+957548022+959044827+959323533
1168+958962073+959006845+960363737+963058866+966382147+969736544+972712693
1158+974515440+974515664+973694320+974340829+977422341+981097829+982780810
1148+981997001+980478407+980447738+983168163+987687605+991177512+992013481
1138+991449055+991219300+991537405+992182048+993525359+995834105+998979567
1128+1002797579+1006696554+1009374222+1009746800+1008331854+1007135320
1120+1007576698+1009338553+1011567083+1014151476+1017204035+1020137724
1111+1022118963+1023115589+1024117588+1026158597+1028650013+1029500980
1103+1027762854+1024901099+1022886057+1022517285+1023688149+1025934886
1094+1028739632+1032224689+1037047685+1042993564+1048191153+1050698761
1085+1050563177+1049320677+1048481574+1049204792+1051528239+1053510074
1077+1053225025+1051011121+1048107280+1045378049+1044151743+1045514754
1068+1048545225+1051197746+1052802675+1054435512+1057185413+1060966786
1060+1064844942+1066963333+1065651810+1061908865+1058723930+1058022949
1051+1059760702+1063239043+1067235547+1069549516+1068802345+1066308765
1043+1064778158+1065632558+1068131660+1069951122+1068496179+1063174497
1034+1056611882+1052629407+1052934604+1056324819+1060781206+1065352135
1025+1069636299+1072658861+1073741823+1073611909+1073339322+1073213140
1017+1072633565+1070353996+1065814258+1060468548+1056523681+1054724740
1008+1054566023+1055460345+1056457046+1056215500+1054491254+1052602917
1000+1051697626+1051424069+1050729430+1049370598+1048112876+1047669857
991+1047499051+1046004336+1042774554+1039865638+1039316509+1040226277
983+1040051293+1038431739+1037431307+1037534730+1036142767+1031208736
974+1024288318+1018300876+1013944330+1009880295+1005421222+1001235855+997717890
964+994442291+991079163+987738794+984524533+981469287+978658348+975941430
954+972921331+969551412+966405204+964175332+962961039+962096640+960883541
944+959197425+957260585+955330387+953752246+952902920+952917844+953559130
934+954300555+954691788+954881025+955475075+956391858+956545874+955340162
924+953537042+952007404+950624843+948905969+946874884+944926180+943527800
914+943121866+943604584+944067527+943790761+943302969+943508622+944155877
904+944289148+943756436+943199844+942808163+941834819+939586515+936567982
894+934254684+933907552+935544642+937670121+938404532+937270605+935342198
884+933650187+932636025+932951817+934848661+936887133+937218744+935920578
874+934333259+932978009+931788042+931055273+930787984+930350337+929308640
864+927745797+926080201+925276692+926142658+927944137+929199769+929869261
854+930976996+932418881+932901673+931709617+929524292+927963986+928426481
844+930771567+933190676+933766072+932031229+928898379+925578829+922681629
834+920255281+918804965+919434833+922146080+924998881+926327343+926982358
824+928819878+931938178+934865152+936668570+937569160+938262754+939562114
814+941772287+944023202+944891557+943900825+942067036+940554636+939182671
804+937064505+934455338+932663112+932348141+933246567+935112890+937938082
794+941355683+944332055+945667083+945300922+944937373+946147861+948046644
784+948393702+946732733+944678218+943558170+943237080+942668549+941213681
774+939565173+938998732+939866266+941331058+942314850+942149268+940703727
764+938621155+937192329+937338957+938449976+938853298+938205521+938321406
754+940527549+943772180+946492382+948441310+949355481+947966054+944004921
744+939896412+938741069+940836625+943628089+945191007+945763045+945819159
734+945268015+945037290+946323442+947821664+947396852+945749539+944922599
724+944875961+943925226+941904663+940571127+940975643+942634970+945058183
714+948419670+952375879+955415081+956140164+954645598+951899578+948028884
704+942282912+935082968+928951135+925474808+923161436+920377509+917982875
694+917423000+918153158+918221734+916614939+914195830+912515684+911927304
684+911408322+910449826+909538491+908381581+905502737+900316640+894396430
674+889799235+886314849+880929441+871681846+863897402+866781917+877135233
664+884584632+885840638+883111631+878350048+872250377+866820869+864582191
654+865094607+865410026+864321468+863856883+865655004+867925022+867335374
644+863385657+859319608+857968760+858658175+858262092+854346327+847729091
634+841868055+839184044+838873475+838555370+837323392+836279382+835772488
624+834485291+831701886+828877739+827677624+826890382+824135631+819533959
614+815276136+813160656+813259154+814325625+815809072+819197348+824515299
604+828150268+827941331+826484001+826086425
##END=
