##TITLE=<SNM>
##JCAMP-DX=4.24
##DATA TYPE=INFRARED SPECTRUM
##DATE=3/5/2025
##SAMPLING PROCEDURE=Instrument type and / or accessory
##ORIGIN=Admin
##XUNITS=1/CM
##YUNITS=ABSORBANCE
##RESOLUTION=4
##FIRSTX=4497.3318
##LASTX=599.83466
##DELTAX=-1.4281778
##MAXY=1.7229933
##MINY=0.17627801
##XFACTOR=1
##YFACTOR=1.6046625e-09
##NPOINTS=2730
##FIRSTY=0.19552018
##XYDATA=(X++(Y..Y))
4497+121845046+121819295+122513817+123202581+123534673+123586824+123455239
4487+123260137+123310811+123835888+124511698+124654891+124042422+123188995
4477+122674217+122560396+122644975+122901152+123374784+123941490+124371913
4467+124433787+124040815+123571947+123650555+124242018+124491556+123844914
4457+122809739+122257454+122389828+122681191+122692288+122684088+123190676
4447+124044641+124295711+123283259+121468018+119990886+119585917+120057171
4437+120684266+120904691+120597050+119993022+119422499+118998669+118650558
4427+118535401+118982390+119817254+120238177+119648180+118283049+116867865
4417+115942360+115583273+115565425+115688773+115840574+115730087+115011821
4407+113895095+113142860+113204789+113809160+114550521+115261136+115683183
4397+115502957+114891834+114466983+114573375+114952910+115137732+114878295
4387+114216424+113370250+112535888+111774617+111160848+110887399+110990336
4377+111180145+111222035+111224226+111245956+111056398+110712327+110853922
4367+111866198+113128819+113597297+112924811+111691460+110749285+110622316
4357+111314358+112359962+113130806+113347768+113272225+113262484+113331777
4347+113301272+113065757+112556085+111842908+111342959+111465230+112017163
4337+112314469+111918061+111088927+110505570+110554861+110936522+111119404
4327+111078889+111187026+111428392+111277315+110545343+109853635+109871724
4317+110517846+111360510+112268549+113152879+113672691+113697067+113519256
4307+113356516+113217901+113310493+113917651+114842293+115481822+115450434
4297+114808435+113852833+112989675+112647006+113028426+113891631+114670452
4287+114916573+114617725+114071457+113557933+113247487+113247728+113477004
4277+113620688+113472073+113182799+113007189+113044268+113316994+113787199
4267+114306918+114852080+115564487+116245330+116286728+115524259+114650292
4257+114443833+115049207+116079563+116941235+117194581+117037747+117113457
4247+117581219+117913413+117751973+117328459+116980804+116862693+117113782
4237+117789443+118619004+119147768+119079087+118432352+117582343+117143516
4227+117498684+118299151+118712609+118389134+117884283+117844361+118149217
4217+118266315+118126977+118092785+118304472+118566602+118697333+118660736
4207+118551196+118638459+119148845+119872265+120299707+120268970+120176600
4197+120419071+120858149+121021948+120699606+120172607+119881412+119948346
4187+120106091+120095179+119957512+119809871+119594349+119319292+119293950
4177+119845242+120956945+122280669+123381247+124019411+124238211+124089521
4167+123528154+122761971+122242651+122094416+122085632+122208209+122643526
4157+123206574+123440010+123213232+122843671+122682974+122760039+122846744
4147+122840745+122888216+123017043+122999400+122712364+122275701+121883082
4137+121821041+122368906+123356332+124207019+124676732+125120796+125835413
4127+126540057+126715528+126217994+125407609+124767653+124490126+124443519
4117+124459519+124556773+124888131+125497489+126106690+126229639+125657741
4107+124800878+124387886+124856270+126072628+127466593+128393724+128639547
4097+128544308+128383147+127892131+126814481+125581864+124930588+125079668
4087+125707273+126499606+127292106+127836062+127913815+127665447+127433581
4077+127366089+127451066+127670898+127838392+127655910+127149619+126628489
4067+126172603+125655503+125203898+125101435+125342392+125720088+126167616
4057+126639409+126864905+126616825+126113144+125841867+126034183+126486661
4047+126840696+126904139+126701979+126318080+125876969+125689899+126036468
4037+126638741+126847196+126574796+126493533+127117749+128183810+129011792
4027+129142495+128702944+128341229+128630484+129514731+130483343+131109138
4017+131289178+131147406+130794755+130178292+129266911+128313909+127738158
4007+127775924+128345974+129179565+130005932+130655796+131031877+131031255
3997+130607778+129906979+129192566+128603637+128128743+127835727+127968269
3987+128724460+129972790+131207859+131829503+131615633+130962277+130566250
3977+130873808+131793277+132739788+133018132+132478615+131733270+131495080
3967+131926218+132733650+133478141+133711790+133321093+132794967+132735944
3957+133175291+133636293+133736194+133605816+133746344+134390051+135067737
3947+135152780+134701463+134229716+133944631+133766652+133787203+134124764
3937+134642663+135239550+136058283+137044752+137643487+137385898+136542733
3927+135774934+135410703+135291004+135192710+135250219+135777126+136707172
3917+137432050+137363788+136597298+135811624+135570648+135861166+136368859
3907+137120082+138391209+139906934+140892493+141282429+141680712+141922199
3897+141305208+140177013+139744946+140443127+141285521+141286013+141100401
3887+141722398+142626935+142710827+142397474+142793056+143463470+143206141
3878+142255981+141786129+142316378+143682642+145431803+146632913+146525472
3868+145798885+145525742+145571096+145219429+144411198+143614287+143262035
3858+143966233+146456652+150444029+153195632+152206191+149180851+146474277
3848+144905500+144674331+145673206+147380923+149272905+151141643+152594891
3838+152924624+152274815+151743480+151751902+151712538+151256736+150868992
3828+150995535+151506562+152460892+154267106+156368306+157121116+156493186
3818+156075346+156005607+155124647+153502344+152453723+152842126+154542738
3808+156476471+157571235+158375269+160115236+162488390+164053870+164642112
3798+164969653+164952660+164526462+164505549+165514547+167251970+169215102
3788+171406229+174043890+177030302+180158216+183489610+186923931+189939520
3778+192498639+195435815+199525647+205045622+211858027+219085319+225543420
3768+231281806+237317256+244068205+251687151+260958737+272413129+285108208
3758+297507189+309467175+322125667+336527729+352805968+369190590+382887089
3748+394120526+405529471+417824948+428131366+434946780+441113276+448958414
3738+458502921+469271269+480854200+491602082+499282261+503207894+504215109
3728+503476376+502262822+501991629+503320888+505426248+507099652+508073696
3718+508721982+509483782+511258145+515064916+520405426+525432919+529789282
3708+534587146+540175263+546232629+552442065+558120295+562259101+564468577
3698+565743159+568192292+573085433+579191198+584231171+587387427+589215353
3688+589996840+589184152+586745605+584370129+584463845+587749773+592231983
3678+594910781+593966898+590614073+588547901+588621559+587900024+584861516
3668+582215070+582389093+584984093+588603283+591932968+593709560+593499210
3658+592527505+592844647+595575373+600693536+607613401+613992031+616023101
3648+613739038+611897889+612904509+615182925+616667338+617046325+617294637
3638+618341856+620673835+624277684+628511581+632622232+636418639+639637076
3628+640954374+639924130+638314800+638493095+642314240+649807507+657855640
3618+662751010+664864689+666949768+669631761+671794843+673604011+676107189
3608+678789925+680165689+679999950+679157658+678295976+677608131+677201397
3598+677653076+680062650+684742952+689986069+693240907+693780545+693242319
3588+693544528+694638066+694979797+694478047+694651661+695605908+695000598
3578+691144537+685719262+682120910+682304108+685569569+689212123+690529570
3568+689556380+689007456+690325497+692044478+692722145+693024279+694118115
3558+695573146+696346052+696735700+697694701+699204631+700413021+700170838
3548+697433425+692550685+688063759+686794748+689308476+693870063+697422653
3538+697237598+693409395+688997873+686661696+686817332+688950105+692148037
3528+694446029+694316319+692989958+693016702+694989975+697477256+698950116
3518+698317617+695362387+691678528+689250902+688060564+686883821+685756035
3508+685573803+686204668+686798017+687043692+686971854+686184610+684553217
3498+683325586+684178947+687190339+690655639+693042183+694213949+694679520
3488+694531610+693637464+692742352+693401892+695978320+698338863+697871063
3478+694786645+691910088+691152486+691462198+690402906+686979060+682330035
3468+678513718+677319517+679229273+682848723+686140705+688462321+690140517
3458+690661953+689367982+687424722+686852323+687759247+688351630+687523304
3448+686083205+685275978+685142777+685065590+685398258+687067836+689403789
3438+689989115+687531699+683780385+681652962+682182496+684088686+685354501
3428+684579069+681999224+679734588+680196742+683604245+687606359+689875378
3418+690069199+688666022+685811752+682202405+679507932+678945487+680182925
3408+682091120+683746435+684393346+683467701+681323488+679367302+678912874
3398+679745360+680246368+679224072+677162766+675487468+674978438+675271063
3388+675518224+675471496+675757881+676701876+677670163+678034775+677739400
3378+676992272+676663096+678068650+681007610+683255382+683307979+682222389
3368+681877613+683084443+685114695+685783151+683168761+678402581+675130285
3358+675517629+678391660+681389606+683455443+684587464+684344538+682309976
3348+679652647+678393889+679084631+680479636+681311825+681218221+680182925
3338+678539719+677507840+678304668+680499323+682199805+682163849+680791354
3328+678895713+676976969+675752607+675784774+676493940+676797114+676461921
3318+675748075+674706464+673746795+673851023+675524390+678045101+679919197
3308+679895871+678011373+675847697+675205243+676327532+677738954+677821787
3298+676403307+674643393+673428019+672816247+673272086+675708627+679546414
3288+682527718+683555065+683990029+685173458+686242259+685736646+683888773
3278+681962748+680906354+681047652+682038597+682930218+682779188+681561140
3268+680369985+680747301+683198922+685696232+684994495+680699755+676142105
3258+674206126+674518512+675110153+675122187+675042772+675198185+675337626
3248+675462061+676027328+677153035+678078159+677876464+676643187+675579587
3238+675630103+676099018+675247142+672535136+669516241+668056233+668185793
3228+668156003+666746661+664913943+664495471+666037272+668484585+670416405
3218+670905080+669792671+667887522+666016917+663962891+661560820+660184833
3208+661219387+663381874+663439152+660209869+656394369+655464861+658013728
3198+661720617+663995356+663873298+661960274+659822822+658921766+659322037
3188+660020060+660304439+659831811+658021008+654836448+651584433+649602543
3178+649058745+649532785+650565629+651297528+650721860+648989730+647467319
3168+646981021+646980724+646611283+645716468+644562829+643306448+642116779
3158+641189128+640388958+639522967+638856666+638626667+638381066+637700205
3148+637060871+636993713+636996313+636283210+635150818+634560144+634576561
3138+634095984+632241500+629593902+627690313+627296654+627605623+627456747
3128+626893857+626854632+627446421+627361063+625457473+622338993+619725160
3118+618616727+618608555+618757765+618627796+618397536+618235919+617943071
3108+617223059+616067377+614773146+613743533+613262547+613209467+613090604
3098+612477346+611386593+610262001+609459750+608730192+607549475+606051876
3088+604975758+604479840+603936674+603101587+602395653+601984090+601625421
3078+601162042+600455253+599417951+598429346+598011877+598121268+598279542
3068+598078404+597340191+596272133+595349497+594703551+594062286+593313635
3058+592568067+591920302+591596772+591854147+592391965+592457042+591864436
3048+591315215+591277625+591075186+589696339+587293823+585223045+584544598
3038+584886217+584793876+583113897+580170554+577359855+575632739+574895789
3028+574564682+574269307+574104051+574214705+574245312+573711766+572813571
3018+571970684+570743276+568474480+565823875+564258190+564124209+564280365
3008+563662687+562572045+562179798+563025433+564257930+564529569+563460471
2998+561748919+559998737+558264267+556802216+556259570+556763586+557523789
2988+557562828+556418995+554296066+552013230+550489890+549950772+549881832
2978+549645963+548818640+547394774+546036245+545480635+545477515+545052617
2968+543943441+542979685+542953424+543727222+544351772+543830929+542046129
2958+539849616+538069570+536783882+535748474+534948935+534386602+533894287
2948+533438039+533066444+532512506+531373056+529718558+528185673+527427364
2938+527488653+527726082+527525649+526918260+526077267+524704475+522684586
2928+520892467+520419690+521141968+521681605+520806737+518633737+516359927
2918+515003404+514645144+514803083+515038877+514934352+514064833+512513560
2908+510965371+509902625+509145728+508459481+508005350+507781999+507293918
2898+506279349+505110815+504100072+503182524+502471873+502186193+501938030
2888+501128982+500036892+499434999+499297601+498936592+498181367+497430525
2878+496777373+495897119+494573061+492905042+491287132+490254177+489942830
2868+489814235+489284032+488329600+487260725+486348007+485711830+485236230
2858+484680694+483965957+483139897+482210686+481338641+480791500+480416190
2848+479783914+479017657+478659248+478692752+478537636+477953499+477231036
2838+476561466+475767536+474650670+473351090+472305394+471778237+471424768
2828+470561712+468964937+467119405+465647399+464845186+464743224+465114559
2818+465337947+464748572+463357691+461932450+461186697+461024151+460673432
2808+459550809+457869864+456301542+455229584+454591216+454257286+454155138
2798+454035086+453489134+452348867+450919838+449688641+448834982+448167121
2788+447482843+446760750+446002033+445147521+444126934+442803878+441148155
2778+439608694+438800798+438673801+438533617+437913004+436856535+435521630
2768+434132791+433082786+432509681+432003957+431119468+429942279+428922510
2758+428320915+427941074+427322764+426203075+424829428+423712711+423046373
2748+422551309+421922264+421152701+420314495+419310029+418065831+416778769
2738+415735932+414999540+414429629+413890437+413271273+412449224+411433206
2728+410442633+409669392+409045102+408322304+407295960+405952289+404488009
2718+403180146+402221813+401646925+401273250+400725106+399778178+398691065
2708+397880717+397325961+396658063+395757119+394870476+394162128+393468117
2698+392590054+391622436+390770337+389923142+388771360+387416249+386420660
2688+386072281+386002523+385735639+385225865+384620444+383881489+382941394
2678+381945620+381070455+380288263+379479401+378631202+377838572+377199647
2668+376719775+376293800+375834989+375356343+374832158+374151928+373341691
2658+372609347+372030559+371398877+370518808+369496216+368640923+368143890
2648+367874480+367489884+366788853+365949012+365323533+365007432+364731299
2638+364191215+363345506+362387582+361585740+361127784+360962379+360826132
2628+360500113+359943203+359176612+358249593+357354443+356780633+356644535
2618+356698877+356510480+355897221+355107154+354471089+354005369+353482298
2608+352766632+351973854+351359295+351060541+350947212+350803240+350561093
2598+350190947+349571337+348718681+347898639+347305884+346891684+346598835
2588+346444536+346342797+346171263+345979857+345837778+345614428+345226489
2578+344883904+344746914+344566985+344016353+343190218+342493273+342184638
2568+342199125+342272894+342172529+341893015+341617662+341476772+341457197
2558+341476587+341417712+341221217+341019782+340997681+341080885+340968262
2548+340506814+339886869+339412755+339155305+338926049+338598693+338298081
2538+338163283+338097203+337934732+337753837+337807288+338142779+338460366
2528+338414789+337972471+337426704+337134933+337246218+337607525+337916680
2518+337954790+337652321+337072641+336453848+336100046+336075864+336128870
2508+336001018+335709655+335463349+335360570+335243675+334911379+334419510
2498+334017159+333785376+333502854+332948247+332237558+331712555+331516134
2488+331475907+331395674+331191379+330769230+330108686+329432839+329008090
2478+328884287+328994346+329250162+329423219+329230289+328630737+327866374
2468+327255568+327022076+327161554+327413655+327489207+327321091+327031882
2458+326764181+326616122+326610142+326638075+326535147+326281820+326032022
2448+325873006+325676251+325296187+324826827+324528741+324509834+324537730
2438+324235930+323541733+322882712+322699069+322861689+322844231+322433745
2428+321956176+321805554+322031840+322390434+322601787+322574635+322443811
2418+322363876+322334160+322302661+322292558+322311762+322291704+322222466
2408+322208797+322317148+322474418+322568394+322576418+322564568+322586001
2398+322599113+322496965+322235541+321922857+321729074+321684871+321602113
2388+321218074+320371362+318963505+316751280+313310905+308340485+301966145
2378+294665808+286953648+279192791+271585713+264237050+257267282+250854554
2368+245138770+240211030+236190083+233186343+231385105+231288585+233563305
2358+238518737+245930843+255511250+267384503+281241579+294741843+304085843
2348+306630772+302862019+296391140+291165648+288091593+285674571+282795080
2338+279356729+275555029+271542291+267610900+264434381+262788799+262817957
2328+263825748+264939456+265797256+266665773+268093279+270419259+273526800
2318+276986937+280346244+283344821+286015782+288596018+291286312+294087484
2308+296833552+299313868+301376882+303006047+304329251+305505177+306586848
2298+307551774+308419399+309216170+309876974+310338812+310686634+311088818
2288+311646490+312348821+313063521+313538564+313542910+313093906+312494837
2278+312086728+311981089+312054747+312122796+312056492+311820550+311477834
2268+311123419+310835102+310727252+310910078+311276009+311481735+311318892
2258+311013155+310986819+311351115+311783888+311921880+311715207+311381723
2248+311205935+311380905+311846105+312294478+312468835+312386560+312247713
2238+312261234+312528527+312949524+313303959+313523892+313784536+314261734
2228+314911134+315560794+316150763+316774756+317506728+318324988+319226081
2218+320261859+321408515+322546925+323672148+324991452+326663222+328539658
2208+330372302+332182733+334192036+336486499+338969768+341532044+344110886
2198+346669819+349164789+351490304+353560451+355517231+357697771+360241438
2188+362811700+364901867+366416292+367713495+369080381+370481181+371789787
2178+372930908+373858336+374623145+375318530+375895126+376223114+376255727
2168+375973873+375350994+374508591+373727290+373150879+372569602+371727161
2158+370795387+370174143+369878026+369561553+369015935+368310707+367689834
2148+367347211+367104508+366929371+367941600+371673599+378123435+385763906
2138+393402742+400816519+407917464+414572042+420965789+427423723+434046282
2128+440657920+447042530+453246320+459413188+465314211+470418296+474259203
2118+476494903+477077182+476496426+475449466+474437088+473982401+474914137
2108+478161398+484376591+493762267+505924580+519444754+531768758+540251001
2098+543337797+540649081+532994123+522355298+510621485+498590813+486456878
2088+474105684+461076488+447353468+433651657+420545720+408310678+397372949
2078+387992362+380056071+373544501+368448179+364371404+360882703+357875806
2068+355345846+353271725+351585580+350048831+348511005+347090965+345820692
2058+344650969+343787022+343367584+343155265+342980128+342947144+343174098
2048+343877655+345428184+348036854+351852948+357297129+364868548+374923311
2038+387796127+403639477+422061371+442118039+462432083+481303428+497017959
2028+508000930+513007844+511941384+506231618+497914074+488552208+478940953
2018+469422151+460259009+451532985+442943728+434201732+425412859+416788946
2008+408343551+400050114+392009743+384418675+377475520+371259621+365726404
1998+360842921+356600592+352940803+349767646+346926711+344200442+341508382
1988+339024816+336999949+335555728+334587181+333786899+332896319+331927363
1978+331020848+330223835+329505717+328843428+328272068+327901736+327743463
1968+327545927+327059444+326398380+325868103+325572097+325437894+325450114
1958+325605527+325741737+325632383+325211905+324582081+323886287+323282909
1948+322950167+323015802+323438954+323908239+323986726+323568366+322990766
1938+322529541+322145837+321801246+321640706+321794262+322226181+322756569
1928+323166869+323386097+323504217+323568477+323612642+323815229+324226606
1918+324482793+324245253+323738748+323414921+323411764+323600422+323838222
1908+324040846+324177204+324268468+324333509+324355164+324334957+324344318
1898+324462252+324639246+324725236+324734411+324906911+325326348+325684720
1888+325655858+325288683+324812489+324386551+324166172+324272851+324621343
1878+324980346+325187279+325240470+325328837+325771267+326673102+327576163
1868+327773364+327186181+326430956+325988563+325866134+325874455+325857108
1858+325744783+325613068+325623060+325822118+326121541+326472150+326959116
1848+327754940+328921468+330073250+330459443+329907808+329162537+328869132
1838+329014516+329285598+329608533+330277954+331491136+332824147+333511286
1828+333440934+333182184+333006118+332790753+332626203+332759181+333147528
1818+333547093+333885481+334324531+335021996+335920340+336739900+337229689
1808+337442268+337671116+338190064+339101111+340281123+341417564+342271520
1798+343000224+344067352+345758326+347733345+349022970+349025087+348491653
1788+348579537+349601981+351111132+352645243+354125941+355546427+356759423
1778+357834352+359282028+361610219+364598061+367048197+367960024+367811408
1768+367570042+367688385+368470837+370142124+372331096+374249247+375702160
1758+377097239+378597772+380235963+382351017+385112908+387893038+389716766
1748+390426898+390667595+391049702+391940134+393437695+395154670+396521891
1738+397762114+399811831+402847924+405388247+406086418+405908681+406107925
1728+406825486+407889234+409232237+410830869+412989345+416329244+420964043
1718+425699431+428557786+429051328+428517856+428211487+428826305+430758905
1708+434015971+438009097+441868093+445504778+449736038+454772965+459292319
1698+462311697+464344178+465642087+466493926+468045384+471026800+475095069
1688+479815858+485592670+492519815+498375485+501051721+502319097+504628492
1678+508712510+514123076+519830315+525057535+530060178+535253113+540005252
1668+543421112+546107600+549412992+553733436+558321284+562406417+566334316
1658+571055477+577261384+585189058+593603178+598959029+601015803+603547435
1648+607893657+612430915+615055742+616230293+617723360+620349674+624158227
1638+628822556+633234599+635514538+635392110+634856707+635148738+636102687
1628+637372589+639193271+641937519+645287076+648523936+651745641+655812164
1618+660729449+664506243+664938756+662708516+659590519+656229299+652803447
1608+649672523+647206860+645769882+645866755+647873681+651605828+656254557
1598+660659988+663788980+665328998+665738183+665516058+664754667+663415230
1588+661560597+659428345+657540134+656378026+655951308+656202406+657512647
1578+660012705+662567441+663741583+664286050+665892408+668800686+672325194
1568+676384437+681671831+688293238+695583101+703453237+713216117+726197433
1558+740253864+752021218+762535238+773264027+784166802+795299577+806352342
1548+815700836+822346165+827497981+832889231+838382926+841030003+837898263
1538+831979484+828047424+826524865+825854998+825451384+825920744+827378152
1528+829077594+830572667+832489257+835564538+839105241+841326418+841819773
1518+842101404+843369151+845628289+848287327+850929204+853628135+856495331
1508+858848520+859321297+858095895+857153089+857396312+858748006+860900168
1498+862975069+863782668+863236716+862454598+862192802+862465221+863237682
1488+864580238+866130136+867254505+867867764+868473667+869446337+870623303
1478+871604962+872195339+872452158+872397926+871955534+871410398+871420576
1468+872343398+873972563+875553960+876258222+876280955+876622240+877638518
1458+878471004+878090569+877048661+876255102+875424176+874111187+872506463
1448+871036277+869863695+869068353+868816513+869198434+870216643+871720779
1438+873045284+873130122+871883473+870571003+869957448+869704493+869349316
1428+868953279+868718673+868663625+869084326+870544482+872782299+874262440
1418+873925686+872759047+871725980+870331049+868216998+866182659+865080948
1408+864750361+864467987+863773605+862798260+862060344+861858723+861933681
1398+861854414+861562829+861019328+859759604+857782914+856105832+855272752
1388+854109753+851282450+848059110+847267706+849907280+854682226+859798978
1378+864179447+867503894+870082180+872684312+875710116+878530213+880382840
1368+881676886+883575869+886352804+889136871+891220389+892569557+893149163
1358+892856091+891950504+890954359+890526155+891377511+893587172+896119250
1348+897676502+897952339+897719293+898019125+899510037+902232295+905572566
1338+908576900+910775121+912563414+914516777+916703706+918789528+920322636
1328+920958924+921089228+922089088+925125292+929715778+933855773+935600012
1318+934723918+933002858+932605336+934220608+936841238+939166568+940870543
1308+942365021+943711515+944372838+944074121+943230714+942394142+941778730
1298+941336560+940877452+940013244+938352952+936125238+934386794+934080053
1288+934855485+935264225+934298018+932217322+929701069+926995823+924194447
1278+921575526+919280951+917228338+915548582+914467375+913719133+912891327
1268+912143233+911616968+910639618+908687517+906577775+905538541+905585344
1258+905547530+904262325+901404786+897529930+893501814+889755701+886157275
1248+882560928+879331275+877198800+876415270+876099243+874969674+872880807
1238+870975360+870253788+870741869+871909771+873141488+873927618+874159921
1228+874221804+874542436+875218321+876181482+877366768+878612674+879830796
1218+881341395+883624677+886716747+890181824+893540593+896362176+898078482
1208+898351198+897888376+898304099+900681728+904509486+908387611+911512889
1198+914023868+916290658+918519560+920869480+923366270+925793525+928151616
1188+930885761+934017501+936788939+938974382+941508168+944914482+948243535
1178+950183823+950203139+948573157+946469432+945651729+947024299+949972099
1168+953388665+956655686+959693228+962537989+964776326+965612453+965176003
1158+965132989+966989405+970495341+974169468+976658903+977779261+978557887
1148+979862927+981208456+981626407+981482955+982346271+984978787+988219287
1138+990299537+991049488+991874248+993525551+995271201+996459385+997508276
1128+999049928+1001276453+1003977835+1006636725+1008975947+1011247343
1120+1013162744+1013337621+1011640185+1010844546+1013029172+1016186914
1111+1017759768+1019019269+1022032369+1025272647+1026112413+1025431403
1103+1026042730+1028454607+1030763222+1031068848+1028799012+1025195163
1094+1022807653+1023516521+1027275784+1032903720+1038904069+1043436089
1085+1045288641+1045120896+1044385135+1043709399+1043346050+1043745949
1077+1044688012+1045268509+1045430088+1046299570+1048563909+1051612743
1068+1054045124+1054576218+1053505338+1052544034+1052155501+1050715625
1060+1047553871+1044861924+1045351490+1049794660+1057164309+1065347278
1051+1071568563+1073741823+1071952268+1068014191+1063767664+1060596773
1043+1059768819+1061727531+1064921303+1066579887+1065612417+1063849160
1034+1063676511+1065337472+1067050510+1067093300+1065422608+1063394138
1025+1062071639+1061319088+1060690006+1060452132+1060942293+1061358982
1017+1060191154+1057084003+1053714611+1052330452+1053689575+1056570515
1008+1059024366+1059718228+1058512215+1056672514+1056015425+1056691458
1000+1056438354+1053417899+1048867307+1045372068+1043497749+1041679369
991+1039146697+1037154406+1036565589+1036224378+1035018960+1033594388
983+1032576030+1031190311+1028661205+1025171762+1020891137+1015688358
974+1010234111+1005789083+1002576665+999693347+996729798+994111619+991600715
964+988032376+983257727+978937877+976432618+975014583+972866805+969137778
954+964714592+961299660+959958069+960037633+959622802+957641357+955045837
944+953243875+952047668+950544498+949341680+949934211+952042394+953320467
934+952024193+948893269+946123986+945173380+945866425+947374870+949393905
924+951575262+952522674+951179820+948806277+947781455+948616690+949657335
914+949699903+949321844+949368870+949576285+949200753+948217459+947319004
904+946897264+946409480+944932237+942337088+939747957+938502719+938909007
894+939827372+939250664+936280354+932515743+930223471+929650404+929551376
884+929432290+929626928+930009667+930252296+930672922+931613202+932738016
874+933436856+933315542+932373107+931134184+930304967+929929211+929531764
864+929307038+930086036+931635266+931946984+929316844+924917802+921889472
854+921805377+923384471+924851462+926208654+928240838+930457854+931292272
844+929874832+927088462+924970548+924739879+925344594+924863497+923527478
834+923772038+926957267+931566994+935022413+936196853+935716424+934700889
824+933595092+932424070+931662084+931803160+932812008+934586409+936982314
814+939393002+941243549+942529126+943553353+944796362+946653446+948698408
804+949804874+949361515+948038125+946856033+945681593+943408489+939904261
794+937102143+937162391+939783838+942360415+943079387+942813060+943205233
784+944143210+943974276+941763129+938618313+936589398+936819249+938861908
774+941329725+943074855+944053543+944823626+945052957+943362281+939379927
764+935087713+933235458+934351803+936073978+936346769+936025393+937198867
754+940152908+943249287+945327233+946854770+948614833+950044828+949514402
744+946576631+942936529+940830278+941374373+944254124+948233729+951745236
734+953384505+952509005+949385288+944700603+939468629+935220543+933571171
724+935184661+938754188+941208931+940707626+939427250+940687197+944283543
714+947304221+948410166+948644623+948971719+949027807+947252070+942521697
704+936546681+932486027+931000835+930299692+929991317+931321839+933493984
694+933152774+928449517+921557176+915685200+911427456+907553416+904042652
684+901761301+899500751+895099480+889850791+887510826+889190656+892448020
674+894540230+893342166+886266480+873344224+862732143+864587147+874075602
664+879719362+879226378+876943021+875638427+873784314+869995707+865975912
654+864339318+865661965+867728620+868467204+868603599+869475830+870109667
644+868237502+863043564+856211398+850684346+849236225+852823285+858879276
634+862784591+861755387+856764630+850589776+845132780+841650691+841383398
624+843982261+847161101+849249225+850090032+848848806+844225930+837075063
614+831116168+831000425+836947657+842319369+841289422+837138580+836768991
604+840816719+843492323+840684632+833859449
##END=
