##TITLE=<SNM>
##JCAMP-DX=4.24
##DATA TYPE=INFRARED SPECTRUM
##DATE=3/5/2025
##SAMPLING PROCEDURE=Instrument type and / or accessory
##ORIGIN=Admin
##XUNITS=1/CM
##YUNITS=ABSORBANCE
##RESOLUTION=4
##FIRSTX=4497.3318
##LASTX=599.83466
##DELTAX=-1.4281778
##MAXY=1.7132649
##MINY=0.17825517
##XFACTOR=1
##YFACTOR=1.5956023e-09
##NPOINTS=2730
##FIRSTY=0.20008825
##XYDATA=(X++(Y..Y))
4497+125399823+125983251+126742289+126929132+126629083+126450859+126526308
4487+126331919+125645090+125133412+125504848+126526822+127378650+127572488
4477+127162119+126452718+125858362+125751936+126171514+126793102+127287120
4467+127568781+127706810+127756819+127725945+127536898+126983419+125958793
4457+124753870+123828628+123305678+122952902+122576488+122232929+122170246
4447+122582390+123273468+123658595+123329306+122512993+121841919+121812856
4437+122430540+123208871+123606652+123477374+122961372+122235413+121706832
4427+121884233+122475180+122292950+120761026+118779537+117421232+116641724
4417+115948059+115477948+115650269+116338471+117040690+117495467+117708590
4407+117641499+117223406+116621505+116235407+116305832+116652706+116877605
4397+116781760+116546532+116466339+116524922+116380141+115849085+115252666
4387+115117523+115626324+116442067+116969192+116740725+115686766+114167122
4377+112799273+112154637+112393853+113093224+113640689+113895809+114247633
4367+115005801+115991428+116739156+116877680+116332821+115312407+114087377
4357+112836703+111858398+111716540+112706874+114236949+115227143+115152067
4347+114321970+113299707+112544060+112398037+112833752+113340424+113479976
4337+113367563+113323073+113382450+113455881+113601363+113851215+114119578
4327+114398428+114622888+114466901+113817268+113202751+113169653+113530368
4317+113807164+114035967+114533365+115220428+115708581+115875981+115938421
4307+115977018+115806705+115453480+115357887+115810730+116523054+117055082
4297+117326050+117451182+117375733+116954754+116326078+115953774+116169073
4287+116802969+117393990+117576248+117224284+116566424+116159753+116370886
4277+116984209+117559606+117889456+117979586+117997955+118216037+118603489
4267+118756143+118597652+118630432+119079240+119425181+119253775+118915987
4257+118897758+119179717+119573483+120065297+120562201+120858711+120999326
4247+121238281+121622417+121928107+121929097+121589498+121152970+121046880
4237+121422901+121864127+121847756+121407371+121045759+121046618+121162262
4227+121075709+120969489+121327168+122160384+122852555+122995496+122925837
4217+123081545+123412291+123764078+124156293+124393146+124082347+123190240
4207+122127913+121469895+121758747+122989659+124243378+124600591+124287420
4197+124179080+124552878+125037959+125344023+125451850+125391203+125161391
4187+124737191+124141575+123624891+123564244+124014584+124605690+125078518
4177+125668316+126693446+127992589+129062602+129593696+129657975+129511962
4167+129393087+129434869+129593771+129601111+129146027+128252248+127357432
4157+126879187+126882942+127273233+127994279+128856652+129506452+129775608
4147+129783761+129582489+129047511+128255031+127631109+127562841+128053535
4137+128842335+129701784+130502819+131070885+131193467+130913618+130631667
4127+130640268+130720452+130509132+130099388+129914225+130088667+130326229
4117+130377827+130392788+130689223+131282429+131720470+131512502+130776999
4107+130208316+130236632+130613270+131048780+131650279+132384213+132835786
4097+132874991+132875411+132984256+132824374+132146184+131319514+131027590
4087+131610309+132721030+133690809+134191065+134295129+134052075+133496224
4077+133023638+133188507+134012739+134871731+135168138+134849504+134215020
4067+133602220+133373847+133719152+134280803+134436576+134077215+133707460
4057+133727585+133951289+133930379+133633076+133575427+134122070+134967669
4047+135656160+136210611+136768208+137060291+136835868+136399434+136226804
4037+136341364+136457447+136555515+136884066+137365589+137460846+136903519
4027+136183425+135945984+136219847+136562267+136726379+136895899+137382978
4017+138234928+139116062+139622734+139672165+139442410+139052184+138539096
4007+138046497+137796924+137976726+138703208+139853592+140906748+141319901
3997+141121580+140776508+140488151+140096132+139665992+139605747+140070861
3987+140742953+141265352+141453895+141212307+140750602+140651498+141211159
3977+141958933+142211915+141831551+141240735+140980647+141258040+141717551
3967+141893953+141958224+142480436+143414512+144015554+143934604+143730466
3957+144001237+144558956+144868391+145010772+145617651+146765513+147599121
3947+147537316+147231944+147586420+148360904+148429797+147261810+145520358
3937+144300913+144363474+145858062+148216945+150202366+150700633+149899674
3927+149067391+149023097+149356468+149371522+149352032+150091597+151482084
3917+152285229+151476873+149523279+147812104+147187696+147611813+149047331
3907+152013663+156700499+161782315+165056680+165484719+163406404+159455062
3897+154910429+151849177+151696197+153877127+155829815+155655589+155030406
3887+156452878+159105433+160153985+159609808+159611638+159786705+158607016
3878+157328820+158058599+160595304+163695817+166858022+168938504+168194866
3868+165732069+164347036+164224249+163269515+160805466+158583015+158439999
3858+161407731+168198452+177718110+183362351+178878748+169449808+162042590
3848+158828516+159368229+162138817+165692117+169703789+174296582+178219310
3838+179134596+176778954+173541047+171116091+169393009+168032295+167358867
3828+167520878+168319130+170537341+175397059+181218888+183379983+181364799
3818+179069654+177116330+173367045+168668087+166149648+167349416+171608475
3808+176418117+179315677+181310428+184787877+188406437+188503973+185668554
3798+182967577+180514250+177433535+174845317+174307509+175787144+178328033
3788+181288986+184247846+186685597+188833654+191850603+195987154+199565799
3778+201173957+201827623+203657318+208138960+215335774+223294958+229473907
3768+233852989+238174898+243100866+248962348+256994881+267457991+278105750
3758+286756536+294627879+304795861+319090253+336344868+351655313+361550581
3748+369466190+379603934+390760924+397980262+401447981+406633757+416818418
3738+431883138+448948062+463052855+471019081+474539135+476712482+478569801
3728+480201829+482176408+484814048+487520310+489754061+492103391+495706037
3718+500861667+507324780+515660527+526448668+537501548+544678862+547689348
3708+549755746+553469825+560511911+570644611+579884252+583935091+583679541
3698+582985288+584583583+589734581+598919159+611283370+622732779+625922310
3688+618707492+609167363+604561570+605350221+608437697+611333538+614901668
3678+621640876+630125747+634600497+634401690+633199438+629944946+622156532
3668+613779955+609961505+610728565+613563330+616754430+620330442+625191075
3658+631281528+636712431+640384858+644412013+651288802+660222462+666789423
3648+668061829+666639926+665697221+665639395+665697445+665612723+665831626
3638+666731522+668172999+670061174+673222128+679236451+687869474+693610653
3628+690642304+683307985+679202308+680977819+687838917+696900484+703017011
3618+702873715+700040743+700046272+703496956+706885928+708237976+708708507
3608+708943249+708137714+706559067+705380125+705076872+705652148+707671740
3598+711747756+716904544+720691205+721951358+722651401+725476379+730167791
3588+732591795+729181455+721942093+715513572+712543505+713243324+716491317
3578+720499122+723293095+723995006+723982231+725427369+728676781+731823391
3568+732727993+731181323+728597288+726064132+723535458+720181749+715787837
3558+712123404+711887168+715723959+720360159+721176678+718226110+716677946
3548+719798406+724646861+726068316+723494068+720422469+718969187+718508518
3538+718013930+717620726+718190697+719936248+721636301+721792596+720753514
3528+720569948+722378033+725008463+726745946+727282970+727284016+727362089
3518+727811028+728545812+728930201+728389666+727226488+726014897+724513054
3508+722367723+720235392+718877815+718101268+717370667+716478467+715372891
3498+714322901+713897196+714355699+715566841+717286020+719323766+721822705
3488+724726205+726783152+726541163+724315293+722051545+721257963+721471413
3478+721020531+719336243+718146543+719500533+723136202+726838289+728741705
3468+728343719+726138918+723596647+722446394+722925740+723655743+723738149
3458+724070241+725595618+726898730+725635888+722546282+721198120+723085025
3448+725558412+725791660+724404274+723310802+722575644+721384599+720620229
3438+722088004+725238499+727084686+726088488+724050218+723501539+724884592
3428+726657488+727237695+726468394+725425725+725102674+725383961+725475109
3418+725011003+724390079+724059109+724009500+724357953+725640071+727809011
3408+729633084+730193044+729966818+729235620+727263545+724219364+722035183
3398+721925283+722467985+721864618+720682015+720712124+722441537+724230122
3388+723848573+720777048+716797633+714233172+714188196+716631699+720945372
3378+725604359+728084546+727075945+724487502+723399932+724724187+727081997
3368+728881938+729048245+727228505+725076824+725347278+728328776+730981097
3358+730805077+728902184+727748420+727541918+726441722+723664858+720609022
3348+719324887+721156804+725758414+730634138+732893329+732064857+730098982
3338+728722579+728064897+727322791+725880865+724069269+722907287+723022790
3328+723710058+723441621+721833015+720478427+721178097+723797993+726381953
3318+727200638+726230439+724918212+724912609+726769480+730163458+734586060
3308+738449896+739231001+736699115+733808242+732609576+732091828+730977436
3298+729889492+729828229+730562341+731508483+732656793+734098793+735760369
3288+737846977+740315284+741858144+740818315+737189071+732934121+730317064
3278+730149263+731256408+731815845+731406577+730974448+730850801+730157780
3268+728311443+725651278+723084502+722054160+723508637+726265404+727891193
3258+727781218+727441581+727800867+728061684+727202805+725759609+725454564
3248+727282222+730322966+732611369+733222880+732695270+731605458+730176308
3238+728672522+727361267+726769629+727585251+729392813+730511836+730147246
3228+729304878+728643684+727607739+726478330+727089767+730330139+733829236
3218+734031255+730812026+727640836+726743704+726680424+725247912+722801720
3208+721614634+722951441+725606078+727048526+725884153+723350996+721874106
3198+722202312+722956447+723036985+723259550+724908276+727523988+729078054
3188+728153878+725384933+722854018+722043252+722128946+721051163+718241799
3178+715111103+713098534+712523034+712779816+712873205+712280821+711582122
3168+711565685+711912495+711539238+709955062+707800766+706249987+706005158
3158+706800683+707769462+707943390+706775953+704500924+701917861+700082581
3148+700018330+701768139+703373832+702273262+698573939+695267148+694814100
3138+696794469+698819963+699118658+697990594+696817554+696323863+696075747
3128+695219707+693425668+691310296+689727914+688521030+686746341+684259805
3118+682154370+681297283+681293623+681116482+680499443+680450582+681848502
3108+683920467+684834782+683696782+681458211+679866864+679892041+681063288
3098+682237747+682809437+682658072+681352719+678694870+675797347+674237827
3088+674183063+674351014+673798973+672888319+672382749+672134857+670983782
3078+668502625+666284227+666258526+668353726+670833314+672371841+672531424
3068+670860061+667502616+664338898+663580953+665311562+667329734+667404969
3058+665319108+662584456+660492170+658935264+657362893+656239760+656660235
3048+658404441+659467133+658415050+656261053+654870529+654592529+654312810
3038+653114369+651294554+649830739+649056881+648175961+646521259+644838315
3028+644272827+644518477+643963821+641662195+638582227+636657967+636876945
3018+638553389+640301555+641219979+641175601+640575969+639901925+639269570
3008+638494741+637401268+635864385+633977256+632343771+631525684+631187616
2998+630469269+629046694+627320119+625910618+625238106+625222005+625248939
2988+624623196+623161957+621397878+620194206+620084568+620798059+621370235
2978+620743894+618526392+615486582+613072291+612143706+612404709+613195340
2968+614230762+615125615+614915042+612978939+610078428+607573401+605923218
2958+604776701+604121521+604328546+605116263+605307523+603987452+601656875
2948+599778001+599101641+598923007+598254604+597078650+596062989+595605570
2938+595588163+595709232+595657644+595167875+594122890+592571999+590731079
2928+589051609+588120223+588257131+589123817+589717510+588995501+586857455
2918+584331881+582433396+581147916+579930535+578713005+577813931+577303318
2908+576942650+576328673+575045845+573213218+571664269+571022799+570869753
2898+570263659+568899732+567364045+566345470+566027089+566179686+566365044
2888+566091153+565169554+563830132+562325711+560825100+559718217+559254149
2878+558818882+557506580+555455087+553659367+552619574+552091927+551868204
2868+551920427+551906494+551249185+549859371+548392492+547528196+547171488
2858+546649219+545636808+544527684+543749754+543110301+542163375+540941026
2848+539856817+539084379+538504956+538060164+537728297+537324259+536597730
2838+535403323+533736069+531719577+529528748+527378897+525647765+524732553
2828+524603265+524734720+524580142+523974235+523196380+522758610+522868174
2818+522962534+522151731+520263519+518063537+516389409+515423244+514802918
2808+514150951+513435218+512901668+512730281+512803236+512781981+512347050
2798+511367998+509922113+508164159+506211471+504263640+502734115+501996081
2788+501996081+502241395+502090329+501082924+499238642+497072243+495157807
2778+493728545+492660325+491601967+490265982+488814494+487676680+486919146
2768+486239350+485539231+484968102+484478595+483825881+482881868+481683949
2758+480373628+479170143+478205697+477402664+476563097+475504515+474205213
2748+472876550+471731004+470668873+469450409+468134671+467021138+466188034
2738+465367930+464280584+462949866+461719934+460962437+460652984+460291045
2728+459406577+458048030+456585933+455202618+453795732+452266881+450730446
2718+449482919+448761956+448414699+447888957+446748939+445168387+443809167
2708+443213122+443273339+443273824+442536127+441021731+439229560+437682218
2698+436610486+435871555+435077040+434054207+433095700+432462187+431941226
2688+431261653+430546331+429962912+429348711+428511797+427540627+426614732
2678+425788986+425043668+424339852+423580898+422640098+421518609+420455693
2668+419721544+419249258+418700654+417975096+417347373+417000228+416728690
2658+416224763+415433161+414505735+413544650+412566719+411674294+410998046
2648+410402635+409540469+408300637+406976270+405955454+405422950+405298071
2638+405296464+405103523+404557571+403699700+402775411+402108689+401725271
2628+401229525+400318610+399180833+398155908+397374243+396882942+396673863
2618+396456454+395831346+394780832+393681009+392865612+392422724+392274385
2608+392235535+392108003+391813081+391342289+390679376+389907648+389186349
2598+388502256+387693881+386771049+385949600+385357963+384903868+384404275
2588+383776290+383150248+382750506+382635115+382649272+382592641+382342135
2578+381942654+381609704+381448552+381240444+380759566+380148354+379688170
2568+379369677+378978153+378510947+378255098+378407061+378771203+378950398
2558+378755813+378312327+377845681+377489982+377231929+376930769+376446416
2548+375839164+375403971+375403187+375751005+376065613+376073383+375837221
2538+375584586+375472257+375509127+375579580+375545811+375366653+375079090
2528+374710465+374312292+374029174+374024094+374293801+374564592+374459809
2518+373884272+373180792+372795805+372851913+373091549+373123824+372692517
2508+371842117+370919995+370360334+370352638+370681479+370945285+370934825
2498+370713381+370377069+369923385+369362118+368777839+368247091+367803419
2488+367474055+367262996+367133783+367062695+367037368+366968298+366743081
2478+366435906+366284579+366352342+366392574+366175762+365792494+365501195
2468+365419946+365484198+365579679+365619575+365586104+365518416+365366154
2458+364953151+364254490+363567222+363211522+363205097+363351307+363465615
2448+363452204+363319069+363128667+362880514+362559406+362279799+362165641
2438+362117265+361910950+361501533+361067686+360773585+360579411+360321994
2428+359971225+359700845+359639619+359696400+359731402+359755011+359842273
2418+359957403+359975521+359852733+359702862+359651162+359640815+359509958
2408+359268865+359135730+359234722+359422098+359508240+359505326+359534613
2398+359599948+359571371+359348657+358981825+358657765+358571735+358750034
2388+358966696+358855077+358131388+356708738+354586754+351704249+348031486
2378+343814788+339562603+335665819+332108036+328651450+325212869+321920797
2368+318951066+316507862+314780465+313761816+313413176+314059017+316197885
2358+319947974+325023364+331159877+338334464+346379809+354265758+360202941
2348+362686527+361541578+358403112+355613734+353902512+352132643+349260671
2338+345374944+341108900+336885404+332976404+329841300+327839527+326759353
2328+326122776+325750304+325665955+325838650+326313066+327224579+328499562
2318+329830243+331013667+332122904+333356123+334815830+336400416+337877231
2308+339082547+340037243+340873933+341710399+342565244+343309928+343765554
2298+343961969+344204855+344742103+345436880+345898408+345916114+345692541
2288+345626833+345887687+346272935+346508835+346560759+346584592+346672266
2278+346709696+346502373+346053060+345606549+345351148+345253352+345243789
2268+345290296+345245507+344965191+344608931+344500263+344712704+345051258
2258+345358694+345610770+345765646+345707222+345375131+344875351+344417558
2248+344160290+344144040+344335562+344670380+345042703+345318238+345438262
2238+345507930+345688992+345984139+346228332+346328184+346405995+346637562
2228+346998380+347254565+347239323+347073950+347015526+347139883+347315267
2218+347461104+347686843+348144337+348811022+349477894+349980700+350364117
2208+350735245+351091431+351437642+351906679+352562045+353224060+353678939
2198+353956977+354273229+354777641+355438350+356118370+356714678+357222527
2188+357685101+358119583+358508829+358826463+359067817+359311563+359737416
2178+360487890+361493464+362510731+363344657+363975556+364500252+365061445
2168+365819576+366857800+368087247+369330926+370527051+371840660+373618823
2158+376202260+379647453+383610655+387581665+391224469+394517625+397685340
2148+400926796+404103178+406885570+409306772+411825024+414728747+417845883
2138+420911618+423896441+426917723+430068665+433395068+436951430+440811943
2128+444950417+449170664+453248735+457028372+460302215+462785651+464280733
2118+464738189+464189996+462765143+460740470+458450088+456094258+453713438
2108+451444535+449675973+448756129+448650039+449004954+449382956+449315529
2098+448320936+446038623+442374340+437541275+431946381+426006732+420067793
2088+414358703+408911886+403658161+398673358+394176606+390279784+386900897
2078+383909164+381262297+379045542+377388188+376259302+375397733+374564106
2068+373777435+373161703+372672681+372180185+371720600+371393589+371075469
2058+370527724+369755734+369016056+368511569+368251574+368155346+368180897
2048+368359905+368760245+369461596+370551781+372057024+373920918+376197516
2038+379182152+383165115+388119175+393761622+399805867+405943388+411618522
2028+416084120+418829194+419806902+419211080+417333178+414647835+411620240
2018+408355214+404715622+400732621+396675955+392835540+389378618+386282513
2008+383354321+380438719+377607278+375061794+372888596+370971882+369125844
1998+367312305+365769221+364825843+364440110+364031365+363032738+361520062
1988+360012988+358892732+358239383+357928211+357687566+357257865+356594168
1978+355863755+355285005+354961468+354817164+354770805+354924225+355330093
1968+355642946+355386575+354604723+353854847+353495150+353326639+353019202
1958+352611093+352368169+352321662+352220465+351913664+351576231+351495805
1948+351808546+352554611+353694666+354722654+354666471+353186219+351249669
1938+350033521+349751187+349872070+349930457+349856605+349797807+349849769
1928+350058922+350617351+351621207+352626184+353159361+353575427+354352274
1918+354859151+354111928+352479452+351285904+351194457+351766521+352105410
1908+351734208+351002636+350560085+350558516+350651382+350613167+350625943
1898+350956614+351499839+351833200+351926813+352374184+353356785+353940204
1888+353248827+351796143+350690344+350313912+350356161+350461802+350509431
1878+350535692+350541930+350520189+350896248+352568246+355813288+359090530
1868+359879666+357659587+354514359+352363911+351479219+351253703+351191133
1858+351121576+351068606+351111939+351259792+351551128+352231299+353650773
1848+356089532+359411563+362253090+362351485+359503645+356347360+354918435
1838+355008760+355396250+355620832+356559204+359107526+362420592+364320086
1828+364211792+363545817+362864974+361403251+359370995+358067062+357974681
1818+358407856+358748763+359268006+360604215+362675731+364393004+364779896
1808+364155423+363708650+364431032+366661048+369837318+372506636+373456588
1798+373183407+373537724+375929340+379886342+382713113+381986883+379087792
1788+377270816+377858457+380020710+382592604+385128076+387271763+388560456
1778+389486389+391650099+396310057+402755687+407741275+408411060+405977942
1768+403243290+401622282+401881193+404354020+407789165+410140810+411336263
1758+412676768+414222990+415698274+418312679+423273313+429332499+433301193
1748+433826375+432705782+432214781+433368022+435869949+438395298+439719740
1738+440873056+444612985+451596610+457576752+457919938+454812887+452003076
1728+450438475+450334776+451952011+454973778+459341130+466124941+475988867
1718+486351005+491478357+489498810+484893652+481843906+481789815+484888086
1708+490707861+497737658+503936890+509460996+516638907+525709289+532766804
1698+535396450+535307058+533239725+530260207+529554822+532740916+538694387
1688+546330539+556654649+569572880+578953986+579538489+576383549+575670207
1678+579230230+586157411+593809589+600062165+605816456+612283939+617433480
1668+618925312+619390240+623006297+630095115+637003058+640672421+642833591
1658+647350777+656797180+671926861+688838553+696822485+695761736+696546428
1648+701746772+705945315+704273429+699967526+698000232+699647837+704759126
1638+712979370+721485907+723847900+718431939+712154783+709970528+711660643
1628+714714387+717128528+718425514+718020654+715267698+712035544+711374126
1618+713277916+713350610+707932706+699933682+693599297+689765867+687095392
1608+684235524+681086897+678373761+676531085+675479601+675046650+675132343
1598+675588156+676121145+676299331+675748337+674450604+672710880+670771976
1588+668708828+666807279+665623855+665319631+665504242+666341829+669005730
1578+673897517+678360612+678682991+676679013+677197957+681028473+684694175
1568+685594818+685968598+688805829+694778911+704404696+719341323+737957400
1558+749568261+749905283+748585809+751113586+757564820+766625041+776568498
1548+786136531+795572176+805592959+816247442+827572756+837461375+838867589
1538+831442944+824915281+823807987+825352715+825419730+824509898+826124705
1528+831350675+838385702+845334437+851867628+857388185+860442302+861557814
1518+862500146+863173069+863059583+863397651+865842200+870954086+878518964
1508+886681382+889550440+883553600+875769967+872553876+874089489+877998078
1498+881416562+882326768+881241588+881022162+883860139+888981215+892652223
1488+891806791+887938248+884501086+882985272+882993266+884129697+886765731
1478+891008503+896164992+901532540+905924584+906502998+902253652+897132949
1468+895143914+896620655+899050934+900046759+900499957+902972224+907951124
1458+912556693+912577837+908428827+904191659+901761978+901290401+902117005
1448+902487647+900910495+898102102+896085200+896190319+898798485+903591430
1438+908706454+910340238+906949621+902569008+901111617+902346443+903717393
1428+903819747+903601740+904148775+905376429+907113612+909490772+911310437
1418+910150546+906275727+902921345+902062242+902824893+902889294+901155996
1408+898766808+897065784+896051730+895578883+896209818+897864446+899395801
1398+900075149+899951203+898564191+895426771+891724235+889384207+888865563
1388+888693652+886924866+883763911+881824485+882989605+886450599+890282684
1378+894159595+899120117+904554606+907600057+907243012+906225371+906861686
1368+908558003+910327238+912820648+916505850+919868525+920995841+920031470
1358+918720513+918391336+919039007+919982459+921036409+922454427+924086492
1348+925537607+926857902+928290713+929917100+932201244+935683008+939391894
1338+940993103+939615728+937058963+935579757+936004341+937889527+940282451
1328+942207907+943156663+943417107+943784760+944867773+946591733+948364404
1318+949728705+950641451+951158303+951349339+951487256+951667683+951393942
1308+950256838+948840389+948242999+948783683+949753509+950394829+950518701
1298+950141185+949255260+948023049+946604434+945052982+943682331+942676047
1288+941227099+938390391+934787296+931999375+930523605+929511941+928139647
1278+926380125+924578465+922647630+919862772+915789968+911262248+907737226
1268+905733772+904474516+902964902+900976614+898953660+897134219+894999124
1258+892042281+888810575+886354969+884957198+884088233+883275151+882374284
1248+881323472+880176954+879178813+878541751+878234763+878067261+877944510
1238+878039842+878675858+879982556+881775250+883777285+885723510+887250532
1228+888074297+888341240+888489691+888761191+889105609+889604531+890719669
1218+892873741+895760954+898346034+899957479+901253045+903396284+906322197
1208+908794016+910311474+911800691+914044192+916596774+918698996+920287131
1198+921753412+923549244+926170037+929783292+933797821+937216156+939424393
1188+940526756+941155824+942173241+944246998+947356252+950581159+952710651
1178+953426010+953589329+954242230+955721735+957728476+959735816+961238556
1168+962125377+962927775+964316805+966354252+968343138+969519988+970088465
1158+971071216+973007580+975515633+978047071+980143914+981178066+980964840
1148+980419001+980732040+982117783+983745963+984820309+985688976+987381333
1138+989976425+992588850+995100863+998402498+1002498388+1005803161+1007121290
1128+1007507845+1009284626+1013275023+1017380177+1018568757+1016622083
1120+1014620422+1015240973+1017525789+1018148058+1016477965+1016424846
1111+1021574536+1030346074+1036970712+1037463656+1033682898+1029987684
1103+1027752625+1025379650+1022877274+1022935699+1026236736+1029501315
1094+1030650298+1032100441+1035829723+1039392474+1039849332+1038425039
1085+1038217940+1040055236+1042447712+1043913021+1044362484+1044571600
1077+1045059763+1046200303+1048710822+1052698605+1056561844+1057774779
1068+1055395677+1051756572+1050521148+1052797373+1056208908+1058208029
1060+1058865861+1059537290+1060920642+1063240423+1066128009+1068039644
1051+1068088579+1067816257+1069050859+1071192454+1072346144+1072262467
1043+1072380735+1073286234+1073741823+1072552347+1070423303+1069160012
1034+1069225310+1069217988+1068183836+1067061077+1066970826+1067460483
1025+1067397427+1066980987+1067293503+1068158210+1068430458+1068039644
1017+1067565676+1066547064+1064347269+1061740672+1059880737+1058753794
1008+1057687143+1056184030+1054363842+1053483670+1055246778+1059523992
1000+1063057530+1061935817+1056196357+1050146547+1047333597+1047105504
991+1046758097+1045505789+1044576008+1044611870+1044748516+1043894045
983+1041996680+1039941601+1038632213+1038263289+1038154062+1036905489
974+1033064887+1026455640+1018898532+1012649093+1008391230+1005440812
965+1003182070+1001414030+999415133+995906100+990597200+984668646+979279133
955+974666615+970888248+968584605+968132751+968293455+967146116+964676464
945+962707302+961993512+961618312+961339266+961789999+962196203+960890775
935+958189967+956038136+955136597+954678916+954296844+954194863+953696838
925+951737389+948996984+947685429+948901652+951670149+954510293+956365595
915+956161933+953515365+949944022+947643516+947085125+946751689+945087050
905+942369283+940633220+941373831+943407992+944127610+942856698+941124520
895+939757605+938075857+936057834+935090175+936153165+938667644+941210886
885+942499728+941878505+939677440+937036176+934813669+933060422+931766799
875+931176805+931412892+932520709+934616282+937191277+938640897+937870028
865+935802845+934319754+934010748+933491879+931372697+928354143+926363912
855+926323718+927881445+930465853+933303234+935059842+934825249+932996021
845+930463089+927735385+925406638+924257357+924395796+925160091+925888600
835+926253713+926263351+926681584+928714848+932334155+935715657+937277942
825+937727927+938575226+939198242+937515747+933616647+930681096+931429254
815+935294809+939746099+942898462+944192235+944012554+943188939+942092179
805+940706362+939779122+940495900+942689793+944636393+944844538+943463652
795+942089639+942377949+944383271+946263826+946663904+946252021+945801364
785+944989627+943816811+943041534+942751953+942207384+941248765+940608640
776+941065573+943082924+946308727+949089401+949678200+948138627+946120081
766+945056045+945601586+947749457+950144024+950459156+948003848+945157802
756+944953093+948045089+952323647+954704916+953509612+949995648+947334511
746+947270185+948386743+948306952+946715978+944984621+944140908+944911330
736+947681096+950830545+951063046+947137722+941802599+938782101+939025959
726+940622162+942122362+944657312+949431205+954449478+955889237+952612854
716+947452928+943880988+942681052+942244141+941837713+942904812+945559673
706+946571038+943314752+937110066+930979567+926945389+925643622+925659834
696+924033148+919714171+915060712+912420495+911298632+910088386+908556135
686+907332815+906354398+904699770+901709979+897897842+894653585+893056410
676+893211436+894040281+893127236+888071532+879565668+873575103+875046988
666+878558935+878027813+874457068+871048372+868456642+865580337+862980016
656+862494767+864517496+867522603+869738461+870581203+870340260+868983953
646+865869619+860863225+855447488+852095198+852329194+854426485+854460180
636+851481371+848904658+849709298+853544819+858141946+860599046+858505565
626+852215633+844958490+839460197+836133011+834699229+834717608+834799193
616+833578562+830636287+826784778+824000667+823852739+825425782+826051861
606+824385653+821926087+821937593+826257317+832236376
##END=
