##TITLE=<SNM>
##JCAMP-DX=4.24
##DATA TYPE=INFRARED SPECTRUM
##DATE=2/5/2025
##SAMPLING PROCEDURE=Instrument type and / or accessory
##ORIGIN=Admin
##XUNITS=1/CM
##YUNITS=ABSORBANCE
##RESOLUTION=4
##FIRSTX=4497.3318
##LASTX=599.83466
##DELTAX=-1.4281778
##MAXY=1.7826067
##MINY=0.31919056
##XFACTOR=1
##YFACTOR=1.6601819e-09
##NPOINTS=2730
##FIRSTY=0.33945253
##XYDATA=(X++(Y..Y))
4497+204467076+204343266+204649137+204968454+204981935+204617794+204203839
4487+204308046+204926358+205283642+204953680+204455156+204239616+204007022
4477+203524097+203296188+203883248+205027406+205950082+206264731+206145158
4467+205849932+205479777+205050509+204590437+204217177+204123920+204455120
4457+205221387+206221379+206961616+206839673+205667780+203993307+202689203
4447+202175457+202214680+202412269+202607292+202744834+202780072+202837588
4437+203058334+203297660+203419154+203656649+204169031+204560476+204362887
4427+203714973+203163295+203036937+203255924+203602275+203979843+204302391
4417+204338904+204052312+203897896+204241016+204706492+204594637+203755255
4407+202745678+202227731+202370102+202750076+202793500+202330968+201652770
4397+201060685+200591421+200258318+200246847+200584205+200947358+201117213
4387+201182968+201052624+200379812+199223106+198176585+197718954+197839550
4377+198240581+198606750+198771740+198728944+198448151+197906706+197371974
4367+197304944+197804850+198326424+198129427+197050306+195735288+194988534
4357+194908418+194886966+194513509+194141290+194351176+195109903+195790991
4347+195920401+195568539+195073067+194721079+194701332+195073282+195676318
4337+196087922+195784833+194648358+193360536+192886229+193443399+194450212
4327+195506787+196661374+197492104+196957318+194911182+192934841+192639938
4317+193750078+194771737+195070320+195323774+196143409+197156182+197610385
4307+197354831+196802543+196215160+195564302+194977799+194739963+194839844
4297+194929259+194658967+193885161+192867757+192331805+192796078+193849761
4287+194635972+194923299+195099706+195364182+195602969+195827719+196129605
4277+196370008+196353618+196106609+195720604+195224449+194716770+194281991
4267+193863386+193607186+193930201+194671102+194793871+193749019+192472327
4257+192262405+193285644+194699322+195635856+195747800+195327525+195010848
4247+195094824+195287925+195280098+195217682+195516067+196435476+197737300
4237+198660442+198565408+197597190+196354552+195211058+194403450+194326905
4227+195144100+196273161+196693740+195932698+194678283+194179185+194937068
4217+196262713+197263244+197747873+197932717+197893781+197636917+197272327
4207+196915905+196611183+196314556+195938909+195619951+195775409+196503332
4197+197160491+197056266+196346833+195772968+195763256+196097239+196261187
4187+196000284+195608049+195638495+196230401+196854350+196867616+196256915
4177+195735019+196059505+197252778+198563183+199245617+199223142+198913160
4167+198696632+198610717+198310429+197373356+195883511+194599495+194293067
4157+195006521+196111905+196998947+197503234+197686821+197549314+197203125
4147+197068598+197467529+198128511+198475975+198327034+198001704+197859189
4137+197987720+198257509+198478866+198497768+198304828+198144560+198286015
4127+198546434+198316461+197309378+196087778+195551288+195911031+196415945
4117+196319583+195929664+196175811+197242151+198303338+198610646+198212487
4107+197598106+197165894+197074558+197245795+197462807+197647364+197997341
4097+198621991+199094791+198733378+197454299+196033835+195375581+195719150
4087+196569410+197246585+197495802+197552653+197670737+197795372+197717159
4077+197334330+196739085+196189131+195952264+196061157+196238192+196091728
4067+195496429+194784016+194414220+194505879+194847904+195229601+195589703
4057+196031358+196711871+197523249+198051859+198057442+197758823+197532763
4047+197630059+198147647+198857188+199122920+198466551+197261036+196474251
4037+196563253+196989774+197067485+196843526+196799886+197123906+197629054
4027+198075986+198367029+198592317+198873434+199073823+198927664+198542736
4017+198328829+198377495+198391389+198202506+197921049+197620599+197276599
4007+197000007+197019609+197417606+198027895+198544172+198724977+198623068
3997+198528196+198571243+198605745+198650461+199064399+199946702+200778778
3987+201044546+200833691+200508917+200156265+199679965+199205173+199087448
3977+199504456+200197553+200733739+200937772+200936947+200903575+200939855
3967+201147084+201657491+202531394+203535568+204172299+204190968+203868169
3957+203554219+203315432+203229464+203643742+204871787+206601783+207723215
3947+207371191+206262164+205949776+206707750+207217888+206565630+205357583
3937+204710064+205408852+207666364+210517739+211900666+210778175+208713998
3927+207931432+208808134+209992539+210425469+210588592+211472278+212977758
3917+213618672+211909301+208207073+204603326+202976979+203743336+206461656
3907+211019781+217427745+224445082+229543072+231141612+229425312+224896897
3897+218745563+213791255+212763098+215649782+218794283+218528371+216508642
3887+216805896+219827736+222532503+223734392+224828305+225122203+222941199
3878+220318936+220518015+223531777+227270410+230778997+233384817+233417040
3868+231540848+230708072+231257595+230339605+226709003+222865499+221665404
3858+224424600+231758345+242649865+250162979+246514264+236201564+227061026
3848+222290754+222260326+225750011+230749916+236007350+241378917+245886868
3838+246978285+243846135+239074283+234955622+231685930+229153495+228058397
3828+228564820+229848028+232268340+237577921+244786349+248670297+247542672
3818+245419220+243216316+238388187+231937086+227940906+228630844+233394888
3808+239054070+242041282+243152643+245924925+250094728+251646487+250063727
3798+248104259+245931531+242536144+239259845+238312684+240168016+244041714
3788+249223896+254890976+259793819+263780681+268560378+275136618+281656041
3778+286080214+289884225+296302565+307095478+321875057+338078887+352051162
3768+362564664+371065151+378246185+384502802+391546689+399880229+406691611
3758+409629152+411222935+416099892+426719234+441685290+455537795+464371636
3748+471588178+481948377+495094895+505234688+510348745+515674375+525433136
3738+539588298+554111784+563292515+564527273+560714214+557004519+556308549
3728+558273133+560709332+561597954+560632249+558587962+555915525+553004444
3718+550763914+550452281+553432976+559774467+565403114+563872484+555286693
3708+546385930+542189684+543260547+546743626+548439516+546790587+544471035
3698+544270664+546690563+551671098+559543794+569757905+579310334+583390830
3688+580461619+574620681+570232392+569085129+571108556+575310080+581260916
3678+589013374+595585251+595611388+590551364+586245436+583330119+578347681
3668+570715855+563421692+558517019+556056299+555205661+555677456+557725656
3658+559790695+558488297+554420043+553531924+559733107+569919107+574621829
3648+568437448+557288543+547601696+541147794+537765063+536695384+536844523
3638+537437812+538437085+540197312+543374143+549004011+556783288+562127480
3628+559796296+552926608+548446301+549433189+555434575+563862503+570645091
3618+573027508+572404492+571950829+572986795+574779800+576854174+579191856
3608+580400262+579218208+577634801+578924993+583473945+588430677+591713025
3598+594343707+597267354+598956637+598475723+598392753+601995567+609111402
3588+615197375+615839814+612451266+609410829+608585359+609021718+609250057
3578+608963915+608836604+609396109+610662748+612912828+617126918+623378832
3568+628417529+627440048+620704456+613913933+611350568+612624172+614374490
3558+613900146+611689774+610227825+610808512+612402726+613684660+615028849
3548+617031704+618623046+618443318+616373037+612955050+608983733+605947317
3538+604924742+604854086+603592832+600958595+599030130+599251289+600690763
3528+601471678+601000386+600034035+599259546+598752460+598224442+597276114
3518+595706817+593918227+592918127+593363354+594772706+596182022+597113117
3508+597361490+596495199+594334229+591471258+588961387+587671842+587664985
3498+588019091+587704549+586722401+585910753+585885909+586442218+586510038
3488+584888754+581487927+577681582+575022716+573865903+573432201+572950497
3478+572471235+572403990+572579122+572283680+571284873+570102964+569150758
3468+568389339+567681557+567058829+566665804+566569191+566613889+566335501
3458+565249918+563549505+562409242+562870266+564520559+566001106+566523666
3448+566168734+565039996+562964366+559991928+556863422+554703996+553853466
3438+553344046+552255662+551141249+551188461+552489710+554037502+554842041
3428+554430706+552854551+550718498+548962507+548215269+548255552+548201411
3418+547473452+546450734+545717390+545082311+543883132+541993118+540192178
3408+539648471+540841295+542773818+543795710+543418913+542550432+542011141
3398+541847749+541781294+541346227+540029037+538059858+536514292+536090822
3388+536263298+535942725+534771765+533406143+532416922+531616225+530966210
3378+531277916+533085067+535521158+537122588+537158921+535831355+533907844
3368+532402309+532047593+532971723+534867805+537047552+538339502+537666475
3358+535143069+532236261+530640036+531061101+532789590+534102723+533515035
3348+531203131+528957287+528444528+529748973+531609296+532780470+532969712
3338+532629788+532441048+532998327+534105451+534376479+532602897+529525480
3328+527194224+526639854+527092261+527429529+527638086+528461079+529920263
3318+530793448+529870287+527368854+524820675+523972228+525600441+528607884
3308+530704015+530808527+529958105+529310747+528734979+527760191+526528377
3298+525553624+525419170+526426988+527902867+528596036+528480071+529015916
3288+530705271+531772077+530621834+528329101+527069140+527371008+528163340
3278+528484308+528404030+528833136+530510177+532780722+533859447+532829693
3268+530720458+529169507+528798706+529183904+529775612+530307508+530545828
3258+530293470+529688046+529029451+528232955+526920324+525094934+523409923
3248+522671409+523117749+524175328+524890003+524662094+523602432+522282191
3238+521175317+520250685+519220643+518081170+517117511+516627119+516824296
3228+517590132+518300713+518283696+517298424+515543116+513684624+512636164
3218+512685997+513224246+513574798+513424403+512479414+510610654+508412596
3208+506869436+506469482+507116194+508388254+509450250+509399627+508234017
3198+506835293+505593390+504025780+502219131+501331622+501867395+502548393
3188+501806899+499712492+497631692+496530240+496262372+496178504+495861664
3178+495239833+494376020+493403780+492511281+491773054+491020646+489999507
3168+488704505+487470645+486571934+485757235+484493001+482801886+481469797
3158+481147069+481579514+481971067+481808824+481020585+479635934+477802287
3148+475992873+474784252+474418909+474689937+475114483+475177313+474651629
3138+473794780+473022913+472367118+471446543+470038735+468533128+467616394
3128+467534824+467819961+467760435+467067266+466067920+465301008+464958139
3118+464699390+463970390+462570588+460904103+459523976+458549116+457826004
3108+457480622+457722748+458127764+457798610+456446451+454841108+453966272
3098+454045365+454520642+454722486+454394229+453674241+452817464+452057229
3088+451602094+451582347+451889672+452065846+451554882+450266521+448795776
3078+447971384+448154881+448826473+448926282+447893762+446221281+444777715
3068+443939643+443526370+443228953+442962449+442852336+442798878+442381655
3058+441571228+440990865+440992983+441102019+440749349+439916304+438847128
3048+437765817+436989605+436749274+436696641+436038190+434520771+432943109
3038+432216837+432319806+432652729+432860784+432748876+432025549+430740563
3028+429460137+428645833+428182189+427594357+426587688+425401147+424541354
3018+424074119+423533392+422729500+422082537+421842026+421624996+421115935
3008+420648772+420670923+421022229+421100604+420548137+419581786+418760229
2998+418444359+418406482+418061531+417133596+415955671+415064141+414647205
2988+414450137+414138360+413670155+413251568+412959968+412552404+411757738
2978+410674596+409688965+409017697+408543856+408103871+407672395+407193743
2968+406498456+405478107+404216315+402996097+402195759+401985550+402126503
2958+402246238+402191918+401930296+401364114+400538573+399769290+399243642
2948+398713398+397866674+396806725+395921837+395454279+395383084+395577532
2938+395866224+395991918+395676408+394888528+393989027+393346911+392855227
2928+392176670+391347789+390670884+390120391+389386509+388464856+387658486
2918+387027034+386358170+385672864+385278762+385270110+385315634+385027050
2908+384404860+383839037+383608615+383462241+382960432+382155606+381488179
2898+381079609+380667233+380184273+379818857+379533073+379064654+378378019
2888+377686286+377047509+376278119+375280604+374215737+373332141+372793640
2878+372630032+372711243+372808754+372762584+372574347+372369200+372297288
2868+372364713+372343674+372001308+371389242+370742280+370169456+369592682
2858+368913336+368158414+367506748+367116488+366881435+366519789+365948724
2848+365324703+364685855+363900380+363031612+362395348+362181872+362267535
2838+362372155+362252277+361869880+361433772+361104439+360742901+360131446
2828+359252912+358245093+357328755+356717587+356334435+355845946+355177406
2818+354623216+354333303+354105215+353739691+353268830+352818577+352439232
2808+352062040+351567986+350924901+350229901+349604264+349121807+348828879
2798+348683940+348437865+347786558+346780175+345891697+345536262+345658546
2788+345841074+345669389+345024652+344179651+343536458+343173879+342794928
2778+342159311+341364322+340652376+340123102+339712198+339334827+338923349
2768+338370774+337604651+336756634+336116170+335835700+335747667+335537099
2758+335067566+334459450+333872516+333339508+332820358+332302716+331832466
2748+331463675+331129603+330642729+329937748+329173743+328503229+327933851
2738+327453620+327077075+326750793+326351773+325770871+325005071+324209436
2728+323573064+323136490+322844065+322667891+322504894+322108818+321354830
2718+320490298+319929753+319777706+319683067+319266060+318586426+318009293
2708+317677698+317354037+316819952+316236142+315950394+316004607+316025681
2698+315686439+315119036+314707845+314543304+314285883+313650732+312854308
2688+312357417+312252654+312171622+311783301+311115730+310346627+309537098
2678+308691846+307905474+307303282+306929357+306807899+306986155+307350027
2668+307530401+307229394+306585196+306031185+305820114+305792290+305580142
2658+304978237+304125553+303356307+302889826+302693152+302627128+302605837
2648+302538269+302265159+301719513+301056915+300519742+300253238+300227011
2638+300187752+299803218+299044563+298296194+297942303+297982837+298120577
2628+298062917+297710229+297175444+296636530+296149423+295666876+295211794
2618+294874777+294632310+294338609+293946249+293574192+293287672+292971246
2608+292528155+292079554+291829942+291792801+291779337+291641292+291397963
2598+291129484+290896729+290760479+290706966+290565295+290175430+289610989
2588+289092647+288742795+288537379+288405150+288272275+288080789+287842612
2578+287635850+287498056+287359114+287135405+286855941+286616830+286436384
2568+286249709+286029824+285801144+285518986+285070044+284473991+283975431
2558+283803691+283902100+284016557+283992431+283859574+283675591+283411062
2548+283011808+282520626+282082724+281815448+281704007+281636707+281527995
2538+281402192+281337227+281319347+281238172+281049451+280825617+280636967
2528+280513875+280479876+280509962+280542651+280561428+280539205+280366567
2518+279988873+279508839+279055068+278706904+278577744+278753200+279117431
2508+279412280+279489524+279399534+279226682+278943268+278508542+278054753
2498+277829501+277924804+278159445+278255879+278078933+277702352+277313439
2488+277081832+277068584+277185949+277241311+277085332+276736881+276328005
2478+275959054+275670505+275512947+275542190+275732491+275943831+275990576
2468+275766670+275356071+275011354+274936407+275060073+275105418+274934451
2458+274736466+274776731+275028856+275190812+275042553+274661987+274296553
2448+274132282+274162368+274202525+274078571+273831239+273652822+273629360
2438+273669014+273684272+273716010+273828044+273957024+273962750+273818404
2428+273632824+273456005+273224487+272954375+272810370+272906679+273156506
2418+273371939+273459595+273505873+273655174+273885380+273978745+273811188
2408+273592344+273649932+273989803+274268496+274247995+274059669+273948174
2398+273996696+274165222+274372756+274512220+274559270+274628185+274790087
2388+274908888+274714979+273957347+272480732+270243684+267285248+263679957
2378+259534046+254977968+250137650+245176035+240363505+235991427+232167382
2368+228829888+226056242+224141814+223206357+223042785+223605808+225331083
2358+228736056+233957875+240938968+249757335+259986579+269777724+276604131
2348+278968345+277305271+273831832+270987978+269408826+268160138+266402424
2338+263994104+261246325+258582308+256267029+254402469+253072372+252312748
2328+251990990+251842012+251661261+251509681+251704919+252510139+253859875
2318+255428670+256856601+257922294+258679388+259430181+260416476+261573559
2308+262701040+263745892+264754446+265683028+266443496+267034792+267477631
2298+267731929+267831073+267998128+268448740+269102434+269633162+269826964
2288+269786502+269765104+269888196+270070042+270129245+269936502+269497002
2278+268963922+268557937+268379591+268298201+268117701+267825203+267553763
2268+267358363+267185673+267026158+266955125+267017074+267141046+267209458
2258+267206837+267242650+267393943+267599772+267755086+267822170+267803195
2248+267673013+267411284+267107567+266945144+266988514+267071108+267018995
2238+266880735+266806542+266836934+266929885+267064017+267230587+267412253
2228+267587044+267709867+267744513+267735716+267765857+267842814+267906720
2218+267912357+267847104+267729021+267628835+267614204+267645260+267600849
2208+267432502+267254516+267262540+267535345+267898983+268062752+267923540
2198+267634830+267386780+267278391+267374250+267682024+268054764+268272871
2188+268261544+268145382+268073990+268054010+267998684+267891874+267808940
2178+267811237+267925497+268158935+268407793+268462239+268260970+268031355
2168+268011358+268137357+268185449+268134431+268175306+268381997+268593337
2158+268667422+268677833+268775560+268969182+269128050+269166323+269158819
2148+269236207+269390893+269473450+269405864+269303165+269320201+269464313
2138+269641761+269814703+270004592+270194372+270342218+270462007+270588545
2128+270697761+270759495+270835375+271021745+271290636+271485587+271519102
2118+271483738+271506123+271596041+271715650+271875165+272090723+272357766
2108+272674856+273001264+273249655+273398614+273518762+273666267+273854666
2098+274081174+274284777+274380547+274404817+274502257+274740595+275054096
2088+275354617+275586924+275700233+275670595+275554109+275454372+275433298
2078+275506054+275693950+275984239+276257744+276381123+276389524+276493516
2068+276869056+277441449+277898344+277985623+277781589+277589888+277611501
2058+277798014+277946525+277897500+277719927+277676197+277924589+278330107
2048+278638743+278766915+278873258+279153961+279569927+279852282+279832895
2038+279629328+279439637+279336956+279325737+279428131+279644138+279910085
2028+280142033+280317902+280499981+280754925+281113842+281638251+282358760
2018+283058374+283354354+283168738+282887245+282891014+283160498+283462708
2008+283717848+284012213+284380752+284756579+285118907+285550526+286073769
1998+286570624+287070296+287925242+289292408+290593227+291045221+290638033
1988+289975740+289423075+288993592+288746745+288791389+289053567+289309660
1978+289405663+289404388+289498991+289736720+289985972+290275508+290820597
1968+291505455+291761440+291280849+290455792+289830048+289541859+289492762
1958+289664538+290026524+290380254+290519268+290465217+290443460+290650940
1948+291166231+292119477+293609628+295116455+295480470+294227617+292373990
1938+291177163+290876210+291000146+291174955+291325189+291471707+291590759
1928+291756162+292385838+293820950+295530841+296605169+297135251+297765124
1918+298051231+296999073+295068417+293830966+294036077+295102794+295953521
1908+295952085+295284281+294569857+294178736+294066648+294136676+294508231
1898+295375653+296580737+297532368+298022527+298745028+300134813+301241328
1888+300911887+299542476+298340354+297777780+297635067+297658189+297694971
1878+297708955+297836229+298313140+299629809+302588461+307318756+311876755
1868+313073133+310195298+305963401+303050705+302047805+302197806+302602104
1858+302793787+302810051+302910578+303213451+303776725+304832006+306679261
1848+309640354+313842882+318005416+319140580+316174641+312069085+309826939
1838+309693956+310223482+310608644+311822470+315177234+319877120+323009719
1828+323256189+322313641+321293580+319464205+316856393+314967707+314634819
1818+315169012+315622317+316117771+317522456+319941349+322063868+322519578
1808+321559079+320660225+321129111+323442415+326954898+329942667+330924636
1798+330404660+330560082+333188825+337852988+341123740+339580185+334775859
1788+331042575+330305174+331578563+333356239+335166980+336732795+337459174
1778+337760683+339462712+344109893+350993475+356352638+356593974+352797718
1768+348162205+344585313+343387176+345196338+348341538+350007916+350038218
1758+350162404+350514213+350868678+353000208+358571591+365767453+369984881
1748+369285752+366253034+363925261+363495795+364731523+366400916+367092972
1738+367645368+371150383+378488850+384348745+382729148+376529867+370714707
1728+366605093+364526735+364664529+366320818+369280367+375095312+385016423
1718+396235481+401523413+397814400+390183975+383857276+380938009+382005533
1708+386732777+393154510+398462009+402744600+409153875+418317157+425158626
1698+425957851+422662362+416495968+409154880+404711374+405037081+408724948
1688+414583909+423864880+436129956+443354540+439260617+430778046+425601483
1678+425826878+430231718+435428996+438839157+441860459+446011396+448302871
1668+445447224+440924050+440052625+443155353+446047621+445588249+444028789
1658+445763956+453651910+468328412+484391217+488462845+481990921+479112763
1648+482512548+485100363+480478242+472615348+467973875+468461287+473951099
1638+483789456+494420036+497909865+491805869+484298014+481699824+484070787
1628+488401309+492330189+495770041+498359830+498623821+497733799+499460385
1618+505021499+510107337+509486260+505270268+502530047+502754473+504538862
1608+506094409+506901748+507561169+508578035+509729679+510572884+511203081
1598+512169755+513793373+515830587+517737188+519105001+519835688+520073470
1588+520136084+520418242+521135537+522115459+523164243+524943498+528982886
1578+535811106+542252298+543237570+540436458+540144392+543916952+547628335
1568+547573584+545825528+545811275+548880219+556691306+571698219+590576317
1558+597769342+589236113+578906934+572966330+570894865+571319089+573097015
1548+576212525+582166125+592155128+605639991+620982557+633839091+635444721
1538+626626067+619902897+621128680+627161589+631561222+632952012+635779189
1528+642701618+652285712+662430173+673185838+684033054+691601871+694594989
1518+695738339+696113161+695142214+694536898+697434157+705539644+718760014
1508+733940802+740812106+732159537+719262002+712954224+714386589+720594774
1498+726775098+728390351+725767962+724165993+727575436+735135421+741375631
1488+741224123+736222907+731522268+730009696+731387705+734041473+737302998
1478+741969889+748803854+757178179+764297425+765737330+760787671+755150551
1468+753919598+757112980+760694683+761033890+760100641+762866999+771476198
1458+782077840+784944653+777152451+767418858+761596912+759893699+760302197
1448+760135107+757958842+754916754+752817248+752224355+753367633+756955296
1438+762279131+765293503+762722814+757719588+754808831+754418786+754351146
1428+753561579+753264881+754318403+756043373+758206857+761663045+765305279
1418+765087710+760048079+754375847+751275237+750477843+750193926+749623508
1408+749492679+750253883+750877079+750553310+750548930+752412053+755678030
1398+758794365+761052703+762011299+760799518+758122414+756565180+757533542
1388+759585871+760337956+759989702+761126016+765157577+771167867+777562601
1378+783650943+789584331+795121426+799078526+800807158+801436457+802374517
1368+803969161+806367662+809869375+813554262+815194430+813818719+811113109
1358+809342685+809255442+809894219+809787517+808507019+806842078+805531781
1348+804385989+802743953+800749714+799944996+801886961+806029748+809740916
1338+811113252+810968493+811141112+812160168+813328363+814032195+814358693
1328+814777244+815717960+817431801+820005434+823477276+827750748+832144493
1318+835551567+837675557+839370872+841256686+843150183+845182550+848091513
1308+851770153+854671216+855639363+855700038+856949588+860005320+863434150
1298+865676547+866616689+866898165+866682391+865629874+863480249+860284354
1288+856429361+852580041+849272848+846522933+844107630+842077848+840592562
1278+839430255+838186162+836934028+836187687+836210880+836799322+837614523
1268+838335158+838719673+838907156+839340786+840097251+840718436+841034450
1258+841615136+842905400+844379771+845164958+845386261+846284397+848753052
1248+852126592+854726291+855622848+855483905+855586730+856615982+858506750
1238+860819157+863044823+864922092+866545818+868083664+869613613+871163882
1228+872680187+874206114+876185705+879095242+882656481+885935885+888346736
1218+890085350+891563886+892847758+893829906+894799202+896332094+898398569
1208+900213152+901412366+902802367+905318053+908730440+912155250+915500140
1198+919247425+922763499+924393399+923999262+923902325+926262411+930574873
1188+934378740+935948325+935806797+935815055+937415444+940731181+944710181
1178+948036761+950401227+952798866+955985714+959111168+960932285+961693274
1168+962396532+963202686+963959582+965048505+966514690+967732287+968769509
1158+970586175+973310383+975776955+977097879+977505803+977533233+977255060
1148+976792421+977238258+980037287+984967702+989907668+993226206+994910535
1138+995357449+995202063+995665636+996937086+997568036+997104966+997132683
1128+998665001+1000996939+1003608772+1006911082+1010705041+1013571064
1120+1014440119+1013902731+1013192508+1012659931+1012087861+1012078023
1111+1013934684+1017889701+1022293643+1025350667+1027096533+1028419108
1103+1028902140+1027247108+1023795515+1021060034+1021379207+1025012035
1094+1030129646+1034278177+1036879958+1039561155+1043267081+1047064055
1085+1050191951+1052987533+1055185124+1055363631+1053052661+1050358826
1077+1050060835+1052157396+1053881146+1053605702+1052652420+1052179656
1068+1051303779+1049150420+1046221568+1044128166+1044870486+1049030937
1060+1054447400+1058369171+1060989047+1064396767+1068340870+1070239608
1051+1069784293+1069688074+1071579201+1073741823+1073428466+1070736283
1043+1068147068+1067156590+1067344576+1067681341+1067404461+1065685953
1034+1061615904+1055492737+1049141229+1044603515+1043427780+1046124775
1025+1050869503+1054221717+1055011859+1055927587+1059382124+1064091811
1017+1066963794+1066543017+1063701192+1060171332+1057427808+1056512511
1008+1057526540+1058883941+1058374988+1055601737+1052181738+1049496664
1000+1047359174+1044922472+1042458629+1041665041+1043429145+1046044712
991+1047088038+1046304502+1045023143+1044032235+1043058488+1040885311
983+1036232924+1029846447+1024521751+1022145294+1022238066+1023238237
974+1023691613+1022512791+1019137097+1013553831+1006622498+1000364911+996424973
964+994337244+992687597+991058630+989411280+987102392+984194938+982005963
954+980885160+979267610+975882508+971487686+967798491+965602695+964108937
944+962029034+959222035+956654505+955027548+954250547+954001599+954051001
934+954178455+954098823+953242980+951151086+948722427+948195881+950632654
924+953740085+953814906+950350461+946643099+945408413+946060330+946440250
914+945606020+944367384+944025306+945040699+946360259+946177587+944163387
904+942112996+941549973+941808399+941188794+939627037+939119878+940837668
894+942825588+942016705+938217003+934336806+932752358+933530293+935887075
884+938964779+940812106+939036656+934023306+929196289+927124645+927714379
874+929991170+933023278+935103899+934587047+931882728+929073431+927805284
864+928106793+928722233+928599518+928097027+928093581+928340733+927750066
854+926013247+924207425+923669821+924392250+924983995+924509221+923475517
844+922563809+921634796+920372753+919034667+918608936+920272513+924059004
834+928318617+931102711+931837060+931802738+932978328+935829057+938451087
824+938772486+937121690+935691263+936260748+938796181+941510911+942654621
814+942585616+943093493+944817314+946496760+946459278+944421525+941827212
804+939794773+937490336+934050592+931011662+930636338+932843550+935415748
794+936579490+936540572+936635786+937476765+938697019+940461841+943524753
784+947340971+950141221+951088759+950609533+949314243+948242554+948743107
774+950449839+951039214+949134946+945937041+943336481+941763162+940927352
764+941211485+942694185+943991414+943949551+943292321+942795646+941752966
754+940080844+939560186+941294778+944000246+945979765+947338745+949084108
744+951248741+952931562+953346594+952235915+949980952+948185972+949315464
734+954331615+960861629+964684023+963424348+958198312+952024880+947399277
724+944747951+942875924+940535441+937767144+935600933+934466127+934017849
714+934080822+934798010+936178388+937781505+938823036+939209060+939461167
704+939059921+937354553+935349041+934409329+934738770+935688965+936714986
694+937226812+935801627+931901613+927335105+924080043+922014932+920184767
684+918787515+917913433+916508282+914404540+913269734+913644197+913084908
674+909316010+902371752+892296799+879859821+871874320+876453825+887486297
664+893702309+893063101+888969142+883489274+876931400+871496267+870886356
654+875445324+880030214+879210417+874561836+872517190+875182446+878443325
644+879501371+880353049+882329983+883716035+882916630+879935719+876196907
634+873715758+872392249+868770981+860479304+850114258+842413249+840010870
624+842602024+848147808+854328707+859687008+863965291+867283183+868886516
614+867022962+860423512+849886134+838548059+830749323+829972537+836393983
604+845857589+852660965+853957044+851251074
##END=
