##TITLE=<SNM>
##JCAMP-DX=4.24
##DATA TYPE=INFRARED SPECTRUM
##DATE=2/5/2025
##SAMPLING PROCEDURE=Instrument type and / or accessory
##ORIGIN=Admin
##XUNITS=1/CM
##YUNITS=ABSORBANCE
##RESOLUTION=4
##FIRSTX=4497.3318
##LASTX=599.83466
##DELTAX=-1.4281778
##MAXY=1.7249465
##MINY=0.2259405
##XFACTOR=1
##YFACTOR=1.6064816e-09
##NPOINTS=2730
##FIRSTY=0.24375233
##XYDATA=(X++(Y..Y))
4497+151730545+152942649+154934549+156195880+155962653+154816396+153708725
4487+152983481+152500553+152324168+152726712+153485553+153841970+153512388
4477+153137744+153333896+153955207+154623193+155238744+155706218+155867039
4467+155784931+155560730+155078331+154391358+153956710+153997643+154016501
4457+153442514+152481316+151773250+151429336+151067456+150640006+150530424
4447+150921179+151549493+151896699+151449594+150266059+149270781+149372350
4437+150407039+151488784+152076508+152198399+151941278+151257820+150269342
4427+149422077+149179361+149587832+150152367+150134391+149176114+147816860
4417+147124164+147524594+148349607+148839028+148963637+148790219+147988182
4407+146719783+146052233+146595461+147525095+147761661+147378057+147080689
4397+147035071+146901558+146490971+145858808+145107378+144458843+144279109
4387+144664030+145112016+144984077+144323651+143796386+143680746+143448187
4377+142639972+141624817+141009108+140773006+140643063+140917613+142073480
4367+143755489+144973438+145198539+144626315+143597330+142442011+141634834
4357+141472520+141781612+142308998+143050902+143950157+144733579+145227136
4347+145385620+145019204+144078959+143127880+142785711+142842506+142721041
4337+142553133+142913789+143739804+144388905+144614897+144718190+144838319
4327+144773186+144440941+143992157+143512486+143048740+142840344+143085453
4317+143572638+143945139+144173533+144429866+144767732+145263840+146055359
4307+146834615+146835283+145785493+144418262+143709343+143971788+144784725
4297+145424244+145362440+144703164+144096425+144040771+144464752+145034184
4287+145510433+145741953+145611482+145109725+144356774+143582313+143104079
4277+143128158+143476543+143713183+143680087+143705391+144108585+144676775
4267+144925919+144848235+145019361+145730405+146406600+146381092+145881886
4257+145614598+145736536+145936130+146092313+146230882+146265285+146164663
4247+145958187+145489924+144729943+144236079+144657899+145837613+146939959
4237+147395505+147298936+146998294+146723187+146575036+146546495+146573367
4227+146775817+147411552+148298007+148676555+148098515+147120584+146636172
4217+146808662+147219815+147723584+148495198+149360421+149657224+148928334
4207+147584004+146710489+147045071+148184417+149104719+149376913+149377136
4197+149429497+149368955+148978682+148363558+147843333+147730152+148042667
4187+148343142+148204072+147859705+147903727+148388240+148861113+149211009
4177+149701543+150257859+150562314+150752131+151211869+151804499+152051454
4167+151977852+152090598+152507631+152693264+152230484+151423836+150872213
4157+150779345+151011079+151536711+152339908+153051444+153187805+152750579
4147+152188975+151806160+151580205+151471912+151455206+151366058+151186212
4137+151243759+151670559+152069495+152181341+152336143+152777970+153162223
4127+153192406+153176275+153509457+154042018+154326818+154239395+154057833
4117+154075206+154376869+154876623+155361962+155548207+155243957+154548200
4107+153882050+153713243+154172526+155022770+155960816+156705688+156920827
4097+156498284+155848822+155461480+155282701+154954306+154484225+154233894
4087+154364774+154686008+154976772+155183702+155383889+155733971+156373916
4077+157304561+158350687+159107840+159048216+158100356+156992324+156498859
4067+156546406+156551842+156320656+156070566+155881788+155685812+155615743
4057+155923825+156547278+157054489+157199245+157266215+157568082+157940629
4047+158158125+158412500+158846026+159025268+158441106+157284581+156326685
4037+156115144+156518097+157100293+157742668+158599108+159561234+160245332
4027+160527274+160668171+160902029+161198794+161367166+161209498+160720579
4017+160238301+160120222+160198341+159950830+159335205+158990151+159394031
4007+160239989+160888450+161125980+161222113+161437512+161716134+161900015
3997+162075232+162440581+162887556+163092177+163020161+162935252+163018287
3987+163309654+163784845+164210153+164218853+163738245+163149686+162988679
3977+163582265+164798155+166006939+166513296+166184883+165507389+165017895
3967+164964708+165494218+166641208+167867541+168165308+167153019+165688005
3957+164996060+165547126+166916119+168471980+170015930+171525950+172468523
3947+172360221+172019396+172703086+173959751+173903262+171920388+169500204
3937+168359615+169275158+172107868+175667064+177855116+177350224+175298617
3927+174120943+174813074+176130624+176637112+176892786+178313853+180548320
3917+181285066+178980827+174914642+171579137+170203243+170678991+173078657
3907+178166796+186042454+194745203+201038583+202933042+200227112+193611422
3897+185561326+180106038+179887634+183836612+187360487+187031517+185548897
3887+187046933+190768194+193068666+193810384+194990878+194741530+190710685
3878+186355359+186212273+190032894+195049741+199845679+203031122+202478090
3868+199881557+199296616+200623813+199877030+195553279+190934877+189651851
3858+193412366+202931743+216568080+225081921+218998987+205259820+193896332
3848+188379918+188861769+193748349+200446017+207254381+213924260+219126267
3838+219646223+215058468+209324799+205308424+202567024+200050355+198083880
3828+197293150+197993517+201583397+209565985+219043529+222822521+219963859
3818+216285655+212706182+206185715+198195355+193305288+193847969+199344404
3808+206479753+211151416+213957894+218212764+222543380+222401184+218795145
3798+215569909+212288889+207501392+202966156+201030624+201661907+203747481
3788+206850464+210513325+213616810+216155332+219771834+224653553+228077937
3778+228311183+227531898+228830675+233684845+241977684+251615586+259377431
3768+264225220+267376752+269831497+273251874+280345242+291602542+303483444
3758+312540652+320624975+332471130+350503773+371950968+388654521+396438869
3748+402172445+412570375+425432770+432064711+432042561+434205086+444018019
3738+461752208+483208679+500219442+506374986+503434605+498505302+497062456
3728+500319248+506203090+511709338+515456033+517328304+517189244+516243350
3718+517491556+523606732+535581114+552271533+569067620+579086250+580032960
3708+576242595+573849589+577411884+586781700+595623101+597657659+594537368
3698+591663994+591907090+595895731+604164899+616722163+629698871+634596043
3688+627775843+616581952+608601925+606032978+607744298+611438938+616638459
3678+624585391+632047020+631485213+625422203+622769812+622634017+617503617
3668+607843102+601079335+599898137+601667189+603601867+605863864+610299480
3658+617173330+624001618+629320276+636400268+649052255+664363608+670168755
3648+659635623+643614721+633865270+632665001+636495325+641135822+645050072
3638+648897537+652760586+655967215+659428665+665647654+674747958+680897120
3628+678343645+672371165+670169051+671907902+675379963+679564988+683196665
3618+685147742+687255244+691510022+696479247+699271811+699208366+697789711
3608+696933235+697741774+699447604+700524840+700868039+701115736+700827820
3598+699611820+698264847+697576371+698308405+702360603+711189389+722414261
3588+729578699+728660632+723045525+717555824+713932755+712715864+713721493
3578+714401510+711477083+705556472+701247302+702304726+708986905+718987391
3568+727586364+728712650+721620488+713156717+709548935+710645242+712631641
3558+714056233+716514057+719964302+721656626+720468601+718720549+718390707
3548+719023010+720012981+721878500+724054864+724355618+722135695+719295936
3538+717421216+716267399+715452329+715753603+717740744+720415470+722348664
3528+723619205+725455784+727847343+728380582+725025913+719454364+715101710
3518+712928462+711638256+711117113+712618656+715684963+718096335+719366802
3508+721049034+723461445+725161783+725176105+723471314+720179423+716539584
3498+715241735+717794097+722437339+726187596+728399059+730552049+733022785
3488+734090821+732432631+729024312+725677806+723387537+722826991+724478947
3478+727368868+729037001+727897284+724643608+720662722+716848649+714384888
3468+714497086+716682429+718692945+718776871+717150070+715649122+716302944
3458+719165335+721601121+721253173+719026349+717068816+715381092+712726476
3448+709803088+709359934+712965268+718475375+721442173+719993985+717142130
3438+716827723+719539775+722484608+723164253+722122709+721570993+721926362
3428+721628354+720510304+720281159+721133109+721113370+719613534+718429442
3418+718709789+719537697+719782203+719485976+719186484+719396781+720997981
3408+724777103+729881456+733293931+732199553+727335847+722717019+721732390
3398+723797743+725051069+722943641+719228187+717210696+717632775+718534071
3388+718090399+716500775+715484683+716443637+718975147+721167985+721633029
3378+721332721+722647859+726314264+730080252+731475310+730961810+730017549
3368+727932976+723735708+719409841+717886112+719089349+720475576+721192027
3358+723097765+727102397+731139902+732736650+731869340+730032687+728068623
3348+726484936+726576505+729304066+733106340+734753399+733199097+730744463
3338+729875668+730827127+732517967+734137718+735072259+734970226+734551412
3328+734789314+735287379+734697003+733123778+732567685+733931354+735280033
3318+734291397+731130998+727827085+725786962+725197624+726060037+728356985
3308+731349458+733830880+735501239+736925682+737792844+736606822+732799279
3298+728325596+726098401+727021811+729325659+731010043+732126683+733265436
3288+733425348+731570144+728626424+726150938+724651251+724228207+725177737
3278+727320190+729920414+732456748+735028032+737898809+740511054+741579758
3268+740530570+737952459+734682088+731695625+730191708+730474801+731646650
3258+732863318+733881339+734425709+734165100+733322055+732583194+732577999
3248+733542815+735224231+736981781+737931237+737414843+735719476+733820046
3238+732290528+731427151+732064054+734676522+738070742+740240057+740209559
3228+738546398+736987643+737231110+738783112+739002760+736442458+732818721
3218+730757226+730995944+732108206+731923880+729299984+725343586+722664407
3208+722767478+724483325+725488880+725052108+724532375+725525389+728370713
3198+731863997+733418373+730810283+725174472+720524923+719530202+720971415
3188+722124490+722139331+721611955+720747613+719505492+718135961+716920479
3178+716191339+716343311+717050042+717080985+715838419+714661450+715723475
3168+719654570+724476795+726847057+724911489+720225802+716378633+715780168
3158+717861921+720054091+720528410+719752966+719131126+718918306+718114886
3148+715985420+713048971+710630179+709763017+710427228+711556631+712083933
3138+712217576+712965862+714230021+714463768+712740426+710157195+708584119
3128+709087378+711551659+714448853+715125233+712011954+706777148+702725025
3118+701238101+701161298+701136737+700950778+700606540+699835400+698771446
3108+697864139+697273614+697128468+697809375+699439589+701511473+703045888
3098+703107627+701683109+699543254+697212988+694954850+693403664+693310388
3088+694383099+695030168+693856687+691183741+688806207+688362534+689989186
3078+692172377+692848016+691174911+688319272+686181792+685659758+686386004
3068+687467471+688024974+687469029+685692111+683045064+680318393+678670370
3058+678885639+680324924+681155725+680319358+678802233+678225065+678795851
3048+679470599+679643275+679593557+679403072+678552978+676734950+674304507
3038+671888312+670059376+669322296+669748160+670425950+669954598+667850807
3028+665190031+663675874+664128377+665710803+666605050+665766160+663758316
3018+661669143+659989879+658692104+657447460+655790161+654118764+653884795
3008+655609620+657770327+658735663+658538796+657652712+655634627+652146909
2998+648087958+645041093+644159758+645364999+647204249+648000248+647491423
2988+646683551+646116252+645429928+644660940+644452943+644584954+643835630
2978+641905626+640015768+639108313+638863436+638604608+637973270+636866277
2968+635624230+634926256+634825337+634569329+633694821+632430364+631136077
2958+630071678+629267442+628207569+626240612+623519285+621088100+620024034
2948+620612519+622043380+622902046+622368251+620877839+619350882+618045612
2938+616595606+615044680+614106800+614101383+614395978+614326893+613834987
2928+612918775+611577776+610406966+610085991+610259186+609782863+608042195
2918+605520479+603238484+601969983+601801278+602082627+601813670+600508141
2908+598793778+597760434+597582675+597283220+596078536+594402797+593297176
2898+593216664+593589433+593411564+592257932+590496264+588540957+586472561
2888+584566304+583514222+583583567+584033325+583915710+583198108+582593633
2878+582396544+582056276+581011986+579494861+578250514+577706812+577630937
2868+577474921+576843249+575636969+574029536+572519164+571704947+571731290
2858+572089479+571999505+570959482+569090550+566985793+565098124+563412887
2848+561893499+560797673+560148452+559439681+558391384+557453059+556929393
2838+556223071+554758817+553076808+552114069+551984210+552167609+552259029
2828+551896982+550623547+548495156+546259836+544554674+543477734+542947501
2818+542810704+542637732+541972816+540718488+539074583+537360963+535899528
2808+534802479+533955760+533305352+532903122+532652086+532324915+531759769
2798+530792244+529265398+527326231+525401014+523771764+522466458+521517373
2788+520948813+520523098+519838221+518717611+517377948+516224057+515472543
2778+514958858+514289416+513183907+511735644+510349008+509306537+508421751
2768+507371191+506254440+505417813+504888396+504366437+503635330+502716373
2758+501684364+500459644+498891317+497181630+495946150+495455320+495130004
2748+494278425+492992894+491793664+490769150+489581496+488085964+486582493
2738+485514420+485074791+485047224+484966155+484470056+483541972+482472675
2728+481567186+480818455+479965986+478895094+477741203+476566906+475316622
2718+474153270+473398010+473023310+472576150+471751619+470732114+469816681
2708+469016712+468169289+467189594+466102896+465059757+464306426+463905940
2698+463583110+463024086+462211650+461372204+460679980+460011280+459007173
2688+457510417+455847144+454488373+453550382+452760022+451842215+450916060
2678+450415212+450412652+450243353+449235869+447558201+445867101+444515342
2668+443535722+442940151+442591387+442110537+441293798+440457876+440070154
2658+440095310+439986117+439341941+438275650+437124987+436153195+435510430
2648+435150832+434813198+434280961+433571485+432820009+432151161+431654542
2638+431288191+430852644+430264864+429761939+429542922+429299455+428524864
2628+427272057+426128184+425407800+424854192+424192838+423508518+422949419
2618+422391284+421596324+420595111+419695521+419081213+418617616+418120849
2608+417586498+417090844+416663793+416276071+415829504+415214603+414467097
2598+413758734+413182159+412641612+412010274+411346768+410863432+410651465
2588+410511737+410104350+409268911+408248627+407534587+407329150+407261660
2578+406854571+406118381+405410129+404899449+404491988+404123782+403815126
2568+403489959+403003210+402319409+401475844+400503088+399579345+399017166
2558+398880962+398891759+398812582+398582472+398120396+397432996+396791863
2548+396421950+396192693+395857360+395375880+394862157+394390472+393926392
2538+393383952+392750685+392144911+391729399+391568262+391531123+391367203
2528+390968128+390485534+390103971+389832269+389576150+389259516+388861368
2518+388464927+388227990+388199235+388222127+388060657+387598655+386966464
2508+386494742+386454634+386756018+386980452+386792861+386239624+385612776
2498+385177117+385048334+385112225+385031601+384560991+383851181+383245593
2488+382860727+382558156+382203381+381768019+381283385+380842198+380570718
2478+380499110+380516808+380496698+380362535+380024122+379437382+378769832
2468+378310761+378175708+378232401+378265756+378112708+377770288+377438442
2458+377307247+377317822+377276564+377134423+377026566+377077434+377211560
2448+377175125+376814376+376282103+375832530+375522501+375286157+375154072
2438+375183866+375269127+375216813+374989485+374707542+374419329+374054462
2428+373660433+373484715+373664069+373950983+373934436+373525008+373069685
2418+372947395+373178804+373492210+373648931+373606226+373429395+373172459
2408+372896565+372707082+372655027+372643710+372541752+372342808+372117670
2398+371905628+371755177+371753025+371878877+371919987+371688912+371296033
2388+371009192+370810805+370338785+369339093+367902629+366209786+364369979
2378+362536591+360871204+359415595+358221893+357464517+357204688+357179755
2368+356999510+356519328+355944387+355512327+355245262+355250716+355960823
2358+357703421+360352732+363751367+368110774+373474289+378990184+383351372
2348+385883810+387005978+387713377+388369350+388305348+386978708+384566891
2338+381374731+377539361+373208152+368696847+364627100+361714991+360121212
2328+359243142+358345222+357212516+356182400+355664076+355679919+355926985
2318+356152458+356257941+356208780+356113834+356257236+356843791+357797253
2308+358846960+359715013+360276449+360646956+361043211+361490261+361779438
2298+361796468+361758216+361987918+362524384+363078623+363357894+363353739
2288+363308399+363425310+363638612+363737639+363698459+363705175+363797820
2278+363754373+363454546+363111867+362970654+362997146+363031057+363017404
2268+362940045+362757389+362565679+362604452+362933663+363303057+363481928
2258+363527268+363590527+363671560+363743613+363927790+364319853+364770873
2248+365030183+365027251+364902438+364842481+364961914+365275282+365709123
2238+366139958+366471062+366719390+366995619+367373434+367854581+368458760
2228+369209568+370041965+370858296+371635781+372402395+373202216+374108744
2218+375156966+376277428+377387537+378514158+379784254+381328947+383176471
2208+385205649+387260428+389325076+391484448+393692683+395757257+397641513
2198+399566804+401696493+403969695+406323670+408757489+411127603+413226423
2188+415084076+416925886+418856594+420734728+422356965+423729241+425064675
2178+426459473+427752796+428753750+429366276+429505003+429126260+428326921
2168+427324409+426348054+425470392+424533923+423321039+421701918+419660682
2158+417376015+415122032+412934425+410594735+407909732+404814967+401404013
2148+397849250+394169080+390648823+388545959+389247977+392588844+397004127
2138+401227813+404953916+408291703+411443235+414538259+417490625+420303818
2128+423238003+426426637+429695005+432772629+435476147+437919094+440513307
2118+443506671+446747880+449987271+453075580+455920681+458484397+460759714
2108+462787927+464727169+466740171+468971224+471737223+475356322+479746784
2098+484492652+489109773+493123273+496216220+498263875+499064587+498357003
2088+496121720+492557384+487817082+481830058+474445490+465972221+457267691
2078+449042268+441598558+435203925+429988932+425700688+422100808+419214968
2068+416994043+415167594+413393125+411439747+409480581+407926168+406767565
2058+405657121+404556955+403599782+402692698+401799416+401046270+400379944
2048+399670394+398978913+398426789+398098246+397997958+397902715+397623407
2038+397388733+397588085+398461963+400252868+403176033+407203966+412178942
2028+417900942+424005730+430032750+435508389+439981293+443353289+445869550
2018+447398771+447356548+445653910+442985194+440029415+436928862+433498987
2008+429611302+425339123+420819173+416164058+411627857+407588757+404164410
1998+401128675+398441668+396510922+395526405+394816818+393442537+391281422
1988+388905186+386748041+385010972+383877598+383300727+382929070+382481910
1978+381943217+381409904+380955583+380602218+380414256+380594055+381201907
1968+381755033+381533864+380451841+379217660+378490227+378252993+378135192
1958+377992124+377879815+377733037+377430836+377024340+376692457+376620181
1948+377037103+378235592+380236349+382191026+382588357+380889058+378398732
1938+376672088+375991441+375781626+375584128+375300516+375011042+374826308
1928+374954534+375869039+377788505+379874896+381036356+381540357+382168319
1918+382223193+380502078+377758007+375988102+376053588+377221874+378171775
1908+378058241+377033356+375872230+375114187+374741825+374577832+374718710
1898+375428780+376543861+377369951+377760048+378605096+380202141+381088077
1888+379957226+377715339+375997563+375202788+374947893+375029222+375341774
1878+375675809+375884622+376091321+377044004+380011396+385297478+390505570
1868+391703687+388034648+382789490+379134179+377711332+377588151+377747062
1858+377725134+377576575+377525893+377656939+378069446+379098079+381148480
1848+384626885+389583496+394216201+394853661+390678542+385673587+383214760
1838+383132356+383579368+383899712+385507924+389773424+395222572+398081438
1828+397189306+395167623+393452555+391030868+387859895+385618490+385156562
1818+385665721+386204636+387036848+389076674+392195742+394676830+394996506
1808+393703851+392676443+393414933+396344703+400506947+403737322+404400122
1798+403358430+403385070+406699074+412684243+416839251+414797421+408825275
1788+404509835+404047314+406027442+408568562+411022751+412911199+413619562
1778+414027431+416568254+423000324+432117323+438851927+438646935+433315180
1768+427275879+422999916+422012949+424891814+429473503+432303096+433128109
1758+433945257+434942834+435965011+439083633+446146224+455195326+461229767
1748+461905368+459725553+458065434+458623198+461382333+464735295+466669379
1738+468145988+473114768+482926031+491456624+491352143+485691993+480315084
1728+476999707+476365550+478615229+482748681+488538802+498109269+513147732
1718+530060915+539442456+537349275+530488893+525530502+524958936+529305357
1708+538104313+549053736+558747495+567132683+578076985+592679418+604784401
1698+609350432+608785100+604908398+599610221+597672797+601665371+610075714
1688+621072554+635787482+653972653+666378205+665250879+658835988+656468471
1678+660596581+669695919+679771946+687750118+695169748+703681901+709515394
1668+708671310+705672529+707237294+713760525+719987454+722091617+722988758
1658+727785456+739339651+757966566+777311268+782560322+776387785+774787475
1648+780136483+783776693+778049313+767777607+760823095+759730572+764530239
1638+774105455+783401289+782862411+771276827+759354946+753780503+753794231
1628+755705385+757058072+757580625+755925701+750463753+744391319+742785370
1618+745353092+745368304+738219450+728735209+722400608+719638467+718210834
1608+715985865+712668892+709585592+707884364+707299849+706711847+705677872
1598+704800618+704431818+703878544+702426497+700428893+698754230+697739622
1588+697068065+696331653+695479480+694741807+694585382+696206988+701201963
1578+709175683+715056742+713269287+708030029+707341256+712042823+716307025
1568+715320986+711702221+709958548+712289036+721049702+738788232+760184708
1558+765630034+752396427+738345598+730070976+726575095+726002973+726577025
1548+728371974+733917106+745059833+760663332+777596884+789497469+786402667
1538+771991646+761669851+760791558+764409359+765042923+762572186+763198330
1528+769757327+779666690+789482850+798686596+806720867+810778556+810733587
1518+809305731+806448979+801403990+797062615+797791829+805958483+821334245
1508+838733213+843445836+827872169+808877270+799138876+798891328+804540866
1498+810613746+811370119+807072822+804519792+808468548+817112118+823181064
1488+820843081+812894814+806066971+803701457+804761404+806718715+809193829
1478+814046107+822198662+832079158+839791082+840026758+832145794+823476030
1468+820638646+823946491+828518793+829553287+829058932+833045978+844111606
1458+857315456+860637475+851087785+839451890+832280106+829925130+830923115
1448+832680888+832637255+830653231+828543651+827974127+830221134+835984949
1438+843351744+846820763+843552618+838797845+837675640+839270755+839893114
1428+838665760+838097868+839670053+842630025+846701293+852456500+857646337
1418+857061452+850286888+842775318+838232773+836558184+835916161+834979839
1408+834184731+834603619+835890486+836961935+838490191+842047143+847111796
1398+851156573+852420065+850710674+846843396+843310338+842934414+845785378
1388+848517094+847545229+843610127+840796488+841605251+845552003+850962749
1378+856705638+862489933+867822838+871233755+871837488+871052545+870909255
1368+871995100+874187418+877716395+882050943+884857903+884007883+880288273
1358+876388196+873997898+872726837+871326882+869537572+868084931+867198624
1348+866251543+864969055+864362576+866006147+870153030+874617066+876286238
1338+874342359+870818280+867899641+866517569+866838877+868295303+869533194
1328+869568145+868746619+867945648+867578703+867860683+869077203+871077107
1318+873190620+874977926+876457875+877526059+877929067+877829706+877797130
1308+878238503+879074870+879897434+880296807+880224160+880154110+880644977
1298+881644002+882482595+882509903+881333082+878749331+875129676+871424536
1288+868107489+864672382+860713683+856712613+853246562+850191460+847089980
1278+843848251+840915959+838975641+838340519+838524251+838691584+838603947
1268+838701824+839224674+839851188+840410473+841278228+842643010+844010538
1258+844912502+845540649+846276616+847166485+848301231+850268634+853489956
1248+857096254+859367898+859805189+859787825+860675839+862432573+864369551
1238+866017277+867165900+868094875+869604950+872139355+875301164+878448949
1228+881042866+882591602+883203721+883854278+885443160+888036261+891179519
1218+894250501+896449720+897218041+896915803+896787948+898126461+901321514
1208+905419274+908674211+910159650+910891982+912818349+916678503+921209473
1198+924494092+925873195+926470770+928061581+931460995+935792130+939289421
1188+941000445+941617313+942486478+944210636+946450223+948760231+951305840
1178+954391589+957293458+958505674+957785884+957010291+958088047+960864064
1168+963713098+965564889+966890639+969081622+972975540+977718068+981375346
1158+982736788+982175055+981015228+980428561+980645092+981186493+981967948
1148+983521879+985911138+988109764+988883428+988310860+988238956+990606472
1138+994974858+998549100+999295234+998070328+997353803+999136657+1003637796
1128+1008871786+1012186532+1013304285+1014395250+1016395154+1017599875
1120+1016823244+1015654512+1015870078+1016793859+1017186923+1017629038
1111+1019298061+1021968261+1024474097+1026185788+1027158099+1027200767
1103+1025690988+1022908738+1020819045+1021394952+1024209333+1027011840
1094+1028915575+1031081105+1034379675+1038425491+1042260119+1044587639
1085+1044361610+1042302786+1040934591+1042687392+1047951435+1054011254
1077+1056705793+1055059254+1052754515+1053124428+1054713235+1053781589
1068+1050073703+1047322471+1048139916+1050727525+1051413627+1049603539
1060+1048563776+1051285474+1057507655+1064881574+1071019679+1073741823
1051+1071648346+1066071751+1060891709+1058946197+1059849348+1061921751
1043+1064277469+1066049044+1065382459+1061254572+1055767023+1052879402
1034+1054678507+1059183356+1062014433+1060973854+1058259056+1057440647
1025+1059823599+1064087504+1067919164+1069551010+1068473031+1065371699
1017+1061886132+1060010596+1060312611+1061044794+1060558379+1059884744
1008+1061086126+1063580386+1064176847+1061193649+1056818659+1053763038
1000+1051702804+1048890724+1045436398+1043224786+1043331864+1044750668
991+1045382525+1043625643+1039032712+1032363594+1025666574+1021462479
983+1021035428+1023546458+1026674875+1028014130+1026396308+1022441245
974+1017747321+1013542558+1010365165+1008056716+1005605421+1002481902+999780832
964+998244562+996418150+992701656+987684940+982966157+979164327+975737383
954+971935702+968061523+965460631+964602744+964031067+962221054+959554119
944+957394303+956396169+956485512+957281659+958008499+957931103+957129168
934+956332352+956080945+956263638+956160344+954968757+952740672+950629979
924+949857355+950540933+951739570+952573636+952992302+953322738+953403102
914+952689990+951229557+950008362+949800068+949783446+948205547+944937847
904+942207021+941984035+943719546+945287650+945540616+945187696+945402520
894+946236067+946765298+946546467+945960617+945167883+943820316+941743461
884+939003583+935660713+932287270+929919160+928925775+928801110+929131991
874+929964499+931203948+932294320+932743038+932606501+932199411+931753586
864+931516575+931649773+931695558+930909502+929737060+929776018+931637158
854+934190782+936397496+938607698+941244431+943279732+943153954+940768553
844+937415591+933953919+930534098+928006075+928071673+931331507+935831830
834+938431757+937837967+935794208+935103432+936951067+940035258+942059798
824+942407746+942481877+942959314+943040865+942924734+944009688+945908970
814+946424622+945228212+944656015+946420467+949685273+952179235+952270582
804+950292123+947889804+946061981+944573499+943372191+943302735+944742242
794+946564202+947417414+947475516+947921638+949168211+950521120+951158023
784+950819128+949820030+948708584+947561743+945829051+943350449+940920155
774+939517083+939491630+940481602+941693892+942531669+943071586+943553549
764+943647567+942674959+940712232+939315096+940211495+942934158+945030678
754+945137607+944482969+944963596+946887737+948793326+949171476+948077172
744+946757581+946080755+946069105+946801288+948695672+951690297+954888541
734+957134436+957525869+955761937+952559834+949373685+947301728+946489255
724+946439686+946454527+946209056+946147317+946342996+945491418+943109134
714+941658496+943739804+948186921+951233713+950917450+948425120+945975755
704+944750850+943896674+941022335+935054530+928430158+924604361+924631520
694+926695166+927671261+925113482+919372226+913722687+910856586+909941932
684+908765409+907728391+908686529+911057162+911952968+909741207+905374825
674+899699537+892094766+881665447+869983768+864137585+869935980+880004216
664+885072134+884802398+883002551+882096134+882189262+883142205+884777168
654+885497701+883842925+881658991+881972286+883296255+880845925+874275351
644+868518364+866505251+865725874+862968483+859522616+858958285+861843606
634+865611004+868136133+868155203+864462827+858107745+852719409+850726257
624+850857378+849977749+846498342+842557749+842715657+847345988+850246595
614+846572176+839672650+835671358+835931150+837914804+839268826+838979945
604+837016624+833721097+830199021+828549068
##END=
