##TITLE=<SNM>
##JCAMP-DX=4.24
##DATA TYPE=INFRARED SPECTRUM
##DATE=2/5/2025
##SAMPLING PROCEDURE=Instrument type and / or accessory
##ORIGIN=Admin
##XUNITS=1/CM
##YUNITS=ABSORBANCE
##RESOLUTION=4
##FIRSTX=4497.3318
##LASTX=599.83466
##DELTAX=-1.4281778
##MAXY=1.8377577
##MINY=0.37716353
##XFACTOR=1
##YFACTOR=1.7115452e-09
##NPOINTS=2730
##FIRSTY=0.39362484
##XYDATA=(X++(Y..Y))
4497+229982143+231925398+234105794+235011994+234288991+232583365+230844672
4487+229790727+229737776+230547893+231566596+232021150+231741975+231278645
4477+231250489+231810388+232758744+233917722+235125019+235878511+235426604
4467+233574120+231195152+229534537+229131994+229619788+230310090+230869868
4457+231536454+232558448+233484132+233575792+232974572+232728829+233510530
4447+234859983+235834719+236055666+235948893+235944470+235669543+234428918
4437+232479656+231041295+230906731+231743420+232672691+232985176+232548540
4427+231912321+231687700+231786498+231740494+231499853+231318763+231208646
4417+231064088+230973299+231009969+231084129+231280177+231913209+232871925
4407+233266197+232270863+230200896+228307406+227564484+227937460+228811499
4397+229796682+230891112+232041104+232835220+232828220+232043176+230922263
4387+229926266+229352628+229306433+229651827+230125344+230490606+230408053
4377+229517142+228054594+226903661+226534167+226520359+226509772+226752242
4367+227246218+227448986+227237233+227097950+227110905+226779788+226025687
4357+225459518+225491053+225746285+225672491+225388946+225394552+225621908
4347+225525007+225068729+224841513+225115726+225433818+225140678+224006739
4337+222457930+221281157+220954324+221357877+222152131+223100835+224027756
4327+224793611+225290826+225367981+224950498+224324779+224019154+224171775
4317+224267161+223852255+223202437+222863015+222902855+223096030+223553857
4307+224600001+225971325+226607491+225721351+223952848+222794358+222959742
4297+223977382+225138101+226007473+226245311+225864795+225476844+225627985
4287+226072962+226026435+225083234+223780063+223102403+223367195+223880638
4277+223894237+223476720+223140658+223065784+223035869+222890910+222743356
4267+222762789+222976144+223373307+223972402+224644177+225175067+225562130
4257+225901814+226110991+226107682+225989956+225693908+225029447+224338831
4247+224366569+225229447+226159624+226369392+225712993+224604894+223723612
4237+223624413+224291312+225167005+225731258+225889712+225792916+225592672
4227+225519714+225839111+226370124+226441602+225876635+225523231+226104618
4217+227120499+227677996+227786911+227968837+228156666+227861176+227110121
4207+226553669+226668139+227212350+227578292+227514266+227329780+227410069
4197+227722067+227922172+227830739+227577717+227297915+226944859+226465231
4187+225920376+225391209+225008099+225006566+225416980+225816771+225776200
4177+225462444+225481302+226128647+227053513+227726995+227941743+227675332
4167+226907039+225931798+225338641+225270732+225283164+225243499+225605052
4157+226420916+226906377+226514282+225862932+225973171+226927464+227891473
4147+228300790+228343746+228259087+227934308+227373782+226891315+226664883
4137+226550309+226345119+225975643+225570680+225472717+225890548+226522658
4127+226907735+227063665+227281965+227531574+227691787+228041030+228823583
4117+229573784+229508122+228484631+227132392+226123441+225646494+225541114
4107+225633191+225780727+225854522+225954156+226396417+227236397+228065790
4097+228414476+228070109+227051075+225666014+224500280+223958716+223952917
4087+224304250+225145222+226511566+227827691+228381706+228183986+227801137
4077+227505002+227149038+226654610+226118095+225611948+225196990+225014837
4067+225212330+225719487+226102511+225934584+225430596+225261103+225642681
4057+226144405+226391193+226391524+226181720+225668190+224952326+224548478
4047+225003972+226251841+227556996+228216478+228070352+227338783+226436674
4037+225925251+226176253+227022919+227909739+228369273+228328719+228049039
4027+227833403+227800928+227899048+228016443+228068507+228097673+228301782
4017+228851391+229614356+230107478+229853238+228874045+227756004+227168384
4007+227378222+228179076+229180366+230148990+231029071+231712652+232056392
3997+232068895+231816065+231224196+230285678+229378573+229018830+229322818
3987+229990518+230817387+231886638+233076174+233691167+233104835+231726025
3977+230733807+230842043+231751882+232690069+233055192+232677219+231938771
3967+231621027+232305304+233872762+235606980+236737854+236928695+236293573
3957+235113022+233841925+233222648+233825087+235418838+237063050+237824900
3947+237533711+236972714+237010134+237478861+237435121+236623941+235811281
3937+235676439+236430906+238157636+240430632+241919612+241658128+240438398
3927+239739251+239954017+240353704+240389591+240435821+241064918+242169343
3917+242963354+242635702+241084786+239103398+237708271+237332962+237965158
3907+239987675+244089317+249881349+255209338+257824072+257099224+253746059
3897+249359775+246077253+245427940+247157578+249022250+248949083+248011958
3887+248659983+250901410+252586664+253155879+253708013+253608152+251591764
3878+249257058+249222216+251649852+254937337+258087872+260265099+260060171
3868+258088760+256915539+257103977+256539185+254051231+251269981+250226796
3858+251894829+256825621+264426710+269822346+267387744+260331563+254557622
3848+252227408+253132320+256080173+259478140+262327787+264820215+267201865
3838+268578778+268016023+266066830+263804421+261797697+260488624+260272047
3828+260908683+261945077+264009993+268062497+272387054+272970948+270001852
3818+267776392+267425268+266318807+263457755+260895119+260594300+263014711
3808+266945118+270326299+272867222+275778996+278316227+278300782+276717078
3798+276217792+276625541+276250249+275298202+275342220+276814101+279067247
3788+281952659+285819963+290328953+294796781+299493600+304955491+310514544
3778+315353623+320394166+327252088+336490651+347718281+360084203+372413210
3768+383791981+393681494+401630694+408293318+415277760+422437406+427046850
3758+427633234+426852770+428610425+434803050+443895730+451273695+454845491
3748+458248595+464899413+473998850+481430445+486298604+492184142+501359183
3738+513326985+525459997+534433576+538965882+540940009+543419274+548307980
3728+555475984+562793806+567744361+570226342+571750635+572574177+572331342
3718+571826936+572436200+574922918+578962136+582148140+580523064+573511737
3708+565067220+559266273+558008497+560328750+562679162+562376568+560981441
3698+561663107+565393879+571234423+578200477+585154621+589624625+589326523
3688+585613198+581629351+578430009+576424086+576964223+580993899+587990634
3678+596367381+602663959+602686038+597862351+593437689+590883133+587395265
3668+581636142+576092204+572911841+571966863+571728695+571173758+570699684
3658+570785424+571115077+571955336+574319539+577880331+580350367+578889978
3648+572678060+564415957+557815531+554604104+553829595+553192750+551686323
3638+550310629+549798631+549693146+550365931+553557298+559142748+562317678
3628+558749783+552526825+549514667+551197658+556802436+564424211+570483073
3618+572573725+572918493+574585498+577288897+578958584+578889769+577704151
3608+576034081+574716823+574572543+575465005+576577560+577742249+579904676
3598+583420508+586333310+586342713+584794252+585811700+591194399+598265068
3588+602486630+602551195+601494743+602115186+604531208+606934903+607371957
3578+605672355+603429622+601844734+601009908+601577626+604947437+610533375
3568+614416577+613563015+610308266+608675528+609743821+612235205+614578861
3558+616105731+617198193+618367060+619285815+619280452+618474043+617382835
3548+615876234+613725439+611469403+609818277+608893324+608296910+607286636
3538+605117523+601754468+598209696+595952685+595905323+597732802+600014469
3528+601536602+602287709+602577314+601896206+599824046+597131513+594836194
3518+593184859+592215052+592203072+593089369+594329768+595317615+595448697
3508+594485157+592987680+591677980+590705873+590059172+589926907+590175836
3498+590436118+590714301+590836467+589898629+587734740+586067664+586627164
3488+588716179+589889783+588859589+586483058+584083716+582177219+580806645
3478+580108611+580004693+579638020+578077336+575674094+573831919+573375467
3468+573880883+574594448+575284054+575955794+576070299+574456576+570754186
3458+566787682+565097797+566088465+567947147+569230241+569794895+569290210
3448+566993463+563527605+560807490+559788579+559680029+559516560+559408394
3438+559784017+560190112+559682188+558129862+556507885+555847428+556040080
3428+555811733+554275983+552320939+551660761+552671558+553866928+553597765
3418+551854911+550058461+549430182+550109375+551440736+552465707+552255225
3408+550421268+547497566+544531412+542285649+540971178+540625957+541250510
3398+542466008+543576927+544170450+544190893+543419797+541620735+539172708
3388+536918099+535557798+535375280+536067846+536923010+537528095+537985731
3378+538310962+538336872+538132971+537652978+536493512+534883411+534029710
3368+534556334+535646358+536452210+537155537+538005059+538492993+538210979
3358+537644445+537444410+537566437+537615367+537447022+536902080+535519909
3348+533295911+531284138+530627372+531096884+531292287+530364652+529004734
3338+528577779+529564199+531096779+532040991+532127357+531611493+530554902
3328+529304613+528701547+528840743+528671876+527718123+527078735+527913909
3318+529657042+530467978+529456937+527690228+526600239+526266963+526005775
3308+525751204+525873440+526334837+526757126+526862750+526640218+526285734
3298+525773109+524707776+523229592+522554892+523732083+526157299+528034682
3288+528321014+527806509+528017723+529404630+531080690+532185933+532825738
3278+533461922+534040784+534092534+533443918+532492950+531773256+531505556
3268+531722585+532468677+533396103+533600526+532561416+530808637+529138253
3258+527784151+526642377+525722578+525298548+525733408+526782722+527325784
3248+526521987+524853588+523327102+522340926+521825655+521731175+522000825
3238+522495097+522938141+522771747+521528284+519445502+517318388+515940466
3228+515740500+516339108+516639753+516056468+515205309+514759757+514490351
3218+514084291+513777865+513556587+512862698+511638562+510690207+510535479
3208+510637586+510137533+508768282+506798682+504662583+502925997+502059237
3198+501919101+501895002+501720075+501687827+502016889+502489639+502684381
3188+502255023+501070902+499314117+497488693+496156286+495535042+495345594
3178+495065775+494364503+493272738+492017538+490830805+489814436+488856678
3168+487830871+486882446+486204437+485570134+484526880+483060118+481642565
3158+480711726+480397604+480485398+480404395+479585867+478085116+476605644
3148+475692845+475117918+474310987+473244922+472485249+472328223+472271144
3138+471598568+470374816+469488797+469536647+469962871+469704573+468471592
3128+466942912+465919578+465615416+465522816+464845678+463313550+461557114
3118+460556555+460761327+461665733+462202178+461722533+460556799+459416209
3108+458557598+457853296+457327612+457163481+457275792+457264996+456925348
3098+456468931+456014882+455244517+453998059+452845315+452493547+452844270
3088+453093861+452657329+451679407+450751563+450283306+450105385+449719175
3078+448939059+448098104+447591747+447472750+447549017+447618075+447520495
3068+447159464+446493087+445471773+444222285+443266755+443057143+443307709
3058+443317878+442797522+441906001+440925711+440244324+439985121+439551828
3048+438347961+436790515+435750674+435369758+435167145+434860894+434535419
3038+434320026+434218581+434102683+433773064+433104075+432159794+431181593
3028+430381662+429684882+428857021+427896790+427021845+426343036+425820137
3018+425364138+424798545+424009131+423221527+422752503+422541081+422328578
3008+422092604+421886648+421485429+420601430+419348982+418214347+417566148
2998+417294095+417016365+416610549+416274453+416009225+415443631+414357717
2988+413006679+411759211+410735633+409963353+409634883+409945871+410682734
2978+411176135+410859784+409829834+408698647+407980833+407717277+407540888
2968+407021820+406051769+404926606+404015757+403436756+403107241+402944051
2958+402880182+402766931+402410183+401802625+401234942+400975739+400889164
2948+400632887+400141227+399564559+398867640+397957905+397121442+396819022
2938+397014390+397090936+396496089+395247158+393851962+392918338+392705626
2928+392867180+392757655+392083616+391044750+389890718+388771162+387962002
2918+387716729+387841090+387815006+387399438+386803234+386243978+385674345
2908+385050419+384564819+384307044+383916167+383035755+381977178+381415241
2898+381544129+381930304+382051774+381719090+381116791+380553496+380087536
2888+379521212+378805139+378110971+377468240+376730367+375910968+375219622
2878+374784935+374591587+374627909+374863814+375076142+374922216+374305186
2868+373503548+372816171+372254199+371719600+371259561+370946031+370691913
2858+370388064+370085957+369887245+369731194+369444236+368991231+368516671
2848+368143834+367887695+367701033+367448691+366945991+366132826+365122099
2838+364122272+363418458+363221835+363373777+363441407+363220686+362868953
2828+362528016+362140727+361643077+361098413+360615459+360211489+359768862
2818+359164265+358440600+357738144+357094368+356498303+356058497+355871696
2808+355794036+355549982+355032203+354405979+353940159+353677613+353267513
2798+352347923+351104251+350117518+349659151+349488160+349324656+349148059
2788+349000609+348825370+348609629+348469458+348418787+348182395+347463710
2778+346348577+345258867+344551257+344253398+344092019+343729316+343065342
2768+342308384+341727050+341405023+341234728+341044792+340733596+340331157
2758+339909356+339462865+338927534+338259067+337451439+336538222+335640607
2748+334974403+334691868+334680132+334646491+334445167+334146995+333750164
2738+333071354+332044746+330945354+330143891+329705757+329409082+329146049
2728+329051220+329170531+329284443+329142392+328662189+327894436+326980523
2718+326112543+325428788+324972824+324708432+324524347+324325322+324119819
2708+323919366+323643447+323247138+322829481+322502962+322217884+321816769
2698+321261797+320703726+320280810+319983787+319775603+319645497+319486973
2688+319153524+318673286+318221953+317882897+317546870+317042952+316354600
2678+315695501+315288257+315089371+314862346+314490067+314048659+313610351
2668+313174585+312811290+312664746+312739098+312861160+312913467+312890134
2658+312709949+312259592+311651338+311155951+310858232+310604497+310287345
2648+309973641+309711931+309398122+308928611+308354450+307786628+307276650
2638+306855162+306538080+306258122+305932438+305607346+305429077+305473409
2628+305619047+305585998+305182655+304546262+304049134+303948037+304151311
2618+304294233+304062646+303479292+302837884+302408979+302298514+302465361
2608+302729474+302856933+302718434+302309832+301695065+301021166+300470303
2598+300108750+299871034+299697849+299577424+299455083+299218169+298814581
2588+298324837+297875280+297541447+297371257+297388043+297495966+297499483
2578+297298682+296970247+296626523+296311705+296051074+295879874+295781563
2568+295670576+295477018+295210398+294921942+294663018+294475937+294333155
2558+294119573+293811859+293591486+293609873+293735905+293694568+293378252
2548+292932387+292585320+292400399+292215339+291941771+291813179+292053699
2538+292429026+292495228+292189673+291809488+291547029+291405587+291396898
2528+291475916+291447325+291204107+290908320+290773983+290837887+290995435
2518+291077082+290921954+290566896+290287738+290294390+290483385+290607223
2508+290567035+290433498+290286745+290144920+289987755+289779519+289525748
2498+289342952+289365240+289527577+289581155+289404522+289151205+289014987
2488+289016154+289077132+289134106+289122892+289005079+288838737+288701962
2478+288568634+288380387+288188258+288086569+288058099+288013627+287932363
2468+287861494+287823082+287795675+287756166+287689842+287569730+287356566
2458+287062730+286827730+286843576+287129385+287427435+287409866+287004502
2448+286478922+286173959+286175039+286279096+286259107+286086287+285875718
2438+285696125+285528199+285407669+285466315+285717351+285913207+285793949
2428+285431472+285176170+285275473+285640492+285985939+286132448+286116307
2418+286034363+285920294+285830515+285903909+286209934+286608280+286864436
2408+286882458+286772097+286719964+286840250+287097659+287328271+287393933
2398+287331387+287276468+287307062+287455835+287736699+288036960+288135271
2388+287893255+287262207+286127189+284316008+281686926+278112901+273545805
2378+268180885+262397384+256486494+250570119+244783554+239361120+234475149
2368+230147893+226438102+223530263+221508495+220364335+220413770+222327510
2358+226522954+232804347+240861314+250798067+262251259+273040546+280026416
2348+281411652+278030122+272996875+269369690+267602040+266366238+264940745
2338+263531079+262326359+261155105+259889877+258835304+258467761+258800514
2328+259328096+259655260+259879255+260352997+261367138+263071197+265385356
2318+267861452+269899623+271292590+272396544+273647042+275098933+276562403
2308+277972382+279406408+280810798+281919714+282542578+282812280+283011932
2298+283273242+283596854+284007876+284473644+284807181+284867463+284761473
2288+284710036+284808400+284996803+285160289+285189421+285006276+284596542
2278+284042754+283527778+283242178+283231870+283357484+283402565+283193823
2268+282696452+282091506+281683183+281629674+281826818+282074337+282240679
2258+282283636+282257012+282268226+282324782+282313742+282210939+282166310
2248+282288720+282476845+282562358+282537911+282538486+282632635+282748742
2238+282806099+282793544+282707718+282557431+282445068+282503852+282736658
2228+283004393+283157379+283143710+283036501+282954541+282925514+282878622
2218+282785221+282706586+282678343+282641115+282528630+282370699+282256977
2208+282219488+282213568+282211287+282239269+282320690+282455933+282638625
2198+282815972+282888843+282834377+282778535+282883567+283174008+283477177
2188+283548255+283307144+282938765+282690410+282605019+282536936+282397810
2178+282281042+282319732+282488338+282615675+282588111+282461104+282353129
2168+282327637+282414752+282646496+282998960+283348098+283528126+283462063
2158+283267861+283195861+283376777+283667200+283822311+283758146+283575314
2148+283410279+283350536+283422136+283576533+283721998+283821824+283943885
2138+284168890+284466574+284709618+284803907+284767080+284685049+284623670
2128+284589246+284579704+284645366+284844287+285160986+285528164+285879583
2118+286144498+286293949+286415907+286624491+286903788+287157175+287361598
2108+287565464+287802396+288084636+288409188+288711678+288875286+288851605
2098+288757891+288791445+289026253+289346991+289605463+289774765+289909346
2088+290014396+290032470+289966930+289949308+290095800+290330120+290477743
2078+290517601+290580181+290708842+290807066+290835327+290905047+291154394
2068+291612448+292156485+292561883+292676701+292579539+292479696+292494462
2058+292618404+292833902+293110830+293348372+293449121+293447380+293482379
2048+293648808+293933119+294277748+294600333+294757498+294660754+294459117
2038+294424013+294630630+294920410+295153319+295330823+295502615+295695023
2028+295918078+296148410+296313411+296366311+296418583+296712123+297315433
2018+297895688+298015520+297678484+297344895+297385849+297737025+298085449
2008+298220884+298160915+298054281+298061490+298281793+298665739+298965722
1998+298954056+298815556+299079739+299928669+300812738+301076468+300744098
1988+300303004+300035164+299931629+299967569+300152490+300425031+300644846
1978+300698999+300631996+300623673+300788360+301103632+301553989+302134627
1968+302674590+302897122+302735951+302400760+302106663+301937692+301973492
1958+302317842+302895938+303397314+303579031+303535221+303545529+303760086
1948+304190141+304922372+306025560+307122027+307463068+306841581+305976526
1938+305574367+305605953+305725577+305840709+306046420+306359741+306700574
1928+307066620+307700227+308827618+310126697+310982209+311402826+311847646
1918+312162987+311751285+310772736+310109772+310285464+311041795+311703471
1908+311803210+311490759+311267426+311363961+311604428+311811498+312106954
1898+312734745+313600147+314207357+314410317+314841974+315915108+316890627
1888+316833061+316031528+315446188+315430796+315697242+315928306+316036229
1878+316124719+316347077+316775182+317604296+319347847+322234670+325219072
1868+326352488+325030773+322780274+321264130+320892199+321177103+321553422
1858+321778253+321894394+322027182+322271898+322770244+323693595+325114144
1848+327137827+329863340+332529198+333304124+331580319+329218485+328021025
1838+328061214+328483119+328939954+330083504+332576734+335729062+337700369
1828+337800909+337170332+336520218+335443497+334002367+333087513+333137905
1818+333718786+334324742+335047571+336271985+337893718+339134882+339376847
1808+338944215+338730180+339475402+341471608+344279517+346654307+347509819
1798+347194130+347220875+348840832+351896834+354345105+353944652+351396782
1788+349350148+349116263+350098190+351321525+352564082+353813396+354777876
1778+355592677+357174327+360373181+364829499+368459453+369203037+367497516
1768+364950655+362640675+361672922+362830506+365189834+366786214+367305838
1758+367837025+368513467+369162222+370861720+374587025+379113201+381746288
1748+381603401+380229065+379217328+379204129+380136779+381360705+382090813
1738+382868525+385498583+390366010+394171865+393410207+389914051+386678978
1728+384452926+383354857+383508471+384615141+386704330+390808671+397606486
1718+405080603+408566416+406344299+401812690+398282231+396939482+397993253
1708+401209137+405413913+408913622+411841294+416229215+422419263+427177687
1698+428280144+426947947+423757798+419619503+417174785+417715792+420403171
1688+424621703+431228920+439685800+444683682+442513385+437664868+434924241
1678+435575434+438757538+442234262+444525576+446839108+450234516+452567063
1668+451405369+448958039+448940905+451749371+454533076+454911694+454182179
1658+455382459+460635608+470442272+481235913+484423484+480785729+479410488
1648+482379915+485298498+483621951+479295148+476571202+477044440+480805475
1638+487450547+494803612+498092106+495576937+491847697+490785324+492664727
1628+495918954+499255751+502468396+505048897+506005785+506211845+508098561
1618+512320924+516080567+516268901+514351852+513461619+514518315+516705119
1608+518902858+520646827+522200616+523892661+525566109+526858466+527872398
1598+529130662+530878705+532830753+534623547+536183813+537588586+538896197
1588+540194231+541555577+542905396+544101183+545256191+547024990+550358374
1578+555436876+560261294+561833506+561092150+561667564+564425116+566937883
1568+567155713+566300445+566252944+567907551+572719363+582641402+595634035
1558+601485897+596983297+590985936+587999758+587818529+589247818+591290586
1548+594038421+598704351+606061491+615535645+625971876+634888342+637334523
1538+633689942+631154818+633182332+637762592+641150094+642931813+645992587
1528+651910616+659623041+667660244+676237723+685420809+692883260+696829147
1518+698580011+699550167+700320428+702200771+706586289+713794378+723409225
1508+733634834+738852880+735264507+729205854+726674840+728083582+731731019
1498+735417877+737100832+736834212+737340498+740942940+747055920+752082010
1488+752748701+750160155+747843315+747743297+749346990+751245652+753347762
1478+756930005+762499506+768793576+773567045+774735356+772447838+769719156
1468+769158821+770932600+773334692+774769972+775955765+779065572+785103260
1458+791775321+793449779+788620102+782571549+778891516+777687057+777654043
1448+777294509+776256026+775576520+775889945+776602327+777427611+779322999
1438+782719694+785498246+785109041+782788300+781378582+781527424+781909246
1428+781407208+780457041+780192232+781332265+784027166+787711238+790401961
1418+789616238+785848934+782178095+780458504+780372626+780580322+780350616
1408+780272678+780909558+781383318+780729025+780047081+781254326+784559711
1398+788467708+791493238+792770482+791957108+790147250+789452142+790781832
1388+792795347+793250580+791949586+791325521+793618611+798818548+805105026
1378+810690337+815169744+819015892+822268830+824548408+826073048+827610574
1368+829765478+832812531+836396028+839032354+839154451+837279958+835536267
1358+835091900+835595261+836286817+836704996+836709105+836291623+835472747
1348+834380006+833422039+833283226+834572728+837292773+840542786+842962082
1338+843803943+843401783+842456144+841483062+841049351+841947489+844548711
1328+847890035+850111943+850244417+849252809+849129946+851166027+855028125
1318+859152734+862217060+864338741+866508202+869159781+871720746+873379045
1308+874099227+874832642+876448385+878568116+880212555+881350498+882704496
1298+884266400+885189612+885113693+884652679+884492832+884454316+883495652
1288+880785497+876914971+873550175+871688707+870852070+870048795+868793004
1278+866993106+864781158+862893293+862314082+863079607+864125403+864623610
1268+864759219+865020198+865521400+866120460+866600907+866778514+866773848
1258+867030787+867949054+869615293+871754247+873839153+875461234+876623764
1248+877576299+878569788+879798833+881221924+882523824+883631469+884991248
1238+886955659+889281206+891462996+893166916+894377086+895546790+897381791
1228+900004883+902630901+904578039+906341579+909028819+912670544+915661110
1218+916539677+915955173+915830360+917166319+919661603+922781858+926109670
1208+929018675+930959197+931928587+932428466+933254516+935133397+938182190
1198+941933475+945959250+949922759+953032496+954512770+954816235+955366262
1188+956876972+958654721+960084150+962033378+965310276+968486390+969434188
1178+968498996+967859957+968646028+970411309+972178402+973097365+973271142
1168+974162872+976961065+980893858+984096021+985559021+985759683+986133286
1158+988065867+991520442+994925775+997032133+998185678+999231892+1000241888
1148+1001110494+1002212498+1003840708+1005877626+1008001814+1009579041
1140+1009955708+1009562673+1009564135+1010076760+1010200528+1009612473
1131+1008983114+1009230720+1010754873+1012914444+1014519740+1015755611
1123+1018265034+1022224712+1025895620+1028469470+1030597071+1031915408
1114+1030878876+1027870409+1025963668+1027328671+1030395016+1031912901
1105+1031352566+1030730869+1030818489+1030437921+1028535289+1025812946
1097+1025091788+1029080092+1037028491+1044273355+1046624742+1044888017
1088+1042569435+1041220661+1040156477+1038918377+1038298491+1039448972
1080+1042396773+1045615164+1048038082+1050203434+1052489211+1054863513
1071+1058308198+1063494971+1068424595+1069956062+1068189944+1066609514
1063+1066976500+1067359576+1066402514+1065843502+1066758495+1067369466
1054+1066846951+1067263459+1069461407+1070865274+1069258934+1066096402
1045+1064141741+1063751840+1063353651+1062666134+1063373710+1065651477
1037+1066676866+1064973364+1062834618+1061834164+1060255475+1057459859
1028+1056768652+1060616054+1065840925+1067080140+1064132060+1061976320
1020+1063858335+1068006068+1070558744+1069889964+1067469762+1065267496
1011+1063655584+1062071114+1060977329+1062095561+1066318725+1071660051
1003+1073741823+1069611224+1061584329+1055285871+1053489874+1053596856
994+1052053898+1049916197+1050708327+1054091790+1055737761+1053288515
985+1048693420+1044508494+1041573300+1040032988+1039898981+1040581552
977+1041106226+1040830969+1039994819+1039655693+1040484669+1041254372
968+1039293373+1033311823+1025659019+1020514245+1019827704+1021861487
960+1023604759+1023679145+1022141480+1018993226+1014475582+1009469829
951+1004854953+1001134593+998292869+995910697+993741445+991977974+990875343
941+990270502+989542380+988136353+986185036+984436262+983464573+982948953
931+981794642+979485045+977391294+977434477+979466867+981277908+981088251
921+979113810+976474977+973675252+970748625+968099971+966437005+966071342
911+966623876+967270647+967099378+965627393+963503483+962519257+963796222
901+966066606+966825513+964691295+960643928+957395587+957134747+959615057
891+962445707+963192982+961332071+958448836+956797362+957512390+959710826
881+961209626+960895365+960359129+961867262+964891121+966075243+962913825
871+956459141+950134147+946695173+946276367+946902661+946941943+946659861
861+947182515+948811909+950746650+951789172+951065995+948884485+946889985
851+946641891+948094722+949859795+950824170+950743237+949880481+949216716
841+949773847+951122133+951978899+952149194+952024729+950618145+946737312
831+941930410+939711776+941814025+946511367+950523142+952099254+952016023
821+952084628+953657188+957141225+961397542+963531134+960945931+954160479
811+946708058+942306451+942587002+947024688+953684282+959520124+961561499
801+959430415+956130114+955049981+956409829+957818502+958218015+959177654
791+961588175+963735487+963883006+962730227+961837661+961366339+960309747
781+957943594+955196734+954389559+956788795+960858172+963532248+962919049
771+959586222+955536556+952583462+951943726+953978135+957436890+959851240
761+959950561+959047827+958976714+960225470+962494601+965073465+966509581
751+965952450+964689136+964789293+966987380+970296526+972628550+972379342
741+970357609+968983900+969525639+971547511+974152912+976299459+976578129
731+974034438+969660760+966376828+966330092+968072668+967979964+964723404
721+960317687+957106957+956014147+956991477+959770098+963979053+968501991
711+971759248+973283749+973933236+974113839+973394980+971878558+969817682
701+966663298+962479765+959044274+957747250+957522698+955203141+948877729
691+940847282+935282239+933984658+934844000+933834771+929100793+923260493
681+920893504+923951074+929449531+931915005+928848311+921739823+912295687
671+900817979+889345981+885169274+893972837+907899095+916986134+920136059
661+920171372+918609051+914637324+907822340+900198929+894455721+891811107
651+892482255+895261085+896870002+895358038+892706041+891974227+893408253
641+894947869+895536133+895039041+891801634+883580346+872196038+863999824
631+862459373+864730105+867524467+871212857+876268758+881897182+885258008
621+882296347+874274327+867487483+865978235+868220968+870824419+871545994
611+868932513+864130766+861013506+861851675+865030506+867653737+868584402
601+867820828+864434580
##END=
