##TITLE=<SNM>
##JCAMP-DX=4.24
##DATA TYPE=INFRARED SPECTRUM
##DATE=2/5/2025
##SAMPLING PROCEDURE=Instrument type and / or accessory
##ORIGIN=Admin
##XUNITS=1/CM
##YUNITS=ABSORBANCE
##RESOLUTION=4
##FIRSTX=4497.3318
##LASTX=599.83466
##DELTAX=-1.4281778
##MAXY=1.8639134
##MINY=0.39987016
##XFACTOR=1
##YFACTOR=1.7359046e-09
##NPOINTS=2730
##FIRSTY=0.4220072
##XYDATA=(X++(Y..Y))
4497+243105060+244849725+246313535+246921684+246895520+246186783+244579807
4487+242674997+241641919+242135178+243840391+245664132+246481852+246245017
4477+245909328+245937398+245697112+244603585+242949190+241375177+240317085
4467+240101195+240995228+242875350+244998470+246475998+247012898+246849406
4457+246206252+245271066+244455904+244127357+244169779+244044640+243321414
4447+242303272+241963977+242795793+243942301+244096454+243031958+241619206
4437+240668964+240406841+240772351+241545056+242235818+242382314+242044238
4427+241621112+241217316+240653908+239904568+239038519+238079728+237306285
4417+237214023+237870208+238705388+239143898+239226202+239477201+240194024
4407+240984996+241236476+240903258+240412952+239992074+239527418+238842253
4397+238031777+237807218+238931407+240850209+241833173+241088383+239617413
4387+238519680+237837811+237372313+237327642+237692569+237825279+237159067
4377+236023547+235344768+235544194+236121096+236465147+236584174+236699235
4367+236675766+236345656+235922203+235663358+235482492+235130183+234542585
4357+233951313+233755939+234218931+235210033+236205014+236598440+236295851
4347+235950565+236186335+236702565+236760354+236389075+236296572+236690222
4337+236900412+236161390+234417292+232462781+231340291+231439969+232272729
4327+233140855+233774790+234327331+234991173+235673076+236004336+235688956
4317+234836041+233927587+233373449+233048748+232499143+231737648+231384997
4307+231786371+232576880+233300948+233847120+234215291+234397961+234437121
4297+234241799+233639694+232871040+232647802+233408816+234683227+235416823
4287+235020616+233982130+233178694+232843142+232644643+232463038+232465854
4277+232597791+232589224+232428564+232398966+232667013+233016454+233044954
4267+232712698+232554150+233144546+234379711+235422884+235489685+234585265
4257+233407219+232711118+232808204+233347010+233581236+233255435+232993071
4247+233282922+233606645+233293068+232578116+232080308+231993832+232332611
4237+233078826+233762549+233792714+233320709+232988608+233123189+233799684
4227+235019174+236240741+236505904+235608060+234525640+234301853+234865296
4217+235195817+234629456+233687267+233292811+233552479+233855944+233748832
4207+233225700+232621071+232478661+233049726+233859807+234236837+234152370
4197+234088281+234314060+234706816+235031329+235031724+234386115+232999904
4187+231463507+230759457+231168145+231877037+232101064+232133924+232783173
4177+234180131+235637091+236410878+236282306+235617914+235104878+235161687
4167+235455280+235299479+234543633+233659489+233078569+232912003+233136340
4157+233618594+234082444+234274813+234054494+233486862+233044095+233265994
4147+234029789+234640804+234747419+234658831+234690300+234665904+234215600
4137+233356865+232605311+232420444+232727411+233237649+233934523+234836608
4127+235541636+235507042+234711022+233688451+232998582+232890800+233343422
4117+234091303+234669578+234814735+234828126+235102251+235327360+234757428
4107+233312829+231851731+231263789+231738352+232863400+233959949+234389514
4097+233967846+233091222+232261707+231614655+231048861+230583929+230352605
4087+230374838+230602763+231140573+232075398+233037554+233368213+232945773
4077+232431328+232386313+232542647+232289227+231569675+230953852+230973407
4067+231616612+232427672+233002376+233301996+233372746+233019836+232174080
4057+231316633+230987605+231098494+231170892+231020791+230897832+231134736
4047+231804467+232563764+232880517+232550888+231904849+231513981+231733133
4037+232349333+232740493+232609294+232355016+232466420+232892500+233321018
4027+233711336+234155872+234454152+234307553+233870520+233630354+233773743
4017+234064452+234232425+234164233+233909629+233677601+233501696+233029708
4007+232220383+231868006+232654463+234095732+235080842+235116947+234617078
3997+234254435+234320051+234600116+234816280+235027741+235369954+235727207
3987+236006327+236339905+236718223+236824648+236496513+236044234+235935766
3977+236363940+237130877+237731369+237661271+236940276+236153613+235707893
3967+235463607+235411896+236001503+237290953+238522358+239021180+238819728
3957+238164505+237285957+236759255+237277390+238879336+240681514+241608184
3947+241704223+242262343+243937236+245340306+244604134+241993575+239529718
3937+238869327+240634920+244402614+248349870+249972675+248515183+245961347
3927+244682146+245111643+245921740+246030055+245950051+246677793+248028551
3917+248622398+247339746+244574159+241789978+240177491+240141541+241929538
3907+246128806+252769870+259890561+264193662+264173850+260883362+255795487
3897+250572944+247641958+248684993+252633331+255537071+254647451+252616901
3887+253219522+255933107+257801949+258756225+260272656+260530745+257346941
3878+253515140+253045556+256161718+260719475+265174103+267898332+267157336
3868+264742649+264241012+265666228+265566498+262255117+258225316+256779653
3858+259914699+268540474+280658787+286998636+279897585+267219451+257812645
3848+253799737+254322028+257725345+262557741+268191084+274245889+278981474
3838+279493669+275544816+270569615+267103531+264847117+262929140+261767077
3828+261976409+263507828+267066259+273695563+280900807+282935580+279803057
3818+276732854+274342322+269748118+263737143+259856053+260040817+264130500
3808+269793270+273918560+276799415+280709090+284162109+283623869+280620880
3798+278647003+277188223+274639813+272114854+271548115+273206149+276456275
3788+280916190+286054025+290876069+295190467+300272351+306912041+313755484
3778+319211222+324209119+331126042+341480651+354997777+369034412+379988088
3768+387014200+391670794+394754233+397048829+400250763+404307776+406475189
3758+405618978+405194649+409497544+419564965+431823148+440002515+442995032
3748+446396597+453365814+460821748+463693744+463821853+467164463+476647960
3738+492169264+510658638+526217472+534491196+536574898+536767010+538873099
3728+544576265+552944139+561461273+568721146+574882634+579739753+582633140
3718+583676485+584361770+587165677+593046534+598469893+597989733+591692239
3708+584041892+578232524+575675838+575793852+575690466+573198710+569783307
3698+568377680+570543205+576022807+583602936+591893656+598426286+599300901
3688+594074839+587858516+584739470+585295993+588740136+593891002+599506096
3678+604409671+606389162+604232976+602031603+603668624+606416974+604169660
3668+596325656+587389550+580280069+575728064+573516871+572776476+572562870
3658+572286187+571911234+572693520+576708882+584652805+593740815+597230556
3648+591100555+580205560+571262724+566627418+565120018+564743210+564630622
3638+564930790+565859211+567768072+571733544+578772772+587119460+590121969
3628+583150383+572699254+566743166+567231978+572913032+581242174+588086441
3618+590292208+589642839+589773661+591338643+592676250+592869152+591953813
3608+589785060+586978406+585633176+587674198+592611423+596989034+597900596
3598+596888498+597301839+599370192+600702443+601107063+603355201+608442270
3588+612638654+611805723+607479410+603994338+602874767+602529275+601418768
3578+599865254+598858443+598565073+598713612+599788821+602875797+608039985
3568+612805597+613531674+610251178+607120114+607115513+608977093+608999618
3558+605801186+602308148+601980648+604570090+606557548+605652098+603360420
3548+602250189+602566221+602298603+599715273+595361079+591724653+590982506
3538+592754812+594387781+593947176+591966106+590032419+589084049+589087895
3528+589461955+589515589+588778456+587190399+585109478+583069624+581257557
3518+579449610+577685339+576500254+576255711+576658476+577041876+577038511
3508+576930901+576845266+575744133+572351323+567302711+563265580+562551795
3498+565000973+567970450+568730451+567224665+565479863+564776757+564972337
3488+565726192+566672021+566913509+565709092+563417724+561237777+560225198
3478+560332018+560394614+559547913+558287357+557508334+557134205+556390033
3468+555056306+553845812+553327127+553011266+552152308+550919324+549822346
3458+548752116+547577400+546826533+547067540+548115382+549050602+548738210
3448+546792746+544307068+542879053+543007162+543879203+544236163+543245422
3438+541012632+538538937+536788607+535720953+534673110+533504712+532754840
3428+532721466+533029703+533165023+532805727+531673142+529918383+528554817
3418+528390998+528695321+528039291+526196905+524148776+522624035+521787086
3408+521856858+522859857+523940113+523945127+522913800+522086774+522094603
3398+522110981+521225927+519813536+518890815+518659662+518299886+517118166
3388+515556548+514751944+515173698+516028261+516212785+515592189+514876001
3378+514446145+513944868+513016756+511875656+511106281+511398793+513096382
3368+515308811+516096178+514478970+511818280+510342984+510652835+511358379
3358+511122213+510317884+510185758+510963133+511547881+510905070+509262316
3348+507689127+506864814+506700102+507017748+507870801+508932858+509236701
3338+508015288+505605665+503355226+502587053+503477910+504971919+505893713
3328+506014577+505820233+505506262+504733556+503264132+501367391+499679793
3318+498889611+499175701+499842033+500086885+500131214+500729010+501575847
3308+501456769+500177980+498968550+498665944+498769468+498572240+498152718
3298+497878817+497763241+497735325+498022549+498857335+500075520+501186198
3288+501814004+502072900+502323899+502637699+502908716+503247650+503631702
3278+503555544+502781946+501998802+502040349+502825416+503437050+503014747
3268+501583779+500020994+498991109+498318872+497689864+497187901+496765941
3258+496087215+495215140+494643680+494494008+494296230+493654690+492794014
3248+492322404+492635758+493619151+494699648+495079683+494210664+492345479
3238+490468516+489512695+489641490+490216521+490445339+490090919+489500917
3228+488999366+488431477+487367874+485786479+484405642+483933071+484099877
3218+484011186+483292595+482210175+480918819+479324513+477539847+476023484
3208+475270248+475290609+475372742+474721003+473389851+472250846+472098976
3198+472885794+473599887+473084944+471269615+469222756+467911314+467432287
3188+467327595+467034329+466156554+464775717+463426882+462578705+462271807
3178+462176146+461833469+460995559+459826337+458702920+457817214+457030224
3168+456082026+454912014+453781318+453009196+452525225+451845469+450648846
3158+449190204+447911380+446851314+445779642+444761225+444141763+443939728
3148+443615421+442653454+441241096+440134195+439837872+440072870+440111155
3138+439522115+438395917+436980332+435483713+434125676+433011152+431958124
3128+430836252+430069487+430286115+431385428+432448722+432745388+432344374
3118+431611636+430717243+429794178+429066179+428572491+428027676+427145059
3108+425991426+424881984+424007918+423310993+422662482+422008684+421344275
3098+420681618+420106243+419800993+419957395+420561990+421232682+421433962
3088+420958403+420066756+419098814+418166102+417320122+416637722+415958445
3078+415021921+414031352+413471223+413283334+412958821+412458952+412248848
3068+412427466+412502834+412040667+411139200+410264001+409760630+409551178
3058+409315562+408841033+408087659+407135924+406211452+405529807+405040239
3048+404522275+403892821+403213373+402496086+401713732+400920013+400177146
3038+399415394+398542701+397652084+396910453+396293326+395676473+395091244
3028+394590414+394011126+393181490+392219351+391364033+390669614+390114258
3018+389839601+389959161+390214692+390158792+389652983+388897995+388093426
3008+387374525+386917062+386773124+386675128+386214952+385218683+383928254
2998+382860668+382419789+382538593+382716009+382467345+381713456+380684429
2988+379581168+378521651+377709596+377314075+377123165+376648946+375762347
2978+374955717+374708804+374821324+374722264+374266449+373749034+373232169
2968+372426432+371284439+370239584+369713963+369604533+369353191+368550750
2958+367451952+366734082+366724330+367051178+367085137+366556769+365684625
2948+364853788+364277418+363882584+363416400+362728024+362000231+361578409
2938+361555094+361717299+361856121+361847159+361516088+360746130+359646783
2928+358423035+357239014+356285184+355692573+355313225+354873651+354349506
2918+353916353+353587926+353187461+352626817+351991423+351379240+350801015
2908+350272442+349965200+350119507+350672838+351147366+351100394+350476228
2898+349419355+348124599+346945763+346225215+345967212+345945477+345995779
2888+346008347+345852219+345461677+344859212+344113083+343387143+342905335
2878+342756247+342822104+342886656+342731868+342263314+341662119+341225635
2868+340930995+340451110+339767885+339343865+339389018+339414358+338903914
2858+338003408+337168863+336563513+336096298+335683403+335271985+334877426
2848+334670034+334780048+335003956+334965293+334613723+334292609+334199661
2838+334073475+333591186+332791080+331905374+331065850+330348941+329839389
2828+329535032+329350508+329165161+328805178+328202163+327607354+327349385
2818+327367343+327276970+326887287+326400912+326102461+325999074+325797588
2808+325235330+324392063+323562291+322907050+322412607+322081364+321955075
2798+322006545+322114430+322088334+321752696+321112460+320356889+319644993
2788+319021960+318536581+318217734+317930304+317495571+316975685+316619823
2778+316501431+316376653+315931173+315086189+314080889+313273847+312802375
2768+312489536+312157160+311851292+311625771+311333088+310792187+309992528
2758+309062836+308198899+307607833+307346293+307214098+306943768+306497464
2748+306056379+305690560+305196837+304380422+303354657+302425412+301790327
2738+301430139+301181715+300887521+300547454+300307855+300296798+300499864
2728+300722501+300663545+300164809+299381906+298603741+297985996+297522764
2718+297118968+296641212+296031158+295375540+294799719+294378755+294190901
2708+294294940+294547106+294568189+294089643+293327548+292794819+292669732
2698+292571701+292101740+291371131+290766845+290391755+290039738+289619152
2688+289283961+289145894+289102321+288991964+288779079+288547789+288354681
2678+288112816+287684934+287103224+286577637+286252713+286056463+285805052
2668+285410493+284985632+284722375+284666338+284677086+284586318+284308433
2658+283867932+283412958+283101390+282926292+282749374+282483164+282156419
2648+281861539+281682406+281603552+281487564+281207877+280784819+280344421
2638+279968197+279628010+279301677+279098269+279141344+279339207+279414936
2628+279190427+278763489+278393704+278239036+278206124+278060847+277676125
2618+277155294+276723995+276492294+276331342+276048410+275656392+275345940
2608+275239257+275301079+275406303+275396105+275197195+274929663+274756230
2598+274659831+274537044+274421897+274429640+274519017+274482260+274233820
2588+273990718+273991679+274116458+274054687+273813972+273733968+273990066
2578+274381071+274616704+274575844+274291934+273897100+273595867+273518610
2568+273566784+273533684+273399532+273364268+273560569+273871657+274078035
2558+274094517+274014050+273941205+273836805+273603404+273279389+272976989
2548+272666828+272249384+271802342+271522930+271472678+271552562+271642403
2538+271631810+271433089+271089776+270776732+270608604+270528514+270432355
2528+270306719+270191726+270089593+269961449+269760101+269469821+269163593
2518+268949334+268816521+268673493+268551684+268565470+268680652+268762595
2508+268811731+268912920+269007105+268924388+268612236+268201093+267875447
2498+267759339+267885868+268182534+268469123+268552234+268368311+267989993
2488+267511550+267029622+266694242+266606169+266660833+266640471+266458643
2478+266202957+265965178+265749237+265539956+265367502+265277489+265271755
2468+265302091+265320599+265305903+265201297+264890776+264351438+263780733
2458+263443001+263423051+263611661+263857028+264046342+264105916+263999524
2448+263740251+263423360+263213788+263201101+263260194+263159949+262839058
2438+262480295+262259632+262118441+261880954+261516834+261165350+260971727
2428+260999900+261216494+261479270+261629629+261644617+261635466+261687211
2418+261762854+261777859+261721719+261648033+261569712+261475321+261449895
2408+261623466+261972014+262299617+262434782+262366212+262210943+262118304
2398+262208712+262588867+263417197+264957835+267616276+271937129+278516078
2388+287894643+300535573+316819180+336959342+360880351+388146544+417941439
2378+449102749+480327272+510509035+538904757+564923820+587832420+607063940
2368+622958447+636311582+646761303+652647723+652900988+648337823+640236777
2358+627998887+610241976+587395250+561222017+534748203+513232423+501769985
2348+502661013+514865288+533205059+549477540+558690672+561975013+562326034
2338+561841925+561739706+562371804+563352897+564191356+564612114+564216319
2328+562420356+558994102+554062234+547620183+539763715+531028923+521826333
2318+512108663+502072454+492478017+483790506+475394889+466048394+454987760
2308+442422645+429194288+416230733+404179873+393225029+383144904+373594177
2298+364361542+355444836+346965610+338993222+331436683+324178663+317316954
2288+311129439+305759438+301093471+296987117+293401817+290273397+287481422
2278+285003916+282894393+281092524+279446405+277891929+276454249+275128556
2268+273891211+272778576+271849005+271076729+270343579+269553293+268723916
2258+267947330+267270784+266634308+265932404+265143286+264382598+263807309
2248+263474882+263293071+263086160+262736788+262281814+261831510+261431113
2238+261085106+260850794+260780714+260809900+260789092+260612569+260286494
2228+259909446+259593534+259378743+259220607+259072429+258961093+258931546
2218+258927924+258840401+258691089+258629387+258708789+258819043+258842821
2208+258746800+258559237+258379658+258340583+258463817+258620837+258685750
2198+258660272+258632580+258674522+258780089+258864608+258837757+258701184
2188+258547752+258459422+258453911+258516780+258602106+258613884+258493243
2178+258331673+258286813+258364808+258402990+258310024+258193040+258161485
2168+258151081+258075575+258013169+258071713+258171374+258107989+257789124
2158+257342185+257008075+256915058+256952279+256922818+256803018+256750484
2148+256857321+257016024+257083684+257097230+257222969+257522949+257885060
2138+258188044+258462048+258873947+259562168+260471893+261398219+262224987
2128+263043291+264015731+265224268+266656472+268241953+269892742+271545454
2118+273151778+274637272+275914344+276936503+277705981+278205077+278335778
2108+277978714+277135499+275965934+274657513+273291973+271879461+270503483
2098+269326381+268398304+267585562+266779911+266033198+265403435+264849263
2088+264358717+263999610+263775823+263586939+263364302+263121681+262869154
2078+262610001+262434198+262462698+262659393+262846269+262955236+263118883
2068+263453181+263861492+264120440+264121779+263965926+263807292+263709399
2058+263694532+263783669+263908688+263946269+263902061+263922388+264111015
2048+264433690+264791321+265151423+265573297+266032117+266325555+266338088
2038+266252299+266298120+266471588+266633020+266702620+266714157+266806865
2028+267112733+267588292+268061224+268444297+268823491+269371722+270146694
2018+270881269+271129692+270776938+270199297+269821924+269764839+269930684
2008+270186370+270431325+270630871+270803875+270977977+271177506+271375077
1998+271493160+271652206+272274724+273536877+274821761+275232492+274626490
1988+273632126+272838922+272442972+272403949+272569107+272773340+272970413
1978+273195127+273434160+273630169+273767892+273958064+274446688+275343725
1968+276276696+276641365+276352253+275949419+275852075+275966175+276092189
1958+276278086+276615733+277002377+277265033+277385777+277543278+277969976
1948+278827114+280245017+282221830+284150263+284847531+283818145+282054269
1938+280855689+280554920+280721846+280934594+281077296+281229338+281473229
1928+281901249+282816553+284432027+286211835+287343132+287971093+288690903
1918+289005458+287957410+286088825+284988980+285348585+286517223+287407650
1908+287449987+286900537+286372564+286164537+286169086+286274585+286612180
1898+287373228+288394031+289162067+289627874+290509872+292022457+293026898
1888+292538395+291272070+290453663+290287303+290354122+290464719+290644127
1878+290900757+291247897+291780557+292935701+295542517+299834734+304080322
1868+305328551+302900593+299276734+296811795+295923514+295980409+296415725
1858+296949930+297471637+297952140+298376606+298890312+299884556+301744145
1848+304740576+308830654+312628187+313409201+310530784+306876572+304999300
1838+304938662+305429878+305896166+307268384+310634446+315089073+317893667
1828+317981191+317035705+316031847+314252468+311776988+310005095+309668667
1818+310147659+310678877+311474691+313258568+315864320+317866816+318099754
1808+317102798+316410714+317173531+319677029+323173054+325996464+326850512
1798+326356927+326634914+329353564+334010811+337274482+335969185+331746259
1788+328717964+328506692+329989748+331763668+333543733+335147962+336037720
1778+336701202+338936190+344060926+351072101+356227396+356415869+352957030
1768+348721194+345362617+344331290+346437208+350023846+352167603+352583553
1758+352995280+353699622+354577946+357205055+362936309+369961459+374112347
1748+373782959+371386727+369707130+369914350+371820704+374176453+375600657
1738+376954677+381112260+388615029+394196267+392495484+386693498+381449718
1728+377852057+376120853+376373637+377951015+380738406+386286681+395767808
1718+406367236+410993683+406831841+399136273+393069348+390492885+391737612
1708+396331405+402330070+407188356+411212405+417267622+425537397+431306111
1698+431710044+428562396+422670895+415885481+412271991+413272381+417182331
1688+422895283+431746063+443120737+449252661+444836422+436908431+432437975
1678+433009401+437307111+442260749+445722403+449116106+453688747+456296834
1668+453717830+449527318+449054953+452719810+456534510+457318993+456981432
1658+459659256+468149608+483124449+499529538+504756527+500092722+498879550
1648+503673009+507612591+504555076+498594352+496164300+499007968+506717168
1638+518579315+531676335+539011577+537742403+534951234+536884474+544172470
1628+554298021+565025421+576297121+587892784+597758238+605628612+614786737
1618+627425813+640292127+647811309+651094758+655058547+661306803+668337104
1608+674232382+678464956+681767908+684837029+687586341+689667331+691283612
1598+693157622+695802414+698909854+701663493+703814254+705948053+708608846
1588+711767791+715044303+717996956+720423094+722710308+725939848+731438404
1578+739299576+746293824+748260267+747965043+751763812+760989785+771257593
1568+777960256+782633846+789262274+799339515+813628453+834298873+859864352
1558+876143907+875613547+870277746+867342399+867015448+868106314+869173282
1548+869893865+871970734+876792246+883553212+889769878+890018474+878578835
1538+862399680+852590881+849952544+849141863+845849967+841731664+840658653
1528+843134648+846854443+850111865+852961370+854782777+854403017+853101600
1518+852379232+850754641+846941451+842999637+842175359+846356566+855713430
1508+866859012+869627415+858215245+843789442+835659485+834383546+837322395
1498+840258497+839061394+834327235+831348349+833796257+840549738+846176987
1488+845427699+839143664+832030201+827197221+824912274+824215864+825003128
1478+828180271+833990944+840991510+845939173+844919864+838187740+831460629
1468+829150204+830915780+832970674+832305578+831027648+833210891+839570465
1458+845975020+845989785+839531322+832294659+827041677+824085935+823289057
1448+823587783+823375104+822073756+820075242+817878196+816554873+817753624
1438+821720091+825523529+825782563+823640043+822102186+821682458+821212874
1428+820335443+819729200+819671103+820250838+822422132+826687463+830272179
1418+828609544+822267962+816170305+812769701+811410119+810804357+810448975
1408+810639405+811449537+811872286+811159601+810670788+812062029+814528547
1398+815945196+815901040+815191650+813740253+811766461+810907984+811971381
1388+812993917+811272842+807789693+806488208+809046129+813586632+817930868
1378+822105894+827129716+832712396+837069817+838952617+839144969+839147853
1368+839617712+840988076+844061661+848497094+851792904+851835069+849646882
1358+847714225+847283373+847936588+848515979+848337087+847720475+847345110
1348+847370038+847323340+846922841+847102283+849477054+854004372+858021314
1338+859016587+857568623+855891910+855284156+856090924+858155775+860588025
1328+862315968+863319139+864657364+867248661+871026484+875165183+878820769
1318+881608881+883579857+884998498+886187910+887486579+889303797+892122400
1308+896240016+901482560+907134805+912012010+914908351+915596589+915263870
1298+915334808+916019887+916450603+915967490+914801908+913662628+913060711
1288+912896240+912614201+911779759+910294712+908174785+905620297+903355334
1278+902323183+902804029+904161345+905540499+906456800+906704433+906419236
1268+906529524+908239749+911503214+914793255+916946214+918344390+919712351
1258+920932184+921664373+922022707+922213823+922457886+923342116+925342690
1248+927955068+929892051+930269957+929575195+929368559+930567791+931936369
1238+931220525+928277899+925619853+925241054+926516238+927676738+927964065
1228+927564733+926623504+925235835+923766239+922643440+921915234+921217382
1218+920199103+919145389+919056938+920625149+923321720+925928811+927730371
1208+928791502+929546421+930587912+932377660+934882154+937659279+940222900
1198+942207267+943504083+944515151+946000542+948341938+950801177+951991824
1188+951756346+951876660+953913424+957061931+959100343+959093133+958429480
1178+959203696+961923685+965090184+967142811+968000465+968341013+968526910
1168+968641800+969115504+970421110+972089101+972988096+972779056+972625504
1158+974051836+977132632+980296315+982254037+983434246+984924238+987100133
1148+989579630+991388607+991509059+990522438+990910439+994275883+999219357
1138+1003130406+1005059766+1005794358+1006295325+1007240949+1009033101
1130+1011143276+1012343744+1012337494+1012248083+1013091521+1014606578
1121+1016080364+1016986775+1016780345+1015730270+1015187893+1016233984
1113+1018880082+1023172332+1029740672+1037423432+1042104577+1040956094
1104+1036525880+1033865636+1034980400+1037194683+1036432622+1032372966
1095+1028785709+1028597752+1031194061+1034226442+1036147905+1036939564
1087+1037815347+1040227751+1044320027+1048060905+1048568190+1045466793
1078+1042448558+1044127881+1050779108+1057002917+1057523319+1053371984
1070+1049463476+1048090983+1047935302+1048025538+1049081107+1051159349
1061+1052934676+1053565847+1053694334+1054286842+1055744833+1058078538
1053+1060925022+1063344774+1064337850+1064346296+1065078348+1066898999
1044+1068404099+1069342511+1070797206+1071819880+1070168713+1066655760
1035+1063981026+1062299575+1060152248+1057892366+1057374505+1059624292
1027+1064087812+1068894285+1071114954+1068854386+1063625233+1059273786
1018+1059127994+1063754750+1070171940+1073741823+1072183502+1067214413
1010+1061890560+1058168499+1056996187+1058750981+1062545560+1065638992
1001+1065467585+1062861180+1060424398+1058476839+1055912737+1053067352
993+1051332748+1050891457+1050567940+1050020412+1050317010+1051641775
984+1051872584+1048917597+1043668529+1038472751+1034096170+1030477461
975+1028529766+1029411043+1033472691+1039806513+1045214764+1045604825
967+1040681953+1034185857+1028950180+1025618592+1024710807+1025830791
958+1026259720+1023932402+1020513256+1018725499+1018741225+1019028895
950+1018842037+1017997362+1015221886+1009402422+1002227703+996920813+994636827
940+993854851+992687277+990436666+987548635+985110547+983742930+982813651
930+981396109+979649899+978540422+978849312+980469576+982087918+982585314
920+982524745+983074951+984068782+984432336+984093916+983769438+983397232
910+982316873+980598544+978777549+976789886+974806412+974103135+975172026
900+976098489+974808747+971947086+969551438+968201539+967335095+966859949
890+967018995+967491738+967482055+966832617+966545359+968067215+971829450
880+975929211+977083119+973782296+967969906+963072786+961026339+961351573
870+962396291+962911611+962268971+960065607+956673793+953519243+951826461
860+951693029+952776067+954673837+956335168+956681965+956305982+956971352
850+958996030+961090135+962775501+964466292+965413564+964269064+961779472
840+960083050+959259115+957471221+954512800+952451863+953044509+955758660
830+958557486+960562729+962771656+965498100+966873614+965668202+963392320
820+961831183+960710169+959213585+958366369+960110657+964503925+968995258
810+971130018+971472008+971679675+971133726+968346507+964228959+961492489
800+961403695+962597364+963113852+962769595+962672149+963075807+963245154
790+962862304+962450954+963358121+966862215+972256182+976835897+978375814
780+976690448+972559990+966955198+961587120+958197847+957104234+957804558
770+960647677+966034777+971691212+973387702+970150745+965509568+962695704
760+961844437+961030253+958964097+957136716+958737408+964352570+969648954
750+969790351+965185914+960190111+958592577+961696172+967429177+970951194
740+969547387+966000578+964300310+965140246+966953893+968744191+970406276
730+971569730+971753017+971441518+971893865+973781060+976374073+978103046
720+978440160+978576338+979531919+980841508+981688242+981718252+980344386
710+977456973+974479461+972556556+971147598+969940813+969409080+968088984
700+963386276+956291423+951635962+953356077+961036365+969709729+973118780
690+969076635+961164165+954722526+952726485+954502293+956525941+955425048
680+950569956+944050580+938731397+936488066+938300957+943071170+946464151
670+943023854+931454287+920209404+916849523+919267489+923772969+927867030
660+929004044+926138194+920253355+912668453+905722482+903301769+907557692
650+916077985+922694464+921537054+911938050+899023253+888947111+884654242
640+885761109+889420540+891785629+891813373+892457111+896230539+902472065
630+909237633+914263445+914666486+909328418+900309355+891442746+886025087
620+882971691+878118110+872542366+873232046+881454574+888395531+888217463
610+886699109+890564284+898824033+906065846+908405182+905918886+900939908
600+894902409
##END=
