##TITLE=<SNM>
##JCAMP-DX=4.24
##DATA TYPE=INFRARED SPECTRUM
##DATE=3/5/2025
##SAMPLING PROCEDURE=Instrument type and / or accessory
##ORIGIN=Admin
##XUNITS=1/CM
##YUNITS=ABSORBANCE
##RESOLUTION=4
##FIRSTX=4497.3318
##LASTX=599.83466
##DELTAX=-1.4281778
##MAXY=1.7370536
##MINY=0.18582566
##XFACTOR=1
##YFACTOR=1.6177573e-09
##NPOINTS=2730
##FIRSTY=0.20791642
##XYDATA=(X++(Y..Y))
4497+128521397+129553057+130233390+130748755+130990138+130606003+129626413
4487+128517289+127666736+127138098+126843245+126723336+126705734+126642436
4477+126499316+126612537+127454008+128887525+129904244+129560987+128100436
4467+126741731+126492748+127383277+128716716+129830474+130451627+130488673
4457+129951110+129139124+128451771+127925768+127396881+126973148+126889374
4447+127141055+127537837+127753633+127320688+126123470+124838361+124402708
4437+125133085+126469454+127318220+126840804+125362402+124188801+124090750
4427+124374605+123915188+122720208+121811608+121812372+122369850+122871471
4417+123120629+123286906+123549502+123787321+123624480+122936464+122025653
4407+121102038+120152928+119469647+119481160+119920765+119991063+119485232
4397+119046714+119205715+119678359+119863491+119766407+119901735+120309994
4387+120430022+120110078+119869524+119919420+119792511+119169644+118319018
4377+117575009+116984059+116538043+116325094+116372144+116566377+116781932
4367+116980991+117131923+117066211+116582404+115791197+115210370+115329791
4357+116101203+117005861+117634079+117987809+118126812+117844909+117005189
4347+116001798+115455272+115480271+115618740+115477240+115125150+114866219
4337+114876867+115108349+115405293+115706576+116099692+116601111+116997617
4327+117070863+116809722+116250227+115482141+114931295+115012380+115391127
4317+115375385+115056491+115119255+115653419+116140045+116383575+116582781
4307+116811656+117105312+117626784+118363175+119121342+119842517+120383765
4297+120257620+119254413+117995491+117286879+117264690+117586863+118068387
4287+118689116+119257259+119441737+119070442+118244436+117236532+116397447
4277+116045209+116233187+116664087+117024661+117366914+117928739+118649905
4267+119192543+119418065+119503709+119562309+119477237+119207115+118982274
4257+119092760+119639074+120428097+120963330+120793792+120108328+119613670
4247+119637950+119870067+120129652+120682045+121598373+122510888+123104556
4237+123257523+122845957+121998656+121263480+121006999+121011034+121008326
4227+121202576+121926423+123011479+123803588+123875056+123524329+123299921
4217+123241671+123102456+123033217+123374678+123977344+124271129+123882056
4207+123009351+122368772+122608792+123585177+124541591+125051107+125271775
4197+125386037+125364336+125163785+124806748+124422548+124190956+124030805
4187+123675159+123258186+123247446+123578029+123586650+123051685+122614503
4177+122965175+124111327+125499397+126515776+126919789+126970394+127028101
4167+127082759+126924357+126603400+126332569+126105113+125802955+125546723
4157+125581872+125883579+126132322+126095413+125923555+126008664+126505238
4147+127085227+127304108+127081635+126633151+126100839+125533386+125118651
4137+125165526+125794877+126703606+127338511+127417413+127191421+127038785
4127+126984137+126837267+126560228+126252682+126022840+126066417+126590818
4117+127462832+128191607+128421513+128242046+127916363+127568584+127292208
4107+127309819+127778337+128572666+129418770+130102760+130479407+130458203
4097+130051611+129367437+128572693+127858104+127332183+126996562+126902518
4087+127140539+127579803+127879133+127913324+127964353+128310576+128811663
4077+129081951+128971723+128726591+128700017+128986442+129326715+129353546
4067+128938692+128298859+127763857+127445856+127172713+126812324+126561379
4057+126676158+126962003+126927728+126542865+126404645+126940615+127800461
4047+128314785+128282270+127952572+127469547+126848330+126378615+126455637
4037+126946445+127220205+126971941+126682836+127086148+128292826+129597629
4027+130203160+130044804+129764283+129879587+130186608+130149368+129714645
4017+129341637+129190410+128841553+128020439+127059851+126448692+126416813
4007+127042000+128274552+129770013+130991907+131534490+131336325+130718469
3997+130200765+130078701+130160439+130112008+130004414+130201290+130764533
3987+131385917+131829868+131987736+131674387+130894289+130126220+129889452
3977+130211293+130738697+131102006+131109909+130898636+130894648+131326644
3967+131863940+132103159+132244455+132763127+133537367+133920609+133666680
3957+133172095+132853395+132889566+133506316+134882099+136602106+137662338
3947+137488277+136742730+136517908+136976689+137381135+137264994+136902264
3937+136762138+137244232+138615271+140461818+141510537+140950361+139701939
3927+139337782+140120523+140831096+140614951+140283714+141030791+142587266
3917+143291364+141973896+139367745+137167431+136293003+136560509+137761734
3907+140489921+145300504+151126774+155417985+156545467+154788966+150997590
3897+146515306+143563014+143755110+146330855+148254812+147572774+146436966
3887+147661145+150486867+152203438+152765945+153667610+153660637+151048480
3878+148046386+147774827+150272905+153839487+157520138+160316192+160690343
3868+159443045+158996182+159373704+158331314+155184265+152120180+151491557
3858+154416832+161318238+170912286+176728222+172409405+162754380+154726294
3848+150903509+151423930+155075557+159863527+164222835+167669775+169810688
3838+169723644+167533452+164941201+162953964+161079231+158971183+157420954
3828+157159140+158251768+161246466+166740606+172554626+174356095+172350897
3818+170424030+168694351+164895035+160018290+157106619+157741331+161711290
3808+166832937+170226417+172390154+175929978+179906422+180678230+178624214
3798+176820037+175496914+173608512+171935886+171900608+173640934+176608829
3788+180585033+185329785+190144061+194845208+200418249+207427028+214668384
3778+220974326+227253096+235051791+244834259+255885911+266176587+273400184
3768+277659074+280827953+284015438+288263458+295205310+304959555+315216427
3758+324437190+334700601+349249780+369250213+392180996+411565802+423616921
3748+432986644+445078255+458957868+468162383+471589022+475865357+485522574
3738+500292780+516353779+528991159+536580728+541203913+545557695+550831655
3728+556668628+561491655+563718138+563404153+561170044+556669144+550017329
3718+543148429+538748740+538867082+543405416+548190272+547693652+542731981
3708+538852345+539027870+542525507+546493937+547873745+546688805+546268857
3698+548763417+553450121+559272099+566681648+576145102+585144359+588535960
3688+585666291+582386955+582294992+584216959+586179528+588218033+591888985
3678+597248902+600341071+596884294+590431362+586677475+584776030+580629680
3668+574059585+568556160+566116866+566055816+566629587+567246430+568755781
3658+571310212+573719957+575916006+579983915+587494270+596402301+600370326
3648+595580864+586626741+579649040+576965102+577853264+580252840+582411493
3638+583963767+585494930+587642640+591055279+596369915+603086612+608167916
3628+608351804+605376467+603464927+604722449+608719286+613142482+616049510
3618+618514189+622636074+627776181+631770365+634472503+637081648+638899826
3608+638376936+636543652+636001014+637827813+641404996+645647509+649725771
3598+653009456+654639434+654090458+652849258+653850162+658824765+666695306
3588+673277707+673987249+668613110+660890902+654628602+651811068+652216204
3578+654357725+657088749+659922863+662298859+664035390+666241093+669698386
3568+672277393+670147809+662642908+653573611+647249854+645264921+646391831
3558+648560690+651082736+654073658+656042306+654398474+649331614+644471301
3548+642447313+642354761+642324549+642613185+644440573+647439896+649968426
3538+650916348+650243135+648361954+645851330+643420584+641576100+640129383
3528+638332207+636190465+635046017+635865207+637638361+638323512+637039941
3518+634690399+632789101+632168648+632423682+632689328+632956447+634013796
3508+635933221+637115250+635577013+631689750+628354484+627280702+627098767
3498+626056745+624105634+621838770+619854500+619109367+620024793+621702226
3488+623027063+623831073+624495444+625100201+625156572+624209092+622763039
3478+621880330+621928743+622446107+622902383+622932005+622339701+621299816
3468+620142473+619352758+619533662+620393749+620593664+619566675+618112847
3458+616778542+615523967+614637390+614280224+614009605+613792410+614019737
3448+614087420+612823560+610466907+608568041+608175063+608980694+609641823
3438+608855351+606530826+603752015+601645681+600563020+600107849+599658573
3428+599164458+599379259+600675725+601890435+601377898+599102266+596472489
3418+594438774+593193299+593385146+595734024+599058569+600503517+598603177
3408+595174401+593214079+593410715+593814231+592765282+590738789+588983430
3398+588003306+587804164+588295626+588982878+589267350+589254455+589409199
3388+589521242+588851860+587473121+586505929+586509098+586527151+585336206
3378+583197965+581944569+583281674+586847252+590047706+590555269+588889441
3368+587492354+587613128+588127470+587272984+584967803+582904650+582284602
3358+582464253+582340200+582043237+582349374+583226961+583918596+584056540
3348+584030381+584295326+584613400+584086200+582189692+579827549+578603150
3338+578903207+579669783+580085494+580179925+579719744+578136999+575843166
3328+574247342+574205634+575254362+576329801+576743338+576536238+576220264
3318+576156303+576106748+575506559+574346121+573512230+573685581+574136073
3308+573578181+572073325+570857804+570601223+571030050+571772309+572543307
3298+572932232+572675466+571889179+570958720+570485422+571226097+573339948
3288+575462715+575723386+574159137+572913957+573457554+574863963+575668967
3278+576026907+576621274+576947123+576376335+575448788+574750447+573998313
3268+573112805+572789498+573249643+573612630+573107867+571976683+570742041
3258+569531200+568639575+568702210+569892086+571577589+572717174+572496331
3248+570913070+568854891+567288505+566387633+565768359+565288061+565050306
3238+564840774+564230969+563233013+562353215+561963037+561901987+561697723
3228+561049601+560087678+559090826+557963216+556322037+554344104+553013335
3218+553061196+554123703+555169188+555446734+554975868+554225245+553378754
3208+552300588+551187421+550484916+550127640+549676817+549157795+548900108
3198+548632105+547639270+545837156+544012494+542968593+542826081+543223075
3188+543752412+543953323+543424169+542296669+541095444+539907152+538328644
3178+536423331+534806984+533655941+532630646+531720600+531133012+530530207
3168+529343830+527585450+525743914+524293402+523638242+523903961+524414214
3158+524038773+522491805+520710139+519485003+518478683+517083658+515471328
3148+514300463+513915148+514147008+514458708+514137502+512744025+510507373
3138+508221461+506739632+506309773+506252407+505674804+504605739+503848594
3128+503723656+503760095+503672775+503740568+503987607+503800439+502641327
3118+500687785+498707199+497483352+497203153+497333065+497246113+496819791
3108+496243698+495574796+494786813+494001594+493356161+492738655+491844525
3098+490562133+489264340+488561725+488626681+488883336+488665109+488060389
3088+487682590+487650536+487356558+486458559+485536170+485264114+485349628
3078+484945818+483938466+483043452+482546537+481813857+480481468+479284627
3068+479010434+479298960+479181391+478292234+476992820+475736329+474745889
3058+474109814+473830132+473704899+473343238+472470072+471195417+469923489
3048+469050949+468661950+468373204+467641150+466425114+465286672+464621895
3038+464184889+463647335+463212134+463172342+463148614+462420467+460937790
3028+459365768+458175522+457260538+456399973+455618696+455039398+454637577
3018+454235572+453753837+453375449+453253054+453136369+452557107+451375189
3008+450005292+449052027+448624600+448090104+446818618+445073539+443718711
2998+443148624+442968199+442687448+442312302+442114450+442064416+441790407
2988+441092913+440171482+439239034+438263957+437174701+435995509+434789753
2978+433712139+432987602+432659543+432531252+432411473+432217784+431866071
2968+431274983+430500411+429745920+429176791+428713035+428091366+427222217
2958+426357967+425719903+425150737+424454569+423855302+423638143+423505026
2948+422832881+421550341+420299561+419654312+419497025+419266382+418631670
2938+417760678+416923656+416068507+415059976+414186663+413916891+414057230
2928+413717307+412416861+410717727+409420708+408684307+408318077+408346926
2918+408733788+408955184+408398913+407072824+405637676+404754489+404499786
2908+404436709+404142915+403509457+402645391+401754945+401044888+400577190
2898+400276101+400044131+399715372+399086887+398216153+397433108+396907749
2888+396502244+396055547+395473191+394643059+393639502+392851299+392519297
2878+392308918+391736178+390888435+390316947+390256892+390329695+390052629
2868+389346440+388450504+387585481+386880250+386449175+386241485+385887636
2858+385071836+384025540+383260769+382895903+382644295+382292804+381798099
2848+381135644+380381337+379779085+379523535+379532820+379510050+379224399
2838+378680508+377982719+377213527+376553835+376188895+375933456+375362669
2828+374438511+373579898+373063345+372726112+372255172+371532514+370742947
2818+370194451+369935658+369642233+369003432+368076916+367157437+366467312
2808+366052117+365806220+365509073+364965145+364212459+363491422+362919677
2798+362345979+361617389+360808369+360083684+359524208+359120435+358729041
2788+358078965+357038307+355794637+354637146+353709672+353042391+352614521
2778+352285836+351800159+351002744+350057990+349330874+348974298+348753528
2768+348377904+347841234+347315728+346889738+346503429+345985034+345141453
2758+343978952+342822640+342049837+341650743+341162744+340181809+338882027
2748+337810787+337228505+336948012+336747801+336546117+336179372+335403548
2738+334239167+333070365+332252170+331727807+331181263+330494270+329835241
2728+329320715+328841448+328249844+327541739+326851246+326345930+326070411
2718+325866074+325485918+324764070+323707274+322545730+321622456+321054064
2708+320603498+320033485+319387831+318787900+318234798+317747794+317406950
2698+317146242+316753374+316141948+315398215+314558909+313623550+312791723
2688+312385334+312455043+312656727+312597850+312215004+311760718+311431996
2678+311067019+310318607+309149657+307977724+307222072+306874835+306628773
2668+306272841+305848325+305512289+305332730+305197070+304919985+304433331
2658+303821352+303198044+302602092+301969462+301212337+300385557+299683403
2648+299193525+298824772+298548479+298445831+298427207+298206161+297674189
2638+297030727+296450176+295892063+295342609+294987506+294971240+295119795
2628+295062502+294612840+293928241+293267923+292690136+292098476+291521260
2618+291120324+290906702+290720124+290544654+290527098+290598189+290425833
2608+289887542+289288624+288974234+288954081+289007633+288949144+288697794
2598+288272467+287825586+287542034+287416562+287229284+286795170+286164198
2588+285563143+285201483+285137798+285276994+285450161+285503917+285384468
2578+285172634+284978595+284798833+284565482+284296465+284075364+283932023
2568+283834847+283741429+283635815+283604295+283822743+284345173+284958939
2558+285351972+285392850+285197209+284935248+284635209+284254279+283854135
2548+283512535+283144667+282676048+282273140+282098813+281997639+281736176
2538+281371291+281081384+280834235+280514245+280206947+280105110+280237730
2528+280457947+280624224+280686103+280634688+280436743+280051116+279549650
2518+279171115+279127879+279364436+279624020+279733225+279705740+279605377
2508+279429023+279127639+278685216+278180085+277768482+277558693+277487639
2498+277377512+277141140+276863760+276639951+276420361+276106063+275715517
2488+275372665+275188279+275175181+275187210+274969149+274399467+273650226
2478+273014759+272641290+272485256+272414055+272290977+272028261+271629075
2468+271196895+270878176+270732937+270653464+270476097+270160105+269803418
2458+269537976+269453087+269525559+269582041+269415672+268979218+268432821
2448+268017553+267868482+267898160+267891399+267746878+267541344+267339697
2438+267096287+266799969+266571499+266524321+266595393+266582258+266350196
2428+265978514+265669798+265534691+265531946+265594728+265713163+265894988
2418+266118963+266313039+266365320+266244564+266113160+266174984+266401096
2408+266551014+266464541+266194383+265877580+265626027+265533991+265653587
2398+265932109+266245467+266509528+266716333+266880252+266999848+267039031
2388+266893921+266420365+265529588+264177413+262251172+259617103+256313854
2378+252546740+248492076+244306156+240295576+236787549+233798727+231076747
2368+228488770+226171853+224352294+223259888+223180895+224332601+226690193
2358+230180351+234986504+241464231+249795138+259467866+268900648+276070398
2348+279669393+279772980+277830601+275532052+273292379+270606249+267313335
2338+263658171+259873187+256146582+252705114+249876526+248005293+247107387
2328+246734046+246328965+245642653+244879467+244528012+244927788+246002840
2318+247439406+248940376+250315412+251547254+252753232+253990822+255222922
2308+256443619+257607079+258515173+259046905+259396407+259832051+260346982
2298+260779697+261142481+261603860+262242330+262982065+263684220+264213834
2288+264515770+264658964+264727568+264708870+264560259+264310991+264056012
2278+263902226+263874850+263831522+263588757+263171056+262792632+262578679
2268+262455804+262334495+262257123+262298462+262399617+262409970+262299401
2258+262203072+262188648+262109673+261812010+261369661+260971801+260694882
2248+260533910+260535624+260758235+261171570+261651389+262018060+262131706
2238+262018576+261838962+261743573+261844267+262220721+262829181+263494270
2228+264068245+264543624+265029007+265661619+266480845+267375288+268228614
2218+269078033+270024703+271059614+272138922+273372238+274923721+276739153
2208+278574777+280275938+281861316+283422802+285083435+286931253+288919189
2198+290934261+292939846+294966413+297032146+299103312+301082204+302874277
2188+304480436+305974829+307421140+308800874+309978463+310828417+311400384
2178+311820331+312121494+312304277+312400366+312400882+312255754+311927069
2168+311394452+310692463+309899470+309017037+307956520+306661748+305188891
2158+303685324+302266775+300952992+299797914+298867364+298031742+297154486
2148+296389310+295967336+296247589+298238823+303033517+310395795+318878204
2138+327396979+335795568+344143128+352403847+360544345+368544576+376505606
2128+384634977+392972736+401362225+409584000+417324814+424280260+430292648
2118+435152629+438557641+440515973+441581870+442684869+444898788+449256917
2108+456522369+466960789+480288479+495657547+511299630+524524746+533125314
2098+536632310+535631258+530996357+524039952+515961464+507191782+497622917
2088+486584123+473040675+456899209+439303253+421394380+403879076+387340173
2078+372142872+358572712+347019429+337478012+329482091+322828102+317598834
2068+313626351+310582557+308136724+305827600+303426532+301182475+299288159
2058+297698414+296485012+295705577+295242743+295149620+295664810+296927398
2048+299108839+302512672+307454834+314429439+324088609+336807746+352754381
2038+372158604+394710631+419001215+443115280+465298646+484009244+498167360
2028+507375339+511795845+512233072+509876088+505647650+500174437+493908563
2018+486873754+478906498+470196024+461088777+451616885+441513414+430517838
2008+418713537+406599563+394717558+383371006+372729981+362855053+353594240
1998+344818516+336810620+330091086+324711899+319975271+315160535+310349040
1988+306126386+302770138+300107735+297849898+295800414+293936771+292365430
1978+291120784+290105474+289214881+288370564+287561783+286967084+286769674
1968+286754402+286410850+285567657+284600004+283900245+283500487+283313670
1958+283375881+283637989+283832415+283775528+283574065+283418436+283381371
1948+283506880+283956561+284839159+285739110+285745429+284486433+282753844
1938+281540055+281055207+280968531+281023723+281174121+281422891+281709280
1928+282014348+282581432+283647311+284887314+285789568+286537943+287492535
1918+288051163+287360707+285913861+285032516+285258849+286085886+286701199
1908+286678411+286222577+285846584+285791392+285908095+286064774+286409303
1898+287137653+288075333+288711187+288933411+289350669+290280078+290953328
1888+290553055+289443608+288461845+287887392+287660212+287744824+288008535
1878+288274769+288514827+288834946+289613275+291542003+294790373+297912330
1868+298552974+296240755+293034940+290907752+290190528+290192389+290274864
1858+290277112+290343597+290597765+291002736+291552596+292412590+293808867
1848+296042203+299256307+302391897+303122772+300813740+297836303+296310703
1838+296228946+296535949+296827790+297933350+300718756+304356677+306583123
1828+306605561+305843811+305051739+303633595+301718481+300462395+300382960
1818+300907010+301399762+302012441+303334643+305339896+307022082+307463455
1808+306991447+306744426+307607828+309800838+312749390+315161271+315993577
1798+315722958+316102341+318548930+322630029+325531420+324596209+321184344
1788+318768409+318829202+320499746+322519976+324525026+326352120+327536433
1778+328326332+330129109+334251178+340225543+345066844+345836847+343305664
1768+340031928+337647311+337314204+339526612+342845299+344923042+345604546
1758+346331293+347333192+348478046+351042093+356163446+362444168+366592655
1748+367240078+366123926+365407826+366109999+368101785+370241906+371322577
1738+372178979+375298302+381073636+385182994+383463448+378591787+374336379
1728+371589733+370470965+370945368+372426276+374959043+380001733+388513434
1718+397954929+402376798+399664049+394270271+390377666+389357751+391307240
1708+395744768+401099859+405431940+409219281+414996568+422882952+428686213
1698+429890864+428255691+424490750+419724058+417243536+418595674+422586505
1688+428224300+436526542+447129323+453794587+451790273+446462631+443756808
1678+445341579+450298275+455958250+460194279+464038544+468775246+472191826
1668+471674168+469760859+470584802+474517456+478466138+480088342+481030738
1658+484552619+492850661+506568418+521682121+527437853+524176349+523177877
1648+527161192+530874919+529323676+525311697+523718673+526106201+532562706
1638+542701327+553649152+559014559+556767039+553369543+553928467+558616313
1628+565341742+572725869+581087356+590144385+597962791+604261752+611803165
1618+622392388+632968753+637960598+637446772+635480334+633945561+632589554
1608+631040043+629762293+629671362+631246296+634322327+638731154+644618235
1598+651800088+659246850+665642673+670452215+674187459+677514693+680527058
1588+683199427+685923451+688891088+691522265+693464312+695895500+700850797
1578+708952718+717313874+721276814+721872435+724750172+732577458+743404656
1568+753550462+762454256+772144817+784106515+800031154+823163437+853422233
1558+876651268+881835514+879581840+878029529+878102332+879383546+881069527
1548+882278747+883216721+884799761+887968860+893127831+896827705+891705873
1538+879406094+869210476+863762796+860054521+855259938+850345096+847804776
1528+848190017+850483703+854107384+859045585+863539374+864474254+862048371
1518+859231279+856929192+854895920+854309142+856743204+862565071+871004557
1508+879205884+880033990+870113817+858354834+851991728+851497061+854494615
1498+856930077+855249475+850773960+848454041+850759812+855635231+858299936
1488+856071980+851443195+848076390+847063107+847418578+848143446+849535486
1478+852412634+856760815+861667920+865398522+865337140+860894196+855671191
1468+853362104+854503899+856630461+856923371+856407481+858840585+865696148
1458+872874243+872206556+863421694+854967397+850942559+850355192+850483188
1448+848743930+844890195+841110738+838936500+838008915+838168818+840303191
1438+843901450+845278162+841868471+837011106+834714915+834809014+834700988
1428+833387867+832416733+832846187+833904568+834902451+836162442+837054361
1418+835417235+830905245+825786877+821922900+819764136+818726978+817861070
1408+816988088+816627828+816547655+815927865+815296507+816215912+818825867
1398+821296110+821974776+820743450+818314030+815893822+814842662+815383016
1388+815895885+814478054+811912533+811238214+814092813+819428708+825411289
1378+831284149+836950019+841732738+844763378+846368524+847885981+850127717
1368+853029918+856509539+860552505+864245968+865759372+864359816+861632918
1358+859575623+858596162+857774688+856367985+854726216+853813074+854184462
1348+855537521+857147972+858779645+861019908+864434609+868514272+871860886
1338+873604638+874276083+875020774+876504703+878775767+881721371+885309903
1328+889412629+893732514+898038177+902266910+906361384+910209813+913711393
1318+916800762+919696406+923074116+927310144+931473368+933914136+934238658
1308+933960780+934835310+937095689+939699675+941908031+943815223+945393620
1298+945999041+945192231+943448110+941615121+940029945+938519636+937019422
1288+935642635+934145885+931907612+928851771+925988550+924464682+924280462
1278+924226007+923073453+920945196+919196654+918854152+919641361+920574030
1268+920964281+920753092+920431665+920821548+922558300+925604857+929131417
1258+931786469+932623491+932000680+930943920+929645538+927379706+923855430
1248+919825728+916232480+913276265+910446425+907246156+903743692+900389046
1238+897500624+895097658+893059301+891308621+889917171+889077349+888862548
1228+888853632+888248212+886775852+885224056+884651648+885464353+887487236
1218+890201533+892643553+894101102+895240392+897376386+900507389+903262214
1208+904793967+905687507+907094137+909687513+913091530+916126738+918119925
1198+919496564+920621706+921266918+921735279+923087527+925687387+928689657
1188+931408376+934211320+937579303+941226712+944702280+947819134+950024911
1178+950651922+950243912+950171403+950839163+951716492+952685858+953982840
1168+955576270+957603868+960380064+963513351+966232954+968563779+971100856
1158+973997016+976949399+979591703+981684811+983612857+986227381+989433324
1148+991416047+990377931+987103089+984502566+984602782+987345154+991552591
1138+995433517+996847810+995119827+992333758+991563055+994338808+999891714
1128+1005778795+1009683375+1011299574+1011347103+1009914976+1007704631
1120+1007270093+1010502638+1015753202+1019632728+1020479182+1018875289
1111+1016669513+1016048765+1018218508+1022169658+1025609635+1027653519
1103+1029403388+1031660598+1033849279+1035635182+1037376282+1039099844
1094+1040813163+1043021445+1045425958+1046661558+1046507182+1046443000
1085+1047235367+1047885737+1047459305+1046644315+1047027346+1048954729
1077+1050843131+1051266248+1051011508+1051813749+1053887330+1056103201
1068+1057807384+1059425351+1061347134+1063052937+1063842357+1064052589
1060+1064919601+1066845364+1068487353+1068486321+1067615698+1068102407
1051+1070351733+1072145815+1071972206+1071107256+1071405987+1072609017
1043+1072953067+1071915098+1070884939+1071185071+1072557878+1073708295
1034+1073741823+1072730824+1071316751+1069960966+1068377042+1066260797
1025+1064548067+1064633250+1066227711+1067283512+1066212457+1063157574
1017+1059321082+1056117202+1054556564+1054431442+1054551332+1054223199
1008+1053746438+1053469740+1053440559+1054371533+1056962109+1060180063
1000+1061965523+1061192389+1058203162+1054480518+1051682806+1050050248
991+1048601026+1047028230+1045723215+1043957062+1040253798+1035009276
983+1030985469+1030338710+1031933097+1032606900+1031172194+1029394472
974+1028567176+1027489268+1024366813+1018914786+1012364586+1006563425
965+1002690089+1000180497+997535614+994409548+991819415+990216038+988547374
955+985451372+980777711+975727357+971775765+969612064+968925882+968920429
945+968809086+968061448+966720326+965412512+964457957+963133268+960814454
935+958585540+958176424+959611351+961069710+960990569+959761011+959036363
925+959565517+960172264+959347400+957318549+955546205+954752585+954495193
915+954083277+953164830+951901302+950736589+949904136+949595826+950383256
905+952457646+954440517+954306036+951840067+948750182+946183850+943919492
895+942191730+942224152+944025971+945243886+943976084+941816658+941709663
885+943655689+944854150+943782506+941499062+939250694+937782977+938238737
875+941144181+944864983+947206492+947625040+946353185+943563874+940393963
865+938478370+937900288+937121259+935163811+932503748+929946553+928422464
855+929343638+933015585+937062087+938485665+937299584+936409064+938031821
845+941441217+943764968+942702682+938843421+934938399+933019858+933010353
835+933553654+933438627+932939244+933662712+936469636+940182479+942745790
825+943025878+941313663+939072811+938304835+939951762+942963685+945730890
815+947870274+950033238+952519397+954686708+955677370+955407229+954617736
805+953996915+953507921+952801843+952137546+951994959+952025982+951462785
795+950470134+949884830+949933685+950560549+951850383+953185757+953529659
785+952965799+952483953+952287648+951859889+951050427+950376255+950749337
776+952470689+954309205+954864001+954623926+955023610+956002555+955808534
766+953169767+949220901+946652285+946909751+948897632+950796277+952154568
756+953503795+954912636+955881706+956301138+956716886+957453398+957843281
746+957056735+955465885+953993673+952788358+951629541+950972465+951759453
736+954090941+956327519+956347783+954186735+952356620+952975231+955545763
726+957458408+956390080+952624255+948719381+947316214+949525748+954108552
716+958301325+960515871+961172947+960609897+958354233+954992292+952426771
706+951686501+951817592+951487175+951101124+951739630+952995716+952983042
696+949859408+943481638+935501817+928332344+924007596+922803239+922968005
686+922685780+921675518+920262993+918297660+915605248+912546754+909451269
676+905994049+901561348+895820537+888883402+881763815+878047877+881691085
666+889691833+896280129+899031271+897224957+891156750+883665481+879828105
656+882622428+888637579+891183057+888787608+885920260+885553147+886487953
646+886633339+885357210+882634807+878592358+874107633+870159135+867008752
636+864490907+861928702+858684219+855053022+851947221+850069724+849272273
626+847923119+843901376+837926385+833744517+833957402+837648949+843366843
616+851513419+861129261+868167791+869330661+865715970+861168610+857850219
606+854823263+850248049+845515585+844553073+847507224
##END=
