##TITLE=<SNM>
##JCAMP-DX=4.24
##DATA TYPE=INFRARED SPECTRUM
##DATE=3/5/2025
##SAMPLING PROCEDURE=Instrument type and / or accessory
##ORIGIN=Admin
##XUNITS=1/CM
##YUNITS=ABSORBANCE
##RESOLUTION=4
##FIRSTX=4497.3318
##LASTX=599.83466
##DELTAX=-1.4281778
##MAXY=1.7242762
##MINY=0.17800464
##XFACTOR=1
##YFACTOR=1.6058573e-09
##NPOINTS=2730
##FIRSTY=0.20091061
##XYDATA=(X++(Y..Y))
4497+125111122+124713032+124658563+124722080+124699021+124621604+124548122
4487+124406130+124200270+124245924+124862215+125862788+126667698+126884694
4477+126688168+126708202+127428115+128595250+129412725+129295853+128245320
4467+126742712+125614206+125602663+126609768+127640814+127869752+127404100
4457+126744057+126091141+125485558+124982715+124482777+123959613+123808741
4447+124334597+125136241+125519882+125224950+124523977+123888292+123667390
4437+123872109+124102253+123789041+122746814+121503876+120837366+121008197
4427+121710701+122496515+122882950+122451000+121242711+119763477+118415981
4417+117277296+116428550+116159210+116701907+117778283+118577227+118481632
4407+117737500+117162465+117356318+118254735+119188228+119343368+118433417
4397+116986419+115912558+115724830+116055301+116095833+115694514+115557989
4387+116115375+116845838+117037380+116596996+115857059+115162896+114812530
4377+114912885+115154063+115038378+114472650+113926176+113844630+114102361
4367+114224383+114001329+113639929+113372863+113155636+112859284+112598806
4357+112567646+112617652+112468479+112346661+112827948+113916228+114785157
4347+114655767+113666088+112662128+112281437+112457093+112762631+112972621
4337+113072317+112927245+112371381+111629653+111231656+111397365+111833008
4327+112161512+112231394+112014055+111557247+111076591+110847105+110978184
4317+111388207+111935015+112481451+112974505+113548881+114346257+115123163
4307+115351692+114938209+114474320+114482690+114800607+115026686+115113345
4297+115062087+114597641+113753489+113267720+113739180+114815982+115830585
4287+116718258+117612091+118072110+117543592+116209643+114766654+113763733
4277+113531223+114153119+115181770+115941166+116270765+116445735+116458745
4267+116063792+115461457+115211390+115412861+115591876+115526161+115610732
4257+116168842+116928563+117484622+117837744+118199709+118663756+119238030
4247+119815942+120045372+119652525+118922489+118506389+118765196+119495706
4237+120147304+120213568+119663141+119063478+119035965+119567815+120089198
4227+120192300+119977939+119730545+119612764+119711671+120032910+120378655
4217+120502681+120434915+120450012+120701443+121017383+121078942+120743413
4207+120212361+119908419+120135668+120785253+121402741+121650665+121644596
4197+121686789+121785928+121708298+121377947+120946276+120593108+120446616
4187+120560148+120857529+121179724+121359992+121304251+121182628+121392943
4177+122086418+122924725+123520648+123875171+124174854+124404293+124384250
4167+124103766+123821500+123755775+123820684+123858784+123956170+124236376
4157+124524840+124533553+124253069+123934373+123758318+123660208+123502071
4147+123348165+123429980+123821964+124314887+124617929+124575068+124282902
4137+124103228+124413665+125206587+126009827+126321740+126135162+125913035
4127+125932494+125840555+125170760+124143453+123493061+123554907+123988777
4117+124408376+124843926+125469023+126188768+126663217+126627352+126117940
4107+125448562+124989851+124974114+125469811+126368582+127321004+127899260
4097+127990716+127861837+127704089+127355746+126646922+125815167+125373419
4087+125642600+126467053+127310630+127652394+127351097+126656990+125947387
4077+125503013+125425206+125646294+126050034+126562045+127019818+127111646
4067+126729164+126235916+126012936+125894439+125475713+124841012+124508518
4057+124681594+124951417+124858373+124521193+124471122+124924219+125540863
4047+125971995+126246559+126454294+126456271+126161580+125760809+125482914
4037+125350304+125280255+125294192+125520625+125983734+126452540+126629180
4027+126521866+126526320+127039444+127965903+128703985+128794105+128481709
4017+128323090+128345035+128100555+127495000+126964236+126783903+126750627
4007+126652555+126617126+126918099+127724949+128935010+130016693+130297771
3997+129670493+128726793+128066101+127809984+127839492+128095303+128579049
3987+129320109+130284938+131166328+131451173+130925494+130028014+129529774
3977+129839766+130641252+131205607+131098664+130570238+130183441+130156494
3967+130328365+130677367+131380243+132306517+132936894+132923958+132432195
3957+131915600+131772848+132158197+133037110+134294774+135512694+135935327
3947+135373524+134769667+135020059+135761620+136023870+135586799+134985995
3937+134736178+135144030+136245681+137469328+137863900+137187285+136309532
3927+136085902+136397815+136571003+136466073+136775007+138038350+139647048
3917+140154113+138870662+136775675+135306788+134890975+135116962+135954814
3907+138220975+142502544+147727118+151388982+151942656+149919806+146432875
3897+142624400+140143860+140287178+142508687+144243955+143711038+142716431
3887+143744554+146316690+148234044+149226572+150249146+150244896+148065134
3878+145770012+145856077+148133559+151193273+154372773+156669899+156511725
3868+154772133+153981068+154392835+154015280+151959879+149647330+148871510
3858+150966191+156986173+165955261+171291390+166961466+158120507+151333408
3848+148396616+148750667+151103097+154239532+157639321+161077026+163467362
3838+163344876+161272930+159424557+158508472+157598753+156285571+155341267
3828+155217102+155705729+157431392+161474605+166497002+168776266+167864523
3818+166641443+165150564+161459443+156600546+153547262+153889927+157310762
3808+161634969+164471526+166598350+170224888+174119280+174746706+172603309
3798+170860164+169833340+168300444+166783694+166751644+168441229+171027395
3788+173985362+177386209+181195418+185339274+190229052+195926404+201244327
3778+205285777+209167085+214625552+222272160+231471930+240545075+247768400
3768+253265728+258430005+264076024+270981609+280489877+292980851+306680651
3758+319396220+331503199+345686690+364346012+386800475+407259750+420776025
3748+431014830+443174479+456492364+465614058+470149647+475176554+483525843
3738+495435359+509827819+523739317+533547416+538456291+540618877+542039531
3728+543175720+543420767+541979847+538910974+535197973+531834651+529456229
3718+528544821+529665495+533414500+539216448+543872110+544214849+541937311
3708+541018590+543291637+548354102+554101042+557460949+557696642+557605669
3698+559277531+562514766+567018212+573181048+580680877+587403735+590840289
3688+591001674+590165835+589811590+590136364+590878408+591647139+592644250
3678+594260140+594936709+592473883+589262927+589121140+590795748+589400853
3668+583644560+577328838+573559753+572639993+573148348+574188998+576657837
3658+581125353+585605712+588282406+591233952+597528479+606032918+610221202
3648+606161751+599113933+595214716+595395290+597226904+598269298+598148556
3638+597941963+598432799+599995203+603469616+609840901+618341182+624627767
3628+624487984+620764367+618906326+621192178+627384448+635557320+642134531
3618+644666654+644887575+645688040+647088837+647400249+647048454+648402631
3608+651814576+654851194+656098400+657082076+659808247+663963498+667467716
3598+669309240+670311919+671280080+672284986+674110550+678442849+684937808
3588+689201812+687504525+682526389+678937396+677854247+677707857+677220288
3578+676616988+676415814+676475275+677037672+679563263+684527071+688807406
3568+687638146+680781444+673402505+668947943+667181989+667248206+668343826
3558+669209915+669084608+668151412+666367419+663441632+660528985+660111493
3548+663483278+669138947+673819552+675249671+673854442+671891026+671251277
3538+671839507+671827333+669813215+666549886+664159624+664411574+667486794
3528+670987672+671192558+667028770+661766393+659397436+660574120+662777683
3518+663328871+661649474+658970961+656590572+655038635+654484775+655128087
3508+657248360+661103928+666214868+670543529+671613242+669030343+664796998
3498+661247126+659362323+658294763+656520866+653923640+652018275+651983607
3488+653387744+655156370+656886172+658581604+659903341+660388015+659991976
3478+658798812+656844824+654791584+653642515+653631232+654448846+655919199
3468+657303071+657045627+654632352+651930010+651290558+652675840+653629005
3458+652285443+649234720+646311829+645050593+645780981+647196773+647697036
3448+647790942+649460689+652410453+653411351+650609832+646239748+643420710
3438+642447576+641877161+641408002+641591360+641840712+641163772+640026061
3428+639282013+638679455+638120919+638625562+640701368+643171358+644525535
3418+644750093+645093723+645996186+646155715+644647724+642591070+641350100
3408+640679172+639696239+638385786+637128632+635704971+633608899+631083085
3398+629371471+629515337+630862759+631685569+631646002+632266302+634713353
3388+638225069+640560769+639877816+636705646+633605261+632414993+632557596
3378+632364662+631227693+630035272+630291379+632777032+636184449+637638843
3368+635520500+631225615+627550881+626154613+626856718+628436270+629718738
3358+630182775+629793417+628732910+627392020+626157508+625153047+624440103
3348+624315910+624920843+625840009+626613825+627234792+627607670+627133686
3338+625842681+625224980+626364398+627782788+627225587+625197884+624295718
3328+625709505+628321950+630276013+630195469+628010835+625278948+623674602
3318+623307440+623370836+623560875+623842668+623909256+623712461+623643423
3308+623838139+623958621+623806590+623543356+623547290+624295941+625702231
3298+626756131+626832221+627008304+628553263+630440961+630415053+628508055
3288+627206880+627957535+629510734+630137938+629886878+629678355+629402724
3278+628283348+626558001+625362536+625099005+624968872+624249248+623463183
3268+623898863+625794578+627433517+626975493+624830055+622934711+622261557
3258+622219317+622025158+621556593+620999392+620566311+620506218+620799109
3248+620859090+619969618+618370839+617508017+618534599+620732261+621901002
3238+620653721+618019972+616015207+615043186+613883651+612049698+610594711
3228+610528420+611744671+613340035+614236225+613843453+612518227+611206585
3218+610555701+610489744+610480650+610072215+609339228+608778909+608773342
3208+609402995+610413951+610996169+610251527+608347498+606513212+605549357
3198+604871823+603420733+601253024+599705096+599981766+601925845+603982610
3188+604197110+601823290+598167004+595269797+593897098+593471774+593324717
3178+592982312+591879343+590012542+588450101+588265741+589325283+590524274
3168+590901680+590220286+588499875+585591904+581890855+578928137+578108741
3158+579061498+580091347+580032702+578975647+577456261+575825228+574363745
3148+573238654+572280701+571284442+570335583+569463444+568455197+567553588
3138+567567135+568507532+568946775+567753797+565792422+564646100+564354806
3128+563753473+562488896+561238646+560177581+558742637+557048616+556199676
3118+556799190+558052224+558737218+558494436+557696197+556562235+554989587
3108+553094725+551507713+550908644+551263594+551624372+550924196+549066378
3098+546959690+545506113+544872674+544642400+544370072+543996712+543766809
3088+543762169+543827792+543994782+544376605+544591512+544004803+542574907
3078+540870716+539448689+538633265+538467686+538559625+538397869+537910225
3068+537362675+536862078+536268873+535403564+534202791+532775122+531381007
3058+530293292+529543306+528889935+528228881+527814321+527735298+527519574
3048+526746872+525605598+524431735+523305196+522229582+521133813+519913888
3038+518857686+518471186+518597941+518435888+517598083+516443892+515365939
3028+514482071+513960243+513849597+513534956+512149675+509762716+507458565
3018+506097336+505707570+506082563+507089808+508251682+508793405+508309250
3008+507062453+505664366+504578767+503760522+502774434+501384921+499879455
2998+498678979+497888869+497451296+497412435+497679677+497749754+497157997
2988+496114341+495195361+494520053+493745124+492697051+491468737+490088169
2978+488661540+487621706+487275219+487286539+487104183+486688658+486321979
2968+485938857+485223315+484188827+483141904+482213013+481308323+480424715
2958+479667231+478977485+478195021+477470163+477237217+477486235+477393331
2948+476205252+474311022+472859115+472388137+472352876+471993843+471191633
2938+470300045+469512904+468669828+467542102+466180835+464974569+464244068
2928+463777248+463017982+461796461+460547918+459683871+459176593+458932659
2918+459026900+459281448+459154731+458407231+457423667+456579106+455738480
2908+454637886+453424679+452613746+452567313+452986995+453029308+452139762
2898+450599739+449060645+447888044+447121726+446656983+446291121+445871067
2888+445452610+445173305+445001156+444666434+443867119+442589069+441152714
2878+439904877+439038714+438636477+438528541+438248678+437552029+436821269
2868+436612226+436935441+437230224+436979944+436222349+435393674+434723303
2858+433980406+432883190+431548276+430354778+429495779+428860855+428288436
2848+427724295+427156330+426593896+426082572+425615565+425139874+424684708
2838+424307710+423979410+423687225+423474878+423223039+422629946+421557116
2828+420179592+418773784+417552449+416655924+416140925+415962541+415938786
2818+415747708+415138358+414222606+413415719+412984754+412728015+412231092
2808+411415891+410613941+410072812+409655728+409059257+408078662+406667325
2798+405019069+403632934+403010147+403092250+403169305+402625132+401622861
2788+400708446+399977686+399164081+398326202+397819963+397668748+397447382
2778+396799022+395777487+394652359+393539442+392327719+390939060+389537039
2768+388425050+387790683+387540366+387351329+386955030+386364573+385708269
2758+384933600+383901747+382695444+381558846+380589906+379749874+379099917
2748+378735651+378484963+377946320+376943975+375765769+374792524+374033852
2738+373248604+372370972+371496755+370611403+369719072+369057313+368767540
2728+368529657+367881594+366780072+365617418+364754151+364142759+363469382
2718+362659786+362006860+361660113+361305460+360548681+359356779+357997442
2708+356787390+355938449+355410831+354937626+354378569+353922587+353724827
2698+353532412+352978664+352103778+351245744+350537328+349854709+349150562
2688+348510553+347967643+347503049+347134366+346812598+346323433+345481804
2678+344421297+343529226+343025288+342702482+342178166+341328966+340376283
2668+339606328+339125365+338872042+338755940+338699893+338580822+338247028
2658+337636416+336831459+335991390+335265418+334747969+334440789+334231226
2648+333939561+333433359+332726316+331983419+331423286+331161351+331076056
2638+330840957+330194601+329224733+328299332+327682929+327315360+326975702
2628+326530186+325973950+325346747+324709596+324187434+323928431+323913696
2618+323875465+323591409+323187241+322929464+322827429+322660217+322250519
2608+321567269+320734808+319971051+319340470+318721210+318175552+318002253
2598+318221763+318420488+318267306+317802600+317185047+316543220+316052793
2588+315817359+315692312+315439879+314991060+314424840+313837352+313378400
2578+313260368+313524492+313873986+313935526+313638813+313193705+312803828
2568+312569063+312537773+312660816+312773912+312789130+312842281+313111937
2558+313534737+313838948+313848413+313601547+313148460+312439710+311528487
2548+310699497+310235219+310146676+310239023+310337458+310339221+310157718
2538+309769215+309275317+308828706+308513657+308314970+308173943+308086551
2528+308136993+308364595+308634529+308787840+308868013+309010765+309167473
2518+309137409+308831527+308348059+307841505+307433607+307179801+307036993
2508+306914618+306765853+306571416+306297065+305932558+305501054+305022430
2498+304571792+304300782+304227327+304121358+303793485+303344685+302946994
2488+302568920+302108743+301630342+301280013+301060670+300840659+300580339
2478+300436696+300547434+300758073+300714758+300247009+299516305+298765724
2468+298107807+297618437+297428676+297546356+297704883+297592344+297203951
2458+296827269+296698585+296781671+296857594+296748488+296466863+296169853
2448+295951512+295726193+295377608+294950150+294578367+294289523+294014244
2438+293745146+293543638+293435182+293403558+293442494+293527158+293561008
2428+293416326+293066331+292675749+292478398+292525351+292662554+292786933
2418+292959805+293227976+293511049+293697673+293720500+293556721+293290685
2408+293133884+293243843+293524430+293712446+293676034+293547628+293525432
2398+293611859+293629675+293487628+293303880+293185087+293025948+292696349
2388+292273159+291830000+291123812+289747160+287468434+284217224+279942809
2378+274768919+269160370+263666679+258512349+253606815+248935155+244749635
2368+241324718+238688648+236673194+235145309+234236368+234466123+236583018
2358+241086241+247783024+256005484+265404313+275812817+285936114+293331421
2348+296171374+294771580+291637771+289261187+287573030+285022386+281246248
2338+277107050+273242816+269667481+266308558+263337488+261048240+259647221
2328+259111066+259104867+259165238+259167354+259513377+260708564+262851496
2318+265530937+268055340+269897718+271104522+272187486+273571023+275281301
2308+277111634+278842754+280297426+281410120+282293969+283082576+283730101
2298+284153532+284488216+284956818+285556203+286096255+286467314+286724665
2288+287007200+287421686+287896635+288199900+288201477+288008413+287769138
2278+287524388+287321896+287265590+287342348+287385998+287316459+287226673
2268+287155352+287019820+286845611+286780600+286819406+286779394+286566045
2258+286243406+285895935+285609948+285509732+285628618+285783377+285738930
2248+285512664+285365495+285456079+285665382+285804664+285837383+285856888
2238+285959052+286167075+286449034+286789249+287186661+287609312+288061861
2228+288652022+289461452+290397302+291264968+291968874+292611518+293370784
2218+294278443+295214312+296153410+297276163+298759897+300563803+302478949
2208+304354991+306228622+308207961+310302085+312437891+314569522+316685007
2198+318757213+320758118+322728809+324777928+326945563+329119804+331157602
2188+332999089+334653247+336207336+337771114+339278399+340520928+341447629
2178+342213539+342956473+343684153+344264737+344496681+344306828+343796060
2168+343092322+342325670+341620483+340943617+340121327+339043671+337747359
2158+336389284+335157296+334096306+333092958+332043252+330979404+330129535
2148+329709927+329623927+330014584+332091355+337201887+344999580+353699847
2138+362066210+370023914+377700903+385039346+392090653+399073516+406232907
2128+413626321+421060230+428397820+435605130+442366849+448160260+452668679
2118+455759748+457422294+457974446+458013828+458205797+459314000+462251033
2108+467917540+476897002+489181735+504048439+519850566+533932171+543600005
2098+547585668+546185614+540500734+531925996+521602304+510190304+498087148
2088+485172354+470872798+455212680+438964777+422733020+406986531+392467836
2078+379710455+368796009+359699183+352205664+345935597+340872390+337177464
2068+334527160+332339297+330275257+328164040+326026100+324118730+322528080
2058+321137973+320039978+319355762+318935598+318698754+318839168+319586296
2048+321148366+323713041+327409006+332595256+339975679+350184680+363622824
2038+380565038+400810407+423374365+446844350+469665901+490106580+506517872
2028+517628815+522774571+522408523+518007483+511200147+503269315+494967091
2018+486367633+477297161+467865205+458271976+448490787+438386605+427883675
2008+417063506+406236248+395777821+385893261+376623544+367970341+359964904
1998+352749355+346601476+341707003+337810532+334255575+330583476+326941814
1988+323689694+320942478+318677820+316879389+315430637+314145460+312924347
1978+311764737+310728133+309881586+309160458+308463382+307921603+307741808
1968+307749492+307454838+306671354+305770041+305204693+305035569+305035755
1958+305063314+305110805+305110044+304924033+304504629+303970051+303566700
1948+303565568+304131213+305141594+305991444+305857025+304617427+303150154
1938+302303348+302125743+302232176+302364702+302463935+302540322+302602381
1928+302717685+303133934+304001804+304950757+305531471+305986136+306685272
1918+307115310+306530105+305313464+304571309+304815261+305669973+306408435
1908+306582885+306317239+306018929+305884788+305823675+305753097+305803836
1898+306198000+306890734+307493162+307862736+308427805+309358589+309909962
1888+309371264+308168710+307206692+306832163+306889397+307122158+307306277
1878+307356497+307367947+307522039+308177581+309876279+312671135+315314015
1868+315889663+314032290+311384028+309530923+308837837+308901196+309195200
1858+309338973+309240316+309081418+309064622+309311079+309966306+311226206
1848+313328440+316269333+318963361+319361330+317067943+314324364+313061272
1838+313233755+313786167+314286579+315498301+318152725+321347276+323012717
1828+322648785+321714215+320893966+319618514+317990635+317017093+317116195
1818+317761660+318411357+319185469+320513294+322293723+323684275+324001515
1808+323594489+323415177+324163827+326026174+328602133+330883382+331926333
1798+331952983+332351175+334371900+337737783+340162155+339519882+336985643
1788+335347706+335659860+337144801+338948651+340958612+342894636+344064342
1778+344686275+346283940+350148045+355656137+359904440+360399581+358136000
1768+355486215+353816506+354008141+356336826+359441591+361331033+362051586
1758+362963960+364233176+365666673+368350271+373235799+378931592+382436330
1748+382738091+381592957+380876635+381382095+383032726+384901123+385900907
1738+386763395+389771173+395262971+399226661+397922034+393901518+390531256
1728+388458938+387794840+388698009+390723782+393752828+398873269+406805363
1718+415305050+419400617+417424061+413038610+409734156+408876827+410791100
1708+415081494+420223056+424442890+428239628+433897450+441476078+447201453
1698+448844512+448108593+445818992+442809841+441568870+443360992+447419478
1688+453185088+461538831+471920389+478733181+477904952+474165003+472763428
1678+475195521+480605772+486547465+491121062+495336145+500510407+504892146
1668+506110067+506024772+508061160+512579304+516994263+519352419+521021868
1658+524714864+532277568+544193878+556986520+562046498+560242536+560822824
1648+565650412+569820770+568885903+565600082+564437020+566653277+572210141
1638+580816354+589932555+593831921+591048924+587781178+588498019+592782289
1628+598086423+603015638+608334470+614500721+620544226+626542486+634416268
1618+644679422+653450917+655693379+652655203+648620211+645201362+642064231
1608+638998439+636648338+635958332+637467585+641170453+646585382+652802928
1598+658855676+664091106+667958626+669897768+669983656+669235229+668805117
1588+669124026+669923156+670809362+671674708+672729054+674528042+677933900
1578+683274149+688755220+691369520+692086398+694984273+701534834+709383822
1568+715680503+721438912+729419146+740434143+754445448+772944795+796185471
1558+815712886+824813609+830342338+837433916+845515554+852950243+858842867
1548+863073243+866676118+870940938+876193517+881771092+884410335+878572347
1538+866883825+858011594+854270866+852612923+850058530+847562484+847595964
1528+850166837+853430463+856527507+860052437+863480491+865125740+865283859
1518+865239095+864412128+862396748+860998475+862197207+866283494+872332901
1508+878201177+879356184+873492363+865878919+861469045+861256290+864083197
1498+866969268+866610273+863302255+861013916+862536234+866891397+870060374
1488+869217818+866300494+864509820+864433656+864710920+864520658+864732003
1478+866517925+869801297+873480411+875867332+875037693+871422495+868410448
1468+868096958+869534352+870451365+869867217+869343644+871204766+876287052
1458+881952075+881973751+875042073+867610057+863896647+863671495+864555326
1448+863847059+860830632+857354252+855325213+854965474+855628607+856849312
1438+857925409+857400722+854962876+852738750+852235666+852573876+852195876
1428+851164320+850747273+851211533+851705783+851986759+852600303+853031009
1418+851655156+848591294+845663948+843607220+841884099+840164096+838932256
1408+838766046+839356504+839573267+838983626+838630124+839326736+840503569
1398+841504912+842474111+842998946+841890186+839311592+836776871+834718138
1388+832106139+828703324+826506665+827639625+831948466+837628707+843248298
1378+848474969+853252598+857133851+859576003+860767533+861923061+864257870
1368+867900683+872117993+876069991+878724304+878923919+876797930+874090021
1358+872387018+872222738+873367946+874968061+876088698+876657851+877298639
1348+878214984+879039576+879835662+881358425+883994996+887001400+889268285
1338+890787040+892663454+895410336+898175035+900170817+902011599+904755438
1328+908247185+911527142+914552922+918225057+922758159+927089270+930087138
1318+931737732+932853173+934082786+935652242+937671037+940065382+942399152
1308+944249361+945618905+946637396+947023413+946312103+944726686+943431822
1298+943409626+944260422+944664181+943722819+941540561+938941107+936821131
1288+935459308+934500130+933623945+932640864+931152471+928980680+926682913
1278+924971596+923860832+922779019+921426400+920255433+919901485+920301309
1268+920811297+921049737+921205109+921659198+922571015+923668714+924344318
1258+923961345+922114327+919033837+915829673+913557888+911876487+909443318
1248+905647954+901154938+896873860+893099430+889718738+886853452+884902507
1238+883885055+883144645+882025937+880640656+879739083+879918804+880989259
1228+882099726+882603033+882710969+883087930+883937241+884836735+885535204
1218+886522962+888442506+891230737+894273516+897009041+899057455+900401017
1208+901612368+903236164+905139302+907035091+909130124+911662916+914334599
1198+916591463+918161587+919351336+921030139+924022810+928174424+932133771
1188+934642288+936197937+938455765+941793476+944697364+945818446+945548012
1178+945499537+947210557+950778246+954468717+956713703+958152656+960353621
1168+963291582+965267173+965054121+963478207+962723989+964265013+967514609
1158+970647731+972811431+975030583+978701605+983496011+987154488+987912937
1148+986710123+985770543+985894142+986392550+986897044+987778128+988981907
1138+989919409+990891281+993100190+996611906+999948874+1002406541+1004991148
1128+1008101629+1010149969+1009561515+1007082098+1005217487+1005562973
1120+1007602553+1010325829+1013518487+1016805942+1019335987+1020990812
1111+1022537627+1024637337+1027470331+1030478963+1032250038+1032113819
1103+1031342156+1031158724+1031061997+1030412523+1029942547+1030558541
1094+1031839301+1032650308+1032798554+1033181527+1034190665+1034951193
1085+1034775481+1034728194+1036633262+1040736178+1045405202+1049287123
1077+1052635747+1055546761+1056566811+1055020145+1052954805+1052700479
1068+1054308983+1056352720+1057219700+1055604144+1051833797+1048496531
1060+1048076218+1050299602+1053103719+1055728263+1059315401+1064149225
1051+1068147471+1069391931+1068849280+1068957067+1070572103+1072647390
1043+1073741823+1073137855+1071368635+1069816995+1069093732+1068015631
1034+1065315145+1062243860+1061284830+1062412148+1063292787+1063285512
1025+1064289602+1066972717+1069145102+1068742383+1066303646+1064055319
1017+1063901952+1066235796+1069716259+1072058566+1071844920+1069730586
1008+1067305880+1064698260+1060397956+1054645189+1050757180+1051097618
1000+1054105581+1056475577+1056596059+1055433183+1054893353+1055497989
991+1055885788+1054736200+1052136820+1048633938+1044618396+1040724894
983+1036987878+1032619279+1027991454+1025006948+1024764203+1025807785
974+1025208642+1021616308+1016790501+1013379892+1011650758+1009598632
965+1006147120+1002221253+998533454+994618350+990194001+985750648+981743345
955+978366810+975567370+972670831+969184504+965752441+963359284+962277025
945+962041184+961810019+961024177+959947338+958980366+957819642+956284037
935+955405848+956293687+958215755+959116066+958104849+956524258+956158210
925+957014648+957436520+956210174+954041055+952745300+953226559+954557353
915+954975365+953705740+951722057+950620721+951027227+952008749+951904896
905+950237896+948512252+948512623+950276127+952204059+952681161+951084164
895+947691520+943343186+939245987+936724998+936741107+939090466+942077644
885+943678279+943273926+941758958+940056697+938390291+936745932+935283373
875+934294353+934114558+935168904+937462291+939940001+941046014+940078967
865+937879709+936149907+935961130+936676969+936453673+934519431+932634405
855+933199846+936037962+938443220+938878602+938704226+939484649+940611076
845+940408343+938130694+934476301+931159152+929696816+930070955+930992645
835+931614504+932289959+933470726+934730255+935039960+934028818+933059841
825+933922440+936191775+937793300+938384352+939579966+941764005+943328859
815+943289441+942627793+942626085+943083813+942704031+941156845+939979716
805+940753977+943312231+946540447+949851953+953067847+955841676+957457157
795+956860687+953732687+949703485+947466368+948253100+950850698+953292998
785+954429967+953623191+950597931+946432139+943169479+941676855+941270497
776+941829999+944314465+948320134+951164560+950904369+948715727+946745704
766+945591364+945136755+945863729+947859586+949813871+950939259+952595347
756+955789267+958692635+958800497+956532869+954552379+954280311+955039354
746+955919176+956563157+956516612+955692465+954795792+953926809+952050766
736+948797904+945488847+943889178+945124210+948934198+953147054+955790974
726+957589665+960110802+962920189+964592088+964788734+963649168+960974218
716+956876202+952121288+948221551+946804200+947902567+949455915+949575209
706+948478549+946952223+944487356+940308424+935120652+930615017+927589979
696+925864409+925786834+927852693+931049212+933516529+933820814+930488596
686+922833284+913353670+906440179+904008643+904095720+903415439+900525507
676+896655761+893598283+891078631+886452959+878617852+873511886+878448302
666+887503668+891247736+889115586+885572989+884672975+887319716+891267557
656+892577268+888572044+880983023+874765254+872934716+873651520+873211312
646+871039670+869300366+869009517+869137942+868084486+865067837+861681948
636+861319241+864660218+867204813+864583609+858560332+854095971+854348441
626+858405554+860991720+857130510+847600121+837885037+832608406+832205019
616+833631723+833836609+833140219+834116768+837709251+841049337+839344701
606+831339450+821584353+816309727+817888240+824618596
##END=
