##TITLE=<SNM>
##JCAMP-DX=4.24
##DATA TYPE=INFRARED SPECTRUM
##DATE=3/5/2025
##SAMPLING PROCEDURE=Instrument type and / or accessory
##ORIGIN=Admin
##XUNITS=1/CM
##YUNITS=ABSORBANCE
##RESOLUTION=4
##FIRSTX=4497.3318
##LASTX=599.83466
##DELTAX=-1.4281778
##MAXY=1.7542065
##MINY=0.19172227
##XFACTOR=1
##YFACTOR=1.6337322e-09
##NPOINTS=2730
##FIRSTY=0.2144157
##XYDATA=(X++(Y..Y))
4497+131242872+131231635+131208659+130819131+130206688+129857594+130063207
4487+130643052+131192570+131588437+132048350+132590289+132806884+132416006
4477+131646747+130875198+130310457+130127236+130360102+130598943+130315811
4467+129535160+128834198+128729945+129277502+130145277+130910742+131348054
4457+131533073+131674493+131799924+131660683+131134770+130547255+130251737
4447+130117413+129853872+129473292+128925790+127836605+126243232+125026737
4437+124917970+125507739+125835499+125666142+125619425+126167556+127029721
4427+127604149+127608627+127178082+126575371+125892943+125021639+123943079
4417+122942029+122419181+122639151+123607830+124847839+125510074+125178765
4407+124359751+123802261+123615546+123372483+122854551+122348603+122185685
4397+122265366+122254995+122142087+122315038+123060738+124109819+124760798
4387+124537828+123610676+122346469+120790556+119112423+118153731+118640424
4377+120053257+121089933+121136066+120651353+120330715+120471898+120930690
4367+121295482+121284355+121056778+120883444+120648680+120079461+119322624
4357+118903180+119145806+119808870+120265847+120110728+119677538+119717980
4347+120442739+121248199+121542678+121385114+121131615+120979113+120955436
4337+120826055+120117951+118815984+117775924+117825633+118752894+119680712
4327+120085563+119987002+119510443+118776746+118039929+117557177+117357529
4317+117352330+117613599+118227711+118909720+119194731+119091965+119113463
4307+119499789+119835285+119623779+118926375+118286568+118208028+118735729
4297+119420319+119728269+119576369+119410778+119719339+120552737+121557299
4287+122338005+122741113+122832396+122633195+121997958+120904194+119772323
4277+119233932+119558109+120442538+121319707+121730341+121505592+120811279
4267+119983445+119248818+118729016+118641382+119124053+119904877+120575704
4257+121169878+122052848+123268677+124336310+124716188+124365223+123766087
4247+123403467+123362760+123532063+123886429+124377692+124853667+125188606
4237+125220128+124735287+123883529+123298658+123436530+124084700+124697873
4227+124933001+124853667+124776814+124837724+124823432+124631117+124563540
4217+124854297+125269546+125435291+125252079+124894365+124621421+124557109
4207+124604557+124741699+125223147+126128491+126989936+127335236+127328304
4197+127406252+127533817+127328788+126781678+126350887+126310755+126372020
4187+126098748+125508861+125049357+125015655+125228702+125370104+125441238
4177+125711291+126330346+127172081+128026484+128853333+129729508+130457012
4167+130527398+129821748+128951475+128441323+128095402+127650729+127398526
4157+127586655+127830503+127698112+127404391+127462783+128006017+128755976
4147+129330668+129344952+128603994+127488887+126776652+126834807+127354217
4137+127982859+128682580+129309508+129481975+129131029+128677673+128458889
4127+128382784+128228121+127933113+127588351+127381516+127457128+127721380
4117+127975143+128255328+128751370+129423756+130011500+130384711+130649911
4107+130915640+131107006+131091519+130914473+130751855+130680922+130697495
4097+130827477+130947408+130694777+129937840+129156887+128971139+129407175
4087+129914125+130025218+129772103+129456400+129258412+129164740+129132498
4077+129188208+129336186+129450317+129404137+129282090+129239760+129175640
4067+128887883+128551467+128612632+129145942+129689039+129807210+129524871
4057+129105810+128711101+128454521+128487329+128758394+128970036+129042647
4047+129316339+130002589+130725250+130923657+130551405+130082543+129896850
4037+129889590+129733740+129359226+129030188+129007203+129239368+129444972
4027+129488168+129538954+129769832+130077326+130259161+130307164+130409784
4017+130720324+131104079+131222103+131004387+130740226+130537267+130212115
4007+129883470+130000728+130623542+131312866+131776674+132060509+132157993
3997+131981777+131669914+131482096+131462531+131530683+131737108+132153825
3987+132694988+133210950+133533740+133398869+132682675+131803280+131567331
3977+132412850+133851732+134820165+134731647+134040390+133576973+133620662
3967+133940479+134462652+135390105+136649752+137669618+137968392+137696935
3957+137315160+137042162+136941521+137275347+138311841+139673022+140303506
3947+139739696+139070091+139563260+140712708+140834974+139511435+138014964
3937+137552231+138451993+140458963+142755003+144069302+143771321+142744140
3927+142392218+143035107+143724358+143737118+143752331+144766816+146404252
3917+147059737+145723237+143135720+140775496+139417480+139138070+140281744
3907+143709664+149680801+156627431+161662770+162970566+160737305+155944711
3897+150333942+146587874+146655762+149796664+152480243+152098049+150805658
3887+151912967+154817820+156445304+156510957+156810452+156510209+154090827
3878+151748371+152531120+156266753+160968521+165398704+168072104+167317402
3868+164964219+164502517+165660657+164941052+161020948+156570425+154783215
3858+157568492+165936985+178337823+186139869+180975178+169461623+160452404
3848+156329943+156518181+159650528+164242607+169399966+174810011+179205972
3838+180005002+176778180+172521988+169392687+166950667+164462130+162498758
3828+161770725+162427177+165252441+171132250+177800564+180178428+178076016
3818+175983510+174426621+170553454+164896086+161216556+161938094+166751448
3808+172524104+175879495+178082948+182381042+187326357+188256509+185556038
3798+183115751+181383704+179117937+177157976+177098398+179057118+182395526
3788+186861992+192087885+197240610+202418874+209135109+217945602+226777036
3778+233489240+239080317+246213835+256540154+269661710+282522080+291206102
3768+295321612+297471654+299428878+302429410+308047685+316310156+324744465
3758+331330727+337775250+347902367+364254193+385702030+406133832+419908411
3748+429413700+439661797+450592177+457627262+461194714+467160789+479015631
3738+496417094+515263166+529092945+535044135+537077081+540439860+546833050
3728+555188846+563300164+568746930+570324815+568256953+563466275+557831143
3718+553619279+552046101+553280491+556558080+558929888+556405979+548877963
3708+540498015+535588946+536343649+541633242+546946003+548297762+546561428
3698+544910503+545238966+548750708+556631376+568303215+579330787+583383838
3688+579797378+574676996+572420988+573203856+576107742+580963799+588210052
3678+596749361+601170569+596945498+589989765+587227363+586226213+580918450
3668+571808827+563781166+559258679+558454796+560578916+563996128+567024679
3658+568486655+568212918+568373008+571924590+578977297+585998372+588342488
3648+584971355+578840045+572925047+569005818+567581603+567968367+569389737
3638+571558439+573872237+575414551+576746243+580254555+587268626+594626263
3628+596699196+593865979+591188110+591939127+597016167+604901067+611160399
3618+612555792+611769677+612595413+614358015+614435288+613626735+615027565
3608+618853395+622449669+624376156+624906337+624489110+624219349+625994063
3598+630597508+636281746+639992287+640579457+640654759+643438687+648232357
3588+650539296+647989302+643652554+641172171+641481407+643889698+647000739
3578+649116650+649096292+646987459+643908889+641470535+641033095+643094499
3568+646305213+647159225+643728878+638472229+634415530+631861085+629967434
3558+629066577+629797419+631314632+631692530+630056892+628200818+628968655
3548+632630454+636073643+636546034+634828599+632876282+630853988+628088376
3538+624979451+622748981+622091982+622912064+624833005+627073398+628294801
3528+627597815+625432141+622745625+619904199+617286710+615880481+616282240
3518+617485620+617535529+615875811+613909265+612497783+611037266+609734797
3508+610091206+612193800+614012733+613805579+611362847+607373570+603581560
3498+602205357+603409576+604734154+604173472+602454103+601385130+601372543
3488+601402752+600816349+600218344+600061792+599269074+596892450+594712511
3478+595389175+598241947+599732928+598277227+596086342+595587829+596259822
3468+595849745+593441053+589925335+586260325+583067561+581422692+582150797
3458+584259630+585561151+585183289+584184474+583472092+582853802+582334092
3448+582463974+582968398+582730779+581784537+581692452+582885945+583350346
3438+581524335+578939974+577947361+578090486+576975763+574143312+571630786
3428+570816105+571110273+571778655+572787503+573631189+573061788+570581295
3418+567320671+564953862+564057676+563784559+563067471+562013420+561644533
3408+562364430+563380757+563720895+563283053+562715184+562611716+562935145
3398+563171559+563054994+562852655+562671878+561880728+559812903+556799967
3388+553902393+551887980+550940753+551012188+551875940+552878842+553295085
3378+553247255+553744053+555275422+556781032+556770343+555225950+553591442
3368+552922367+552761802+552124614+551029773+550363982+550548370+551186325
3358+551848979+552380036+552597370+552382991+551936649+551521392+551073080
3348+550397766+549613037+549007225+548645197+548498058+548792846+549788159
3338+551074721+551500705+550256282+547940951+545992319+545071068+544524104
3328+543541633+542249489+541227142+540642271+540371635+540426178+540847273
3318+541494458+542157258+542725346+543168149+543427476+543419851+543160707
3308+542794702+542428150+541977941+541176357+539776695+537930363+536330660
3298+535700185+536171737+537379203+538936110+540496738+541577495+541819966
3288+541360891+540628772+539985892+539754841+540181080+541074202+541988010
3278+542942644+544090276+544725676+543950032+542255874+541083834+540884414
3268+540724579+539848020+538777004+538496152+539119623+539792602+539569868
3258+538084324+535764688+533662058+532578637+532251962+531898106+531401599
3248+531190942+531218560+531076456+530924538+531283610+532021202+532459262
3238+532359516+531990081+531472560+530746679+529918243+529087363+528166222
3228+527244752+526566410+526060891+525549827+525268574+525491015+525743848
3218+525052554+523208703+521352337+520773706+521284441+521375760+520047533
3208+517798238+515741213+514520613+514059714+513739825+512954768+511780283
3198+510766072+510079156+509357545+508318634+507053415+505816251+504910944
3188+504706562+505301612+506054016+505867693+504326402+502285429+500793682
3178+499797311+498559783+496884377+495187008+493765492+492631140+491655565
3168+490634240+489552315+488690168+488257762+488161482+488081801+487510320
3158+486133242+484488920+483508967+483055073+481813203+479212716+476640941
3148+475935017+477160798+478516935+478381543+476968383+475556718+474640903
3138+473687802+472412075+471202786+470244394+469274803+468353625+467902796
3128+467863101+467644162+467039700+466470298+466189520+465920087+465415809
3118+464767457+463912169+462470660+460483537+458669274+457600264+457139256
3108+456811814+456283822+455446812+454469522+453742657+453538895+453825694
3098+454294583+454434680+453943901+453209994+452902181+453017397+452856212
3088+451954334+450633623+449670416+449592997+450190199+450650734+450292828
3078+449174638+447966188+447289487+447191456+447203313+446912574+446355978
3068+445728203+444974850+444013467+443082585+442397056+441700800+440646128
3058+439389702+438360495+437626698+436844159+435733594+434435393+433404363
3048+432940837+432902858+432967470+432919604+432521530+431575981+430426123
3038+429830563+429958000+430001124+429123800+427389910+425525774+424142348
3028+423349191+422895990+422527870+422156757+421709102+421024229+420041540
3018+418931267+417984952+417467977+417398184+417325180+416663146+415410879
3008+414191702+413550318+413512192+413636091+413265854+412052843+410382216
2998+408989049+408175790+407665127+407043773+406153424+405188721+404452589
2988+403977424+403543451+403048804+402579076+402152253+401701788+401255337
2978+400867113+400418364+399695256+398679731+397620682+396760797+396115655
2968+395581132+395135775+394862949+394799431+394772287+394456411+393691238
2958+392684031+391810501+391240480+390779727+390090075+389065247+387892659
2948+386799279+385957453+385552739+385611441+385817282+385779960+385352662
2938+384526123+383336316+382050556+381099644+380655747+380492081+380327648
2928+380112504+379867771+379433578+378599268+377414860+376190868+375233607
2918+374684673+374489668+374422902+374268613+374027747+373826357+373633358
2908+373248053+372596490+371831135+371038744+370134313+369243526+368777957
2898+368774382+368606192+367773414+366554857+365526454+364837969+364234419
2888+363510472+362745372+362155941+361830214+361721091+361805332+361978265
2878+361908691+361351329+360474917+359587815+358778642+358075418+357636227
2868+357529548+357554759+357436770+357094808+356677143+356355502+356080852
2858+355612730+354812131+353802443+352834530+352123644+351793722+351757202
2848+351614623+350939674+349788211+348686184+348017619+347690433+347482221
2838+347355367+347257554+346992974+346510112+345974530+345414761+344670310
2828+343802690+343160431+342902819+342772682+342448232+341907142+341343578
2818+340861956+340369827+339774376+339204354+338900116+338854730+338727585
2808+338211668+337340765+336332209+335312744+334347859+333568603+333087929
2798+332906131+332956697+333035685+332696933+331612965+330125086+329010799
2788+328594921+328491381+328285941+328016216+327827632+327577755+327002625
2778+326031392+324807472+323576000+322583679+321902929+321319555+320563612
2768+319689936+319012907+318587178+318071299+317301419+316599472+316195196
2758+315786724+315069016+314271117+313755164+313456508+313050882+312383959
2748+311552787+310775756+310223429+309831557+309319472+308478120+307372481
2738+306248928+305342398+304761979+304470711+304353543+304316804+304298234
2728+304194857+303871247+303285281+302535030+301722902+300838646+299875366
2718+299006469+298465999+298207585+297872117+297193593+296249047+295247678
2708+294364918+293833915+293809234+294071315+294198132+293977625+293392535
2698+292450872+291332573+290421884+289940408+289742155+289549831+289230526
2688+288836684+288484835+288213907+287974920+287701748+287306082+286715520
2678+286045131+285545705+285233897+284816232+284139568+283431309+282913769
2668+282472626+281937592+281441778+281221781+281233274+281221599+281057878
2658+280795980+280477240+280042682+279430959+278707633+278078361+277705114
2648+277496774+277179311+276625707+276016082+275590007+275339801+275070150
2638+274673061+274181735+273641502+273126972+272821475+272861972+273108547
2628+273216813+272960460+272403809+271760565+271187770+270750695+270468311
2618+270295269+270142986+269989426+269872094+269744930+269501346+269170256
2608+268909124+268762241+268598246+268322301+268001062+267746187+267587008
2598+267492370+267437352+267409989+267390416+267353804+267274835+267104785
2588+266793195+266387788+266043236+265841317+265683251+265460828+265226949
2578+265070543+264936301+264716541+264445650+264267919+264260750+264377297
2568+264515534+264604263+264682210+264888781+265313105+265898924+266541768
2558+267129885+267435546+267229997+266617891+265988218+265545962+265146010
2548+264621173+264018224+263469910+263044401+262782083+262732082+262854138
2538+262946770+262780076+262307283+261701362+261208284+260988871+261033509
2528+261175959+261218262+261092138+260917016+260855231+260875443+260759042
2518+260423318+260093742+260024588+260199144+260419798+260530179+260459036
2508+260187396+259767742+259331853+259036316+258943812+258936442+258837972
2498+258658545+258573794+258614254+258573630+258318043+257984454+257754406
2488+257617883+257460876+257199889+256765423+256159574+255570562+255222052
2478+255083231+254895467+254487725+253940798+253442539+253078505+252794607
2468+252525703+252293375+252155028+252112963+252110263+252080565+251985744
2458+251826219+251610691+251313349+250906044+250442738+250062176+249865984
2448+249812518+249770397+249672201+249552753+249423564+249219347+248925361
2438+248646169+248479895+248420463+248412144+248389889+248268672+248025763
2428+247784861+247680682+247671725+247632304+247570045+247574751+247605726
2418+247542098+247422632+247415245+247546404+247670010+247710781+247742595
2408+247828751+247966532+248158272+248371848+248477943+248386770+248216281
2398+248194537+248405085+248731961+249042309+249312070+249545676+249654415
2388+249479914+248947488+248182242+247408367+246675701+245750583+244366482
2378+242540653+240562980+238716246+237096551+235686254+234472367+233427729
2368+232506441+231751374+231232813+230884375+230756627+231362968+233278711
2358+236505569+240656305+245589453+251501623+258313227+265096975+270458114
2348+273464209+274217434+273802231+273290893+272589347+270962191+268250793
2338+264884166+261298764+257758145+254442942+251528968+249199281+247535969
2328+246390562+245421810+244322136+243092141+242094676+241733815+242068754
2318+242784583+243467705+243872346+244015581+244083897+244250974+244593994
2308+245127660+245794236+246418637+246811037+246965820+247075617+247325385
2298+247730409+248163070+248474951+248590550+248527415+248368765+248239941
2288+248251251+248389433+248510924+248499541+248368473+248183482+247982311
2278+247793781+247649853+247534273+247354025+247027678+246634566+246388045
2268+246386805+246504866+246591843+246626466+246615886+246515665+246315844
2258+246104202+245996265+246012627+246023007+245847356+245438501+244946938
2248+244603772+244532172+244650325+244776267+244817147+244805800+244811109
2238+244892851+245090611+245400795+245785024+246188461+246567800+246956188
2228+247438667+248011808+248581958+249128320+249725394+250404594+251114604
2218+251807868+252512788+253350801+254483183+255980348+257708363+259375542
2208+260777630+262029423+263468451+265286782+267317375+269222702+270860110
2198+272381828+273976313+275670763+277441374+279303230+281190971+282921978
2188+284332421+285377406+286169778+286939001+287851404+288897557+289959544
2178+290861513+291425205+291607021+291485914+291115421+290527486+289793962
2168+288978350+288112117+287206828+286220344+285084059+283779090+282364671
2158+280970554+279696032+278499986+277324863+276227961+275271540+274501806
2148+274005245+273813212+274178488+276051416+280440373+287179410+295133156
2138+303469670+311949839+320404871+328733304+337048567+345465619+354030977
2128+362797580+371784873+380971477+390192193+398975395+406802944+413470893
2118+418957316+423231385+426376684+428725872+430920076+433880184+438583521
2108+445811458+455928689+468660891+483018480+497267602+509122553+516824342
2098+520207916+520192593+517776348+513766129+508516120+501882393+493672313
2088+483535126+470890594+455762141+438856382+420772674+402167649+384067742
2078+367298870+352324743+339524426+328882231+319914274+312292093+305956839
2068+300773358+296595588+293254481+290376589+287735094+285456503+283575566
2058+281982358+280740616+279898936+279392432+279371363+280100144+281713308
2048+284453601+288665849+294538653+302396319+312871710+326409801+343142371
2038+363116448+385815422+409731091+432966303+453783482+470677967+482897208
2028+490722968+494913125+496314428+495704712+493612370+490496039+486695164
2018+481972236+475779743+468036472+459149546+449517549+439270947+428294561
2008+416539102+404276774+391889927+379652189+367845469+356758428+346490739
1998+337044772+328630748+321571767+315745023+310389904+304854520+299343232
1988+294487248+290530806+287309968+284597895+282194784+280003243+278134492
1978+276739755+275762812+274939064+273995449+272948475+272208877+272103840
1968+272274347+271926256+270811769+269535331+268717511+268339303+268104640
1958+267990044+268079612+268213325+268183554+268048144+268003853+268128555
1948+268435000+269085541+270227628+271383578+271449267+269983515+267985502
1938+266678874+266274725+266273667+266290486+266294973+266381951+266547222
1928+266814775+267527668+268958651+270579787+271611346+272273781+273179654
1918+273777513+273042165+271453208+270551530+270998493+272144465+272973612
1908+273034960+272626780+272283887+272201379+272228779+272291312+272607845
1898+273417510+274497282+275226537+275519721+276167489+277481615+278334732
1888+277663395+276149448+275091055+274753581+274687673+274652338+274673663
1878+274764088+274883901+275100450+275940524+278317986+282388020+286300226
1868+287173245+284464930+280627206+277943025+276835306+276673391+276842894
1858+277026098+277130496+277233398+277461914+277955904+278896655+280494423
1848+283097191+286891663+290640950+291566689+288849508+285296686+283486710
1838+283443458+283869041+284229099+285520441+288832306+293214093+295894352
1828+295812811+294686321+293539200+291738928+289434707+287968517+287912296
1818+288543045+289108780+289824189+291387335+293704471+295502663+295681360
1808+294730321+294120605+294941178+297426523+300857654+303670531+304617740
1798+304263812+304646672+307386746+311978296+315188792+313985814+309979134
1788+307139788+307085281+308781483+310819427+312828915+314647483+315777858
1778+316550036+318567769+323251551+329985024+335315918+335891266+332619077
1768+328466243+325387819+324785947+327201060+330944328+333356632+334292330
1758+335307600+336469570+337540039+340132500+345755665+352811983+357333777
1748+357717075+356147107+355134683+355679495+357623093+359920437+361345710
1738+362670909+366585686+373567176+378480222+376230489+370100310+364719215
1728+361114330+359380259+359554687+361044464+363851157+369537548+379171187
1718+389888867+394852624+391487547+384765785+379469113+377352801+378843417
1708+383598305+389738116+394715117+398836064+405053658+413682316+419991375
1698+420941885+418327315+412921375+406317126+402529896+403295069+407207110
1688+413181285+422392260+434296281+441385872+438033601+430720802+426507114
1678+427323255+432088212+437751619+441949801+445888913+450887367+454124204
1668+452517314+449330570+449601607+453691434+457702200+458679891+458723525
1658+461952445+471023833+486533833+503527590+509471885+505343386+504365950
1648+509318179+513679189+511370608+505978750+503588992+506063429+513303552
1638+524668745+536808305+542386668+539246185+535084741+535813649+541480631
1628+549349552+557489729+566169427+575192839+582722096+589056219+597654596
1618+610117438+621921093+626600569+625777934+624812064+625106195+625359319
1608+624726400+623886325+624126242+626081333+629494604+634101770+640131072
1598+647553760+655529176+663016586+669537032+675182160+680181598+684613058
1588+688469680+691817793+694737877+697371565+700313540+704822856+712337483
1578+723089239+733784518+738935656+739765953+743297797+752859234+765571844
1568+776064638+783683098+791888727+803192773+819260282+842567767+871662595
1558+891754769+894382911+891611096+890279148+889351513+887141620+883865527
1548+881952174+884276626+890902436+898806418+904867971+905394723+895417152
1538+879517907+868139726+863453244+860929373+855894691+849518137+846106325
1528+846864019+849838756+853384099+857513182+861213654+862131439+860562857
1518+858429070+855412303+851182671+847855720+847746998+851646598+859381587
1508+868406057+870665275+861497060+850144782+844269296+843935470+846495533
1498+848353066+846505311+842126022+839873371+842407969+848116943+852401228
1488+851776845+847211125+841691866+837270038+834775718+834377972+836152395
1478+840075564+845516966+851026302+854237892+852592329+846708452+841035743
1468+839045628+840733220+843143846+843283505+842435259+844663904+851831717
1458+860536078+862301161+854626589+845046837+838653720+835826012+835287658
1448+834964558+833003922+829503819+826092590+824170408+824537945+827366748
1438+831035041+831923201+828775896+825269079+824162017+824138084+822582490
1428+819382283+816891101+816647098+818366284+821548833+825765696+828575673
1418+826510110+820574499+814925139+811163082+808522682+806345698+804860007
1408+804509034+804871974+804411476+802453540+800929323+802149339+805842660
1398+809505335+810998249+809820554+806755556+803650644+802223255+802476452
1388+802651282+801098097+798766202+798510451+801811572+807551047+813663896
1378+819316540+825026535+830740471+834820885+836161224+836254842+837303749
1368+839837982+843228634+846926187+850020153+851064099+849916394+848233545
1358+847125534+846136679+844703087+843283578+842603813+842570175+842580245
1348+842399359+842272833+842755659+844737601+848793643+853967766+857873933
1338+858965089+858332972+858396088+860553736+864479240+868891509+872754845
1328+875963370+878965835+881933714+884726251+887647941+891568410+896933051
1318+903034080+908682126+913371964+917315782+920735767+923527575+925521192
1308+927047234+929008599+931948896+935141441+937198248+937766519+937996731
1298+938974495+940270178+940464855+938935385+936540446+934392211+932639387
1288+930701590+928200120+925352054+922670207+920509276+918876045+917651578
1278+916780931+916055269+915146459+914186281+913788754+914308501+915526766
1268+916934162+918042173+918840948+919927069+921629837+923565007+925564535
1258+927884243+930090415+931306344+931630539+931717370+931320281+929726234
1248+927063651+924019595+920854704+917335264+913204722+908665854+904612512
1238+901921253+900312466+898635090+896331434+893676221+890811738+887829630
1228+885611638+885223743+886509941+888247661+889440314+889663814+888849570
1218+887684425+887548998+889257677+892182213+895035824+897132544+898471424
1208+899291797+900206444+902038366+904951154+908325607+911553469+914274279
1198+916076649+916902567+917682152+919730640+923305024+927099551+929442318
1188+929988844+930028976+931037459+933060628+934938300+936196478+937922085
1178+941106677+944940607+947891557+949877877+951908562+954077009+955461712
1168+955677988+955379332+955619979+957100926+959481563+961601778+962930005
1158+964148051+965772234+967412469+968984845+971155992+973812883+975749439
1148+976905463+979120463+983255092+987337037+989177277+989242291+989255571
1138+989689946+990471574+992473582+996392445+1001135330+1004346118+1004514381
1128+1002476108+1000481834+999998133+1000994211+1002973819+1005650411
1120+1008343713+1009926596+1010292090+1010893269+1012931688+1016066079
1111+1019582527+1022907946+1024670694+1023570563+1020548105+1018691010
1103+1020398376+1025047571+1029521571+1031397710+1031395083+1031645435
1094+1032914558+1034901826+1037414899+1040174601+1042413535+1042727514
1085+1039970803+1035400632+1032347309+1032716816+1035817203+1040324768
1077+1045063275+1048714713+1050967219+1053108084+1055504919+1056395852
1068+1055393936+1054955474+1056662986+1058508479+1057542244+1054691259
1060+1053896935+1056370386+1058999039+1059033845+1057557056+1056613587
1051+1056157467+1055430565+1055131472+1056888601+1061298317+1067208243
1043+1072271820+1073741823+1070692951+1065608797+1061874541+1060220150
1034+1059095867+1057940792+1057918318+1059559137+1061542977+1062453684
1025+1062595386+1063476104+1065459797+1066644132+1064973177+1060989883
1017+1057948599+1059087403+1064295528+1069518612+1070571168+1067820805
1008+1065007691+1063545788+1060780540+1054603698+1047399110+1043251858
1000+1043280461+1045576674+1048035386+1049494735+1049304947+1047849246
991+1046473663+1045487362+1043658798+1040303900+1036135779+1031833472
983+1027354364+1022814255+1019042567+1016931765+1016479074+1016567657
974+1015920217+1014524933+1013458878+1013289813+1013400212+1012649742
965+1010345138+1006791184+1003035257+999708817+996279127+992225638+988209144
955+984802659+981332545+977211634+973300943+971086089+970943584+971679168
945+971702445+970261192+967577157+964275379+961120120+959037483+958522916
935+959036169+959603418+959769711+959540520+958873744+957559381+955688130
925+954038555+953360541+953455180+953637161+953480281+952565998+950558809
915+948044643+946473799+946962243+949395708+952499379+954647541+955013400
905+953975073+952284855+950579824+949757335+950201634+950666582+949524350
895+947210624+945908228+946581061+947519934+946506197+943920595+942184115
885+942121655+941739889+939280812+936077249+934771788+935626821+936411805
875+935693294+934278309+933291789+933029690+933604601+934697653+935073800
865+934198264+933517915+934450293+936134893+936318917+934177468+931333123
855+929877496+930467948+932396405+934516694+935817704+935975386+935666880
845+935601793+935810334+936188962+936607649+936428223+935354287+934380464
835+934407097+935233380+936785909+939205729+941023494+939785820+935589826
825+931700515+930902178+932918488+935580268+937285809+938106912+939214631
815+941554260+944812987+947437845+948110605+947148675+945990900+945860872
805+947116278+948837288+948966805+946525752+943563200+942697952+943634416
795+944374379+944548480+945245027+946752535+948587375+950587194+952350234
785+952824887+951217049+947573419+942988362+939624927+939390701+941874295
776+944581096+945629347+945597606+946520863+949279106+952235821+952879102
766+950808869+948098565+946666360+946707441+947519861+948354389+948535932
756+947799034+946582375+945725372+945876706+946899856+948147673+949975945
746+953571271+958106199+960212915+958301241+955218803+954454104+956231957
736+958573920+960105653+960654004+960083763+957775219+953381264+947775466
726+943074975+941514711+943724969+947796188+950812079+951758759+951603995
716+950988442+950040886+949615997+950570776+952511273+954202877+954728170
706+954021772+952237426+949374766+945622196+941814462+939511536+939866376
696+942023368+943600486+942732319+938776097+932659161+927163836+924754596
686+924722709+923956916+921013992+917631877+915697656+914846271+914126885
676+914449912+916952842+918977689+914936751+902807005+889636232+886436244
666+892361202+898374304+899428903+895761486+891010355+887710766+885255922
656+883757097+884323544+884627891+881292913+876063116+873391267+873756396
646+874065778+873273935+873282764+874649153+874684542+870758601+864132790
636+858397621+855189971+853547619+852117384+850204980+847872064+846689335
626+848029528+849950178+849797894+849174898+850779599+852037777+848413556
616+841297039+835469712+832615297+832365092+834964412+838842122+840824429
606+841697995+846505238+856505939+864748417+862917663
##END=
