##TITLE=<SNM>
##JCAMP-DX=4.24
##DATA TYPE=INFRARED SPECTRUM
##DATE=2/5/2025
##SAMPLING PROCEDURE=Instrument type and / or accessory
##ORIGIN=Admin
##XUNITS=1/CM
##YUNITS=ABSORBANCE
##RESOLUTION=4
##FIRSTX=4497.3318
##LASTX=599.83466
##DELTAX=-1.4281778
##MAXY=1.8113972
##MINY=0.36172616
##XFACTOR=1
##YFACTOR=1.6869951e-09
##NPOINTS=2730
##FIRSTY=0.38176283
##XYDATA=(X++(Y..Y))
4497+226297535+225365622+224674478+224408005+224452382+224433073+224096926
4487+223654112+223498935+223638072+223723398+223670188+223751151+223998615
4477+224098145+223960687+223801817+223686582+223642506+223977081+224779767
4467+225367230+224971336+223927969+223513721+224433762+225955681+226899271
4457+227081230+227130960+227297196+227248279+226873232+226480713+226143894
4447+225517814+224474836+223442192+223048012+223710590+225348027+227154968
4437+228044323+227701587+226772359+225933210+225343186+224799005+223974042
4427+222846391+221912199+221564976+221666467+222101914+222984203+223935636
4417+224138671+223459293+222697821+222600640+223198120+224047762+224755847
4407+225147077+225071749+224531914+224100353+224468812+225281656+225307696
4397+224123708+222740996+222313940+222915800+223727567+224015663+223771449
4387+223458091+223233822+222674943+221397044+219801210+218900902+219194386
4377+220035566+220580401+220867331+221220243+221270715+220474918+218998771
4367+217439383+216244919+215720206+215968200+216678918+217401966+217880501
4357+217959520+217637117+217313919+217470651+218083482+218740919+219180500
4347+219423089+219648630+220134831+220959989+221645868+221501219+220446900
4337+219120101+218115563+217573184+217494907+217833262+218122524+217716632
4327+216670385+215768045+215475109+215510317+215547433+215624898+215820919
4317+216180756+216881016+217871844+218598797+218630119+218257668+218043186
4307+218102932+218199847+218220428+218194830+218072635+217783780+217384124
4297+216951132+216532520+216304965+216481271+217007292+217633814+218178330
4287+218412474+218012536+216978267+215784192+214912131+214555580+214727982
4277+215249904+215772691+216155582+216568135+217071437+217528754+217959803
4267+218452399+218760016+218502588+217678031+216614384+215716885+215468537
4257+216116187+217178510+217847359+217988121+218244030+219096994+220189913
4247+220661947+220108209+219109377+218504726+218324004+218108391+218070869
4237+218860588+220233849+220959229+220091126+217865697+215527471+214420400
4227+214894713+216134896+217231508+217971462+218434751+218551205+218345079
4217+218069332+217978017+218203098+218639146+218887476+218666899+218146620
4207+217623744+217268164+217336956+218047479+219088708+219791565+219802412
4197+219213712+218279273+217419385+217133550+217473389+217879282+217813052
4187+217342626+216949471+216891297+216859375+216396210+215650832+215325355
4177+215764706+216597796+217395412+218177836+219205374+220644740+222295532
4167+223400359+223165014+221745804+220250048+219626936+219972517+220790678
4157+221420080+221325267+220503183+219575016+219146759+219249221+219592099
4147+219925508+219898320+219270685+218524264+218415354+218871046+219216680
4137+219334565+219580987+219830094+219646086+219179705+219008558+219209084
4127+219220054+218653862+217795545+217179429+217035769+217320756+217935901
4117+218682604+219329141+219859667+220274516+220196326+219270031+217918341
4107+217110284+217381067+218507676+219912417+220859258+220690089+219557668
4097+218483474+218140472+218128512+217826620+217225201+216608219+216227765
4087+216457263+217509870+218992871+220225634+220763491+220416726+219346224
4077+218344231+218261661+218954924+219489990+219407207+219060072+218770828
4067+218429434+217907494+217304079+216828371+216676126+216835402+216990580
4057+216930533+216949648+217471058+218353788+218922048+218706418+217958019
4047+217440142+217791429+218919133+219890971+219724540+218479905+217225943
4037+216774384+216958640+217368012+218115316+219395283+220758562+221402573
4027+221010778+219945629+218817854+218153103+218237953+218924451+219678803
4017+220089748+220177936+220051748+219672602+219225708+219254556+220046290
4007+221159260+221852718+221887079+221702823+221790163+222044411+221946754
3997+221378671+220932571+221191695+221923152+222350173+222172895+221922463
3987+222189484+222845384+223271345+223155916+222764280+222523175+222704834
3977+223413467+224413235+225091253+225077615+224679107+224283390+223801711
3967+223241966+223255852+224370359+226042068+227112517+227029999+226135927
3957+224976866+223976975+223635386+224422562+226298135+228396193+229461360
3947+229187662+228889938+229887868+231534721+231891961+230369300+228357505
3937+227398387+228206002+230799465+234188142+236235216+235482577+233191784
3927+231950435+232682228+234001961+234385806+234192453+234736263+236260584
3917+237445243+236763957+234267462+231494584+229783993+229443694+230628653
3907+234169381+240608450+248465828+254484766+256495978+254595267+249631637
3897+243256572+238400899+237433937+240006025+242788460+242909578+242107828
3887+243596676+246821855+248630404+248856616+249621815+249871293+247268803
3878+243910264+243660609+247029465+252094549+257284355+260673598+260003547
3868+256890158+255394013+256100527+255956196+253260677+249938282+248684850
3858+251286369+258933257+270532012+278109473+273268233+261658473+251799511
3848+246663604+246528919+250409485+256400423+262843997+268922205+273165029
3838+273150967+269081128+264354434+260912724+258065489+255337624+253810811
3828+254162345+255771269+258870472+264830707+272094792+275105224+272617898
3818+269196857+266142684+261291622+255435175+251971524+252789191+257448118
3808+263219593+266957065+269497125+273827484+278737868+279814570+277379977
3798+275155837+273401947+270615342+267685502+266614170+267792664+270501291
3788+274327800+278846654+283031640+286629252+291170189+297770124+304841898
3778+310100195+314180069+319743491+328804590+341961956+357880187+373241942
3768+385515412+394849201+402244085+408892796+416238816+423876182+428889947
3758+429902346+430097837+433947594+443419143+456151078+465590616+468792281
3748+471238163+478003610+487743787+494229724+496605366+501383538+513114841
3738+531043878+549206530+560029450+561556598+558837177+557946603+561333195
3728+567556263+573287406+576302201+576872811+575776499+573336729+570589996
3718+568637206+567621309+567679006+569142310+571098492+571118949+568027413
3708+563115298+558723868+557148774+558850038+561279703+561174979+558509333
3698+556015329+556180965+560180564+568277103+579772566+591381054+597088278
3688+594267383+587109187+580322612+576183027+575921536+579851179+587410391
3678+597321326+605194391+604990668+599139220+595208129+593989322+589860019
3668+580913855+571828307+566440660+564749961+564693819+564875601+565326117
3658+565735967+565251108+564872138+567366390+574232815+583400793+588250618
3648+583139761+571311826+560029309+552878179+548995952+545989353+543143585
3638+541633503+542146627+544190150+547708671+553469670+560708210+565129213
3628+562992131+557247456+552703499+551495503+554320778+560428947+566452991
3618+568958266+568944981+569849582+572969419+577200725+581206826+584021856
3608+584390861+581664727+577281105+574138868+574593518+578712292+584298716
3598+589299797+593484147+596989419+598704356+598191974+597668992+599728555
3588+603410840+604292016+600862284+596655038+595039667+596144069+598216423
3578+600292028+602594180+605031017+606838241+608248052+610880557+615054025
3568+618082882+616709109+611558080+606510220+603859060+602772535+601885140
3558+602007671+604771893+609247236+612193064+612043257+610650617+610106436
3548+610035772+608984791+606761147+604248911+601724663+598774949+595860637
3538+594480434+595220071+596902785+598443607+600033752+601473595+601232773
3528+598726686+595771742+594097861+593095497+591426385+589540442+588841402
3518+589230440+588983577+586934189+584088244+582632148+583645854+585982172
3508+587466534+587142152+585870806+584992033+584815515+584352102+582633456
3498+580029075+577837370+576752258+576418690+576550796+577406286+578882203
3488+579995227+579741898+578144792+576012798+573921153+571961720+570314691
3478+569392989+569162767+568806480+567527715+565432784+563404242+562186176
3468+561716404+561393224+560796469+559894094+558639319+556811885+554669928
3458+553324668+553611880+555046812+556553398+557584063+558095562+558082348
3448+557631796+556942401+555903963+554137795+551847655+550251045+550401770
3438+551605950+551902914+550486779+548638500+547785130+547877063+548109794
3428+548036304+547449866+546198200+544556152+542997064+541449706+539613899
3418+537984677+537425904+537668740+537417742+536169468+534834313+534281547
3408+534277130+534084678+533449376+532683912+532087227+531680982+531588342
3398+532231770+533810503+535702240+536613201+535681288+533665536+532522021
3388+533206151+534341010+533836719+531521671+529105573+527790381+527228039
3378+526797273+526759362+527659618+529109919+529888774+529313890+528001594
3368+527114129+527301388+528446811+529786347+530147969+528910153+526920193
3358+525749649+525964678+526612770+526537090+525775865+525305810+525709653
3348+526606587+527327675+527594890+527310539+526210977+524207343+521899962
3338+520406838+520449307+521593635+522781279+523604511+524329167+524751772
3328+524153992+522531448+520848875+519922050+519615299+519146269+518076774
3318+516967672+516666362+517169134+517768398+518011127+517924282+517618767
3308+517357736+517680068+518703985+519550147+519277986+518246861+517696356
3298+518165775+519025363+519328687+518744546+517805531+517489241+518465530
3288+520464677+522395597+523139014+522418527+521075211+520280810+520492023
3278+521339988+522367826+523559428+524987046+526276553+526758338+526119149
3268+524774596+523443504+522529681+521903919+521183291+520257031+519472240
3258+519243467+519527888+519679921+518833617+516774160+514438831+512989589
3248+512631077+512999977+514037072+515501860+516437694+516188181+515286018
3238+514516490+513734738+512313833+510317477+508574275+507652679+507267280
3228+506837185+506308126+506076950+506194605+506054973+505005194+503149177
3218+501424983+500876032+501779962+503283826+503959512+503104976+501371632
3208+499726864+498384890+497298860+496886466+497440399+498343269+498564905
3198+497755700+496512267+495636214+495275970+494838032+493751825+492237962
3188+491063814+490617608+490574397+490322693+489489816+488240976+487128023
3178+486386761+485521697+484042812+482376456+481375788+481099669+480730239
3168+479702189+478366610+477367743+476745479+475946873+474614404+473016592
3158+471601516+470489694+469657523+469254810+469394089+469789593+469759349
3148+468644488+466441972+464017289+462325600+461421211+460673519+459846859
3138+459322818+459256464+459176332+458629960+457783162+457161215+457006179
3128+457006179+456605693+455586652+454369152+453714418+454035372+454919763
3118+455382187+454683323+452917296+450822754+449182826+448370476+448172371
3108+448000835+447478065+446800541+446350944+446063837+445492133+444482984
3098+443400417+442625660+442235985+442209946+442499526+442819915+442788010
3088+442315341+441585809+440776851+440023576+439399086+438770179+437975884
3078+437237802+437060648+437552467+438055734+437740962+436593525+435508661
3068+435230246+435471527+435322886+434353699+433004022+431948766+431447831
3058+431327774+431240751+430887221+430229660+429532103+429073885+428889382
3048+428820485+428646016+428158013+427268958+426052270+424746759+423799371
3038+423609886+424011220+424309951+424003836+423140220+421976742+420710343
3028+419550964+418720524+418255416+417906867+417388655+416737666+416221821
3018+415942700+415844972+415927118+415991387+415480064+414091488+412276350
3008+410784993+410029033+409926535+410009282+409767506+409169691+408638265
2998+408361794+407991904+407195277+406150338+405274992+404739573+404484018
2988+404466211+404587222+404546237+404096569+403372513+402696262+402130599
2978+401492329+400737359+399994825+399287834+398622713+398246252+398309531
2968+398371786+397811281+396699742+395719142+395231704+394910113+394307988
2958+393472284+392818362+392489599+392140450+391489496+390759788+390277579
2948+389967400+389579033+389107812+388687611+388314860+387947550+387706445
2938+387672279+387521448+386720864+385265898+383876403+383177857+383010455
2928+382790867+382234002+381463167+380674631+379966546+379379790+378895108
2918+378365024+377620370+376784136+376277796+376320618+376639629+376802721
2908+376592532+376021604+375272004+374625078+374222578+373952183+373641439
2898+373214136+372667517+372043239+371408184+370841850+370453624+370281134
2888+370138146+369783626+369246936+368707560+368145536+367473736+366888323
2878+366645240+366566238+366219915+365561330+364956837+364625425+364457068
2868+364267690+363898366+363249885+362465412+361859754+361578760+361540778
2858+361620451+361619886+361262328+360499407+359642045+359007308+358585164
2848+358135955+357511888+356830867+356366218+356289124+356458752+356456985
2838+356005162+355310467+354731908+354238782+353577476+352806853+352232922
2828+351933238+351714604+351424106+351021994+350475552+349816189+349187847
2818+348647624+348032002+347236081+346523897+346260993+346396985+346513934
2808+346330915+345901774+345399355+344948627+344599548+344284600+343839561
2798+343156172+342285136+341368593+340531369+339867166+339477986+339419971
2788+339554868+339560592+339223597+338669841+338189328+337887311+337644193
2778+337347476+336968012+336453156+335778424+335094753+334576223+334126943
2768+333516586+332804331+332292902+332043530+331781898+331308911+330709824
2758+330156280+329735619+329449643+329227689+328946588+328483494+327798339
2748+327031108+326430361+326058493+325716516+325284690+324888762+324576534
2738+324109871+323298581+322348084+321627173+321201354+320862345+320551637
2728+320425290+320487969+320484259+320201781+319650498+318955097+318245280
2718+317620966+317128016+316763074+316476462+316167132+315762299+315294965
2708+314830175+314347330+313774106+313150676+312682953+312511629+312454426
2698+312186116+311676455+311200252+310927596+310745778+310441889+309892409
2688+309161357+308512700+308197540+308161325+308068402+307667527+307061515
2678+306574890+306384451+306326613+306106566+305657181+305181614+304869598
2668+304718308+304624749+304503737+304316761+304101025+303906841+303626483
2658+303059972+302245573+301492864+301007404+300733759+300606423+300651577
2648+300777041+300738811+300411321+299912824+299416835+298997941+298676492
2638+298430936+298156866+297797718+297490402+297388434+297403274+297317135
2628+297059177+296698757+296279050+295823375+295419620+295144721+294926918
2618+294601635+294139265+293717632+293510888+293490484+293480220+293329000
2608+293008045+292611763+292268797+291999657+291690627+291262122+290818725
2598+290541017+290451257+290383773+290184325+289845651+289448627+289068156
2588+288746301+288503659+288359841+288310571+288269604+288122994+287886218
2578+287695779+287606213+287506666+287271656+286917419+286590564+286426536
2568+286401910+286320982+285994551+285462860+285003899+284869232+285036669
2558+285280636+285428447+285443551+285322681+285058946+284684058+284253557
2548+283823515+283469844+283258171+283182507+283197700+283274918+283345723
2538+283248030+282840884+282190637+281601407+281412541+281706219+282205794
2528+282528215+282539786+282388760+282228565+282048762+281788313+281489794
2518+281281619+281240758+281302182+281330200+281293172+281299232+281407135
2508+281494970+281415474+281185605+280912596+280644286+280405849+280252667
2498+280184883+280144375+280143015+280228500+280321405+280271853+280061204
2488+279803052+279608603+279561983+279708522+279930971+279933886+279514444
2478+278832610+278281628+278089634+278166269+278320334+278451927+278505525
2468+278428838+278264509+278166499+278246525+278430074+278500420+278313691
2458+277962758+277658710+277466716+277291647+277119493+277088348+277262622
2448+277494946+277594176+277508973+277289032+276999824+276733704+276573810
2438+276483360+276335938+276110821+275964972+276046518+276305677+276544997
2428+276606881+276472037+276247043+276099356+276138274+276340090+276629546
2418+276962602+277260908+277401494+277376390+277324029+277322386+277289598
2408+277144967+276966647+276927429+277080504+277271720+277366268+277484100
2398+277800284+278195012+278392676+278370098+278329679+278354358+278340331
2388+278175897+277795832+277136929+276133646+274687920+272636076+269845426
2378+266377005+262514722+258595785+254784645+251036926+247310812+243736784
2368+240553332+238009422+236329305+235590269+235679570+236581804+238663909
2358+242409296+247806253+254382940+261927313+270305146+278348087+284068718
2348+286110298+284638020+281356787+278436416+276758843+275756443+274787255
2338+273775175+272763783+271529960+269916443+268297503+267289079+266993245
2328+266885289+266494625+265896174+265524766+265725627+266472525+267404826
2318+268169230+268761162+269459991+270425310+271475266+272312648+272877711
2308+273385747+274040976+274794587+275427398+275793047+275884839+275760436
2298+275546166+275424324+275478735+275617271+275699753+275672247+275604216
2288+275667089+275971420+276356819+276494702+276260929+275832089+275389010
2278+274954958+274567226+274336951+274237616+274078976+273792929+273533982
2268+273428569+273423217+273418941+273393326+273365378+273338650+273300933
2258+273266979+273296022+273403643+273484853+273431060+273277208+273130881
2248+273028048+272947297+272896030+272908608+272982010+273040237+272981675
2238+272787367+272544832+272342186+272207943+272165297+272242108+272411666
2228+272613552+272817222+272979307+273008792+272894228+272780071+272778057
2218+272804909+272743308+272637525+272580358+272538861+272445496+272336745
2208+272282351+272291485+272348899+272418291+272400607+272229990+272002329
2198+271882059+271913840+272021850+272131926+272223966+272313373+272411171
2188+272477984+272456944+272377341+272337292+272354958+272352838+272323902
2178+272379549+272578061+272824766+272998581+273083678+273140156+273220447
2168+273330153+273422598+273454309+273457577+273489287+273510186+273433851
2158+273288178+273206014+273266025+273432562+273601854+273636356+273464573
2148+273221383+273157115+273340611+273591714+273749859+273853700+274002111
2138+274178859+274302644+274377017+274496121+274700657+274914662+275062119
2128+275150855+275198430+275199313+275210654+275321013+275504439+275651313
2118+275736940+275822991+275922308+275987937+276011327+276050528+276174666
2108+276408598+276713547+277015546+277267374+277470762+277625798+277707927
2098+277745732+277852452+278095517+278408310+278700964+278946114+279111343
2088+279161055+279160101+279223557+279369283+279533170+279674656+279784944
2078+279859353+279918534+280011227+280171192+280368803+280529563+280674547
2068+280970469+281462394+281870194+281920348+281746904+281664404+281721960
2058+281753105+281689331+281609940+281624002+281812003+282175939+282608506
2048+282977141+283250892+283536956+283947512+284372131+284511444+284284084
2038+284012364+284007294+284180367+284258574+284202785+284229072+284503459
2028+284946573+285349109+285611130+285796958+286018294+286377478+286913303
2018+287440648+287609852+287319195+286878165+286620490+286596924+286718094
2008+286940632+287223516+287490466+287711873+287946724+288262219+288612658
1998+288895808+289254231+290091419+291437810+292559331+292725850+292121375
1988+291427564+290977012+290798798+290924315+291245693+291493740+291565976
1978+291598976+291719175+291917599+292106200+292287187+292717300+293634691
1968+294686891+295076990+294557064+293776849+293412966+293502250+293771090
1958+294107378+294469724+294688357+294624230+294382048+294238477+294420966
1948+295045050+296240874+298041225+299858625+300520213+299551061+297912193
1938+296751507+296239902+296002189+295866815+295849132+295923028+296077517
1928+296491217+297577990+299495625+301517243+302701425+303267087+303957118
1918+304281995+303178122+301170885+299957377+300310342+301545543+302462793
1908+302424812+301738137+301094285+300795625+300711747+300763367+301147142
1898+302086121+303370857+304347182+304826988+305559311+306937501+307941278
1888+307518109+306229450+305234258+304816671+304731274+304909771+305322977
1878+305788262+306157656+306539452+307559341+310261132+314945109+319694204
1868+321162948+318443951+314275960+311457150+310559509+310712885+311033415
1858+311176297+311187109+311225196+311412137+311942397+313120962+315159503
1848+318252700+322517712+326779404+328119223+325366483+321335262+318992760
1838+318649512+318958807+319190124+320342366+323730089+328543593+331798857
1828+332089391+331110346+330023008+328114170+325411320+323431500+323062211
1818+323682639+324366804+325140890+326716690+329146461+331213303+331661805
1808+330770453+330005272+330689296+333296433+337061853+340063929+340781166
1798+339919563+339828902+342304251+346880254+350143326+348656386+344002970
1788+340628567+340433253+342168258+344106917+345888560+347458919+348255864
1778+348618546+350373549+355106850+362090365+367503733+367761232+364000016
1768+359374265+355700001+354337887+356031767+359153936+360840819+360894947
1758+361072985+361551130+362086231+364346338+369875030+376850101+380824120
1748+380014385+377020188+374848976+374648220+376079725+377813247+378457947
1738+378965029+382491147+389890766+395743379+393949052+387491310+381469880
1728+377247725+375109760+375199750+376825404+379787449+385662357+395758996
1718+407229549+412546674+408492415+400458414+393942233+391036330+392145962
1708+396733024+402728449+407497577+411459689+417873514+427216772+434227776
1698+435123827+431735750+425054605+416895423+411792692+411898299+415816035
1688+422170325+431911491+444224391+450823566+445874918+436842297+431335405
1678+431261668+435365108+440305206+443555594+446548413+450724425+452807273
1668+449314473+444054409+442760804+445833155+448914198+448672352+447303137
1658+449199291+457281308+472367793+489038487+493204358+486161415+482763976
1648+485837069+487978249+482734050+474489859+469859974+470542691+476233167
1638+486302778+497213144+500747035+494298585+486457778+483871770+486642352
1628+491598773+496171703+500266805+503575385+504392469+503626262+505141963
1618+510348110+515039613+514245636+510361536+508364687+509387791+511718703
1608+513597014+514780843+515952129+517384553+518657877+519442986+520155382
1598+521577948+523931684+526527515+528494085+529739603+530834608+532125986
1588+533446055+534579394+535601368+536709551+538124273+540538993+545253320
1578+552631174+559329138+560051427+556661124+555971164+559862437+564145857
1568+564599235+562895393+562570905+565304812+573117212+588803208+608918297
1558+616484328+606908904+595516081+589131865+587127949+587837235+589820800
1548+593009004+599264507+610141344+624788230+640614846+652632336+652741158
1538+643049846+636050396+636927615+642168811+645553743+646331821+649189177
1528+656619676+666961023+677904496+689307142+700422327+707788239+710505258
1518+711777275+712698729+712377775+712307818+715766522+724676789+738685582
1508+753731223+759078485+749164229+736339618+730470928+731967727+737983750
1498+744306030+746524092+744256989+742371329+745195615+752326641+758670614
1488+759258324+755143437+750856271+749144938+749908671+751725505+754159445
1478+758321253+765041087+773353185+780051255+780672459+774869769+768606423
1468+766951833+770024714+774224539+776055435+776764899+780563920+789349677
1458+799339119+801251561+792684367+782219853+775534008+773104873+773333753
1448+773625947+772189072+769681076+767649849+766671015+767278299+770777211
1438+777124365+782277867+781721108+777635122+774846945+774123420+773330926
1428+771841760+771431416+773065372+775749038+778820717+782895256+786949444
1418+787095717+782046656+775423137+770525790+768012777+767069347+766956285
1408+767738320+769372205+770633906+770578435+770674254+773045586+777307879
1398+780920701+782313906+781805975+779995360+777671726+776363741+777151429
1388+779108107+779879401+779084858+779452168+783070926+788975795+794987438
1378+800300640+805319175+809901715+813120799+814820402+816105774+817772943
1368+819636273+821804235+825096032+829267380+832115692+831863564+829512866
1358+827205202+825803376+824822352+823690532+822633827+822271322+822662658
1348+823252417+823673148+824210546+825522488+827918128+830687296+832309240
1338+831814524+829812480+827805207+826924031+827424471+828965152+831217415
1328+834059721+837141929+839817256+841922752+844107390+846938460+850196621
1318+853446515+856705665+859967501+862656607+864166549+864631092+864837854
1308+865575512+867188552+869594721+872617007+876127013+879851838+883335769
1298+886087272+887570432+887416738+885976824+884273476+883147663+882474520
1288+881134949+878138526+874048159+870563591+868502331+867045811+865124183
1278+862592374+860015199+858161832+857565147+858019020+858787417+859534474
1268+860555069+861954705+863208067+863841496+864123232+864579578+865124254
1258+865335326+865365782+865815345+866890422+868339169+869909528+871460030
1248+873012441+874782142+876797612+878566748+879549680+879968574+880633590
1238+881899389+883423958+885100100+887403171+890405318+893320689+895591679
1228+897549557+899428222+900611344+900501957+899735892+899918981+902085671
1218+905705136+909368695+912215310+914341793+916137710+917780712+919330013
1208+921014070+923302513+926478563+930136822+933301071+934997424+935131331
1198+935051199+936497614+939740582+943434102+946398232+948644842+950521529
1188+952192866+954325849+957761376+962009889+965354472+966720966+966437322
1178+965358570+964395283+964404893+965416444+966465234+966908437+967336023
1168+968900022+972050209+975654976+977706201+977843289+978211305+980577973
1158+983975554+986434792+987722213+988406238+987863894+985936895+984866623
1148+986891208+991288327+995492109+997969295+999042677+1000204741+1003001186
1138+1007342127+1011079317+1012128178+1010383562+1007349829+1005141377
1130+1005462967+1008422009+1012523188+1016135939+1018700890+1020678625
1121+1022917039+1026065176+1030153848+1033940220+1034744090+1031023576
1113+1025560355+1023457545+1026579961+1031599344+1033563865+1031202214
1104+1027895436+1027512863+1031274362+1037319287+1041545328+1040185335
1095+1033872948+1027845548+1026307058+1029375275+1035448112+1042583731
1087+1047491395+1047933114+1046509806+1047722112+1051996417+1055873662
1078+1057055230+1056227475+1055350539+1056327677+1058976363+1060103167
1070+1057588175+1054080430+1053647615+1056294606+1058904852+1060337841
1061+1062064084+1064931333+1068274927+1070829702+1071487439+1070073035
1053+1067353119+1064513570+1062919962+1063513043+1065562643+1066945319
1044+1066921788+1066796077+1067210167+1067051456+1065402519+1063509156
1035+1064017087+1067812999+1072255342+1073741823+1071132284+1066395838
1027+1063057262+1063103617+1065345917+1067268535+1068121728+1068960153
1018+1069301953+1066932529+1062466937+1060095676+1061933497+1064504454
1010+1063084821+1058167406+1054208402+1053541054+1054573027+1054653513
1001+1053341924+1052839364+1055085056+1058615979+1059492350+1056291850
993+1052090894+1049814393+1048229194+1045028129+1041875822+1042720960
984+1047770092+1052345990+1052736053+1050343098+1048449382+1048314132
975+1049380023+1050633385+1050920915+1049142310+1044807659+1038491244
967+1031764061+1026153153+1022306434+1020383392+1020048588+1019714490
958+1017226845+1012252475+1007098973+1004054711+1002796332+1001218624+998129419
948+994487554+992043934+990999242+989744043+987220501+984277076+981954361
938+979886105+977165483+973754547+970652411+969171653+970018558+972540757
928+974930037+975776023+975287383+974666320+974484220+974109561+972934777
918+971655270+971727842+973347665+974330102+972274354+967979345+964963207
908+965231022+966847596+966384466+963261908+960068051+958672585+958448157
898+958467095+958899839+959662653+959896621+959631208+959669366+959507405
888+957959235+955721810+954829893+955850136+957241504+957225675+955742020
878+954402661+954320196+954487245+953412592+951782310+951584593+953141667
868+954670900+954474808+952612538+950446766+948998655+947993747+946667531
858+945201542+944386437+943921823+942361428+939111675+935505072+933531930
848+933860445+935284601+936547502+938196015+941035212+943647153+943996939
838+942731493+942161167+943186638+945537407+949328584+954146788+958004318
828+959016505+957436111+955009591+952946706+951290137+949948799+949660704
818+951257844+954299068+957213521+958767910+958674280+956884228+953808520
808+951066840+950359426+951798704+954284299+957233589+960591528+963101431
798+962625087+958841047+954363372+952490501+954269954+958255457+962421222
788+965165870+965232153+962513792+959055582+957660751+959077770+961252586
778+961641519+959764409+956919630+954112445+951636036+950121643+949977559
768+950030487+948871037+947542842+948978234+954408314+961228066+965029348
758+964072845+960844504+958778580+958968100+959743210+958441797+954471134
748+950592192+950324871+954712309+961412922+966433930+967861902+967414389
738+967042769+966544166+966226108+968055167+971379328+971601424+966355564
728+959207933+955085555+955526072+958357990+960191359+960146700+960905274
718+964351754+968255923+969518188+967863810+964732702+961138888+957942699
708+956109683+954928187+952442874+949198916+948236336+950261203+952361823
698+952328399+951573781+952597345+955590941+958283440+958225849+954851658
688+949556828+944550235+941497069+940530885+940927520+942137141+942356410
678+938160825+928963028+919682907+915929676+917509292+918115021+911919018
668+901738006+897022477+898353851+900065397+900943251+901819764+901864353
658+900895554+900999641+902397157+901496619+895650400+886893403+880118522
648+879695600+884713852+889828490+892840035+895591255+897666294+895496848
638+888423767+880505901+876085675+876621235+880267976+883037215+882003971
628+878040445+874654312+874411158+877339178+882291431+887376036+888618374
618+882161056+869860417+859152678+856134844+860702827+867499684+870946517
608+870341707+869102407+869433679+870442615+870017361+867085807+862705365
##END=
