##TITLE=<SNM>
##JCAMP-DX=4.24
##DATA TYPE=INFRARED SPECTRUM
##DATE=2/5/2025
##SAMPLING PROCEDURE=Instrument type and / or accessory
##ORIGIN=Admin
##XUNITS=1/CM
##YUNITS=ABSORBANCE
##RESOLUTION=4
##FIRSTX=4497.3318
##LASTX=599.83466
##DELTAX=-1.4281778
##MAXY=1.779878
##MINY=0.21292691
##XFACTOR=1
##YFACTOR=1.6576406e-09
##NPOINTS=2730
##FIRSTY=0.23388872
##XYDATA=(X++(Y..Y))
4497+141097363+141792782+142936932+143808390+143945046+143517394+142750924
4487+141603726+140283564+139499222+139698319+140389647+140656039+140107696
4477+139064748+138191268+138158564+139164089+140568671+141478073+141709270
4467+141686959+141576030+141143263+140442172+140018170+140218831+140707674
4457+140967566+140922133+140697147+140281460+139863283+139926119+140630815
4447+141528827+142010541+141700479+140651256+139430939+138640548+138379254
4437+138489544+138945710+139634818+140210561+140476071+140579189+140705723
4427+140787607+140525090+139690732+138459933+137252839+136206745+135123714
4417+134043226+133484707+133865919+134961132+136201594+137235463+137937345
4407+138176103+137885341+137260040+136734835+136709099+137083129+137162172
4397+136490279+135574369+135202218+135375659+135490642+135247327+134935548
4387+135006852+135539706+136063463+136036585+135468699+134796329+134260266
4377+133776502+133294402+132904263+132649890+132453625+132219649+131981089
4367+131917031+132132443+132472314+132670512+132485025+131677113+130285845
4357+128947048+128451796+128985441+130145485+131394784+132200178+132194794
4347+131535198+130796954+130432354+130513285+130817774+131027523+131019639
4337+130881221+130622147+130241743+129994014+130099936+130333120+130301154
4327+129944257+129473798+129066040+128839598+128968892+129550496+130248719
4317+130387398+129771634+129088864+129051190+129555152+130131219+130722594
4307+131497380+132288032+132709984+132694073+132583728+132642663+132635228
4297+132102086+131050311+130121798+130021180+130944749+132480189+133843536
4287+134345782+133859025+132771256+131587399+130786589+130743989+131364930
4277+132046298+132334965+132353546+132383679+132401307+132230832+131885820
4267+131600506+131616147+131947927+132323243+132420175+132271932+132336134
4257+132945838+133854701+134605907+135042755+135150394+134927368+134715910
4247+135017702+135762526+136355259+136437547+136148287+135826018+135724986
4237+135753429+135517781+134929426+134447847+134430992+134695334+134915681
4227+135058963+135307861+135706819+135918393+135563627+134898952+134665983
4217+135104126+135751154+136282004+136796691+137265892+137437041+137265334
4207+136969422+136809402+136961314+137328395+137507895+137283187+136979274
4197+137019817+137348073+137564330+137445509+137129091+136908034+136961260
4187+137243580+137568924+137778206+137842579+137868162+138024281+138435212
4177+139076506+139719687+140046397+139964378+139801158+140025901+140736404
4167+141541430+141980948+141918426+141451033+140686675+139837771+139309933
4157+139402011+140014709+140793378+141389060+141551902+141236789+140666269
4147+140128812+139745513+139515026+139489649+139741145+140079469+139998079
4137+139237119+138310350+138019202+138514508+139294327+139954912+140456564
4127+140856727+141188363+141390112+141200705+140475649+139587615+139057898
4117+138946510+139051551+139411531+140108873+140812112+141002606+140582587
4107+139966481+139679603+140073554+141186781+142559378+143409522+143335216
4097+142647195+141837297+141085354+140494518+140324807+140642033+141081227
4087+141286886+141401061+141803434+142468253+142927313+142861655+142439073
4077+142074428+142052458+142289220+142406316+142192791+141874837+141728130
4067+141661672+141437899+141088994+140899642+141048749+141370578+141554374
4057+141536036+141439005+141246425+140934934+140720421+140741429+140804633
4047+140803429+140967781+141369831+141598359+141306357+140802116+140672759
4037+140901188+140868224+140392929+140196699+140971467+142400455+143471540
4027+143619828+143285774+143243740+143604349+143859710+143772846+143664811
4017+143822782+144081145+144050402+143550269+142817418+142289355+142168826
4007+142303172+142480173+142733502+143320266+144299758+145153030+145183657
3997+144376402+143398186+142754619+142491068+142626385+143262545+144259000
3987+145245225+145950829+146271642+146140675+145616433+145063748+145005101
3977+145678954+146765878+147565762+147525606+146720877+145769342+145209807
3967+145156563+145591694+146551400+147805661+148794286+149153394+149017502
3957+148722425+148509647+148519634+148874040+149708542+150932285+151916837
3947+152025411+151611756+151643920+152275550+152639781+152199967+151457264
3937+151239937+152079887+153978660+156127966+157205667+156685128+155529975
3927+154995287+155228453+155357918+154861147+154489148+155364966+157411866
3917+158982742+158434821+156044779+153512542+152006929+151627595+152463320
3907+155218115+160206592+166021085+170076680+171052405+169529082+166406675
3897+162713784+160142264+160038652+161860027+163053780+162056463+161048951
3887+162539462+165471061+167105222+167559707+168410049+168483510+166336432
3878+164358121+165448192+169073069+173051787+176447651+178466270+177772254
3868+175629653+174852144+175261251+174123069+170765877+167770760+167561181
3858+170939175+177894707+186703868+191060769+186061505+177152149+170563598
3848+168094845+169316412+172762383+176744714+180434837+183830413+186382192
3838+186739772+184802255+182286379+180368621+178866927+177631606+177173867
3828+177543115+178229202+179965411+184351815+190137830+192656690+190913739
3818+188755587+187137804+183859395+179306813+176477909+177269658+181492455
3808+186706763+189959103+191892718+195127277+198780489+199358830+197344184
3798+195874942+195112606+193724358+192214484+192069755+193765907+196979035
3788+201370042+206415907+211289337+215907416+221366540+228176733+234969073
3778+240644014+246685147+255253465+267080253+281592187+296762664+309473576
3768+318428796+324581847+328446346+330792178+333854896+338873883+344311523
3758+348483027+352810262+360455874+373421796+390677127+407186915+418634099
3748+427296877+437234852+448175287+456272058+461460225+468167956+479438985
3738+495187408+512119876+525240631+532258784+535403305+538501477+544242671
3728+552884234+561533599+566418428+567498017+567023773+565326111+562064656
3718+558301917+555648252+555455520+558180021+561447086+560873347+555773996
3708+549902924+546774727+547516890+550763315+553564082+554168816+553638191
3698+553763107+555472204+559210564+565238734+573174415+580687235+583211561
3688+578903994+572486835+569247926+570176349+573096639+575914198+579385286
3678+585409644+591719434+592644945+589420814+587971941+587944722+584014061
3668+575618268+567296943+561131846+556399333+552879703+551827406+553998126
3658+557757772+560314496+561671065+565115040+572733180+581695916+584337068
3648+577130030+566346298+558421404+554971675+555142582+557461015+560346534
3638+562459829+563233203+563554052+565846093+572556521+582949647+590030222
3628+587178898+580387206+578200270+581518178+587390940+593428711+598311383
3618+601152063+602283790+602583316+602425534+602760335+605423241+610616657
3608+615491562+616921305+614747601+611457560+609835228+610731865+613059036
3598+615966417+619575761+623216748+625495663+627007821+630197541+635724715
3588+640480097+640938771+637764225+633811919+630821044+630003154+632115227
3578+635508251+636841412+635251082+633626953+635099054+640187762+646617758
3568+649947065+646656017+638646120+631201115+627311159+626283708+626166271
3558+626234806+626953885+628202761+628748596+627937754+627090955+628058859
3548+630782498+633115278+633021788+630410193+626808832+624178611+623817670
3538+625456685+627287786+627535102+626146854+624239308+622478899+620852037
3528+619295077+617976299+617223636+617131872+617089658+616289388+614941052
3518+614131721+614293314+614715815+614769175+614579607+614130282+613003733
3508+611678699+611391829+611780530+610589977+607191775+604342070+604561411
3498+606835580+608041380+606761436+604544295+603356762+603269241+603038933
3488+601866107+599972944+598100671+596929139+596660717+596984586+597466417
3478+597763426+597647211+597146071+596333719+595112853+593667685+592579502
3468+591939998+591026353+589544292+588469414+588860020+590382318+591644463
3458+591768157+591038291+590137339+589466588+589186443+588975947+587632682
3448+584210425+580127916+578380453+579613364+580737828+578823593+574926086
3438+572035532+571086254+571099882+571637051+573021344+574838601+575716000
3428+574564784+571754992+569099745+568396308+569781679+571592967+572118630
3418+571344249+570376632+569582870+568330721+566344931+564153213+562121361
3408+560146682+558444669+557688050+558062584+558782274+559031459+558954726
3398+559122324+559594051+560078255+560360881+560056536+558693962+556508788
3388+554356263+552656802+551239465+550262247+550424631+551916832+553686158
3378+554380606+553878747+553149348+552844860+552798223+552589706+552074362
3368+551574409+551819316+553147550+554660895+555053910+554421094+554083489
3358+554477080+554566650+553532368+551849160+550280945+548919665+547826808
3348+547345121+547142465+546191820+544241412+542442026+542074971+543082501
3338+544098625+544034728+543382279+543273004+543742717+543875221+543191309
3328+542085435+541208323+540881038+540979346+541259922+541645171+542028227
3318+542093885+541811223+541715612+542123550+542503082+542223548+541498788
3308+540941770+540557528+540023199+539653197+540021509+540839615+541091569
3298+540128591+538234529+536375165+535588594+536304688+538060962+540032512
3288+541671996+542674240+542730189+541733986+540187669+539127570+539322459
3278+540420710+541288401+541360891+541058560+540734943+540239448+539772288
3268+539838234+540130137+539824498+539016317+538447289+538049347+537267415
3258+536408570+536195953+536444383+536324537+535519304+534478046+533940733
3248+534400342+535586832+536583287+536816220+536566963+536194838+535424376
3238+533858103+531890543+530629010+530716135+531390015+531108431+529311814
3228+527180899+526206522+526465668+526830817+526561063+525987289+525630051
3218+525391617+524873613+524028791+523207018+522706309+522468810+522263636
3208+522035558+521879538+521701117+521126624+519957105+518576768+517575171
3198+516988560+516304684+515288633+514348200+513880860+513625525+512853697
3188+511052765+508444155+505873120+504033066+502924280+502233464+501938217
3178+502195277+502791632+503076344+502504440+501088037+499263876+497444318
3168+495815586+494502597+493645873+493131141+492481676+491307340+489717154
3158+488110033+486826601+486142078+486185443+486633330+486799525+486181020
3148+484838654+483350803+482334177+481784026+481079655+479917543+478849102
3138+478481041+478576472+478374498+477523132+476383818+475529252+475060905
3128+474515537+473473273+472104298+470984113+470487540+470403399+470063493
3118+469043054+467719818+466737243+466119528+465501670+464934440+464773998
3108+465002688+465188588+464976043+464340027+463449215+462437227+461375185
3098+460413753+459653287+458861611+457759225+456592008+455933985+455948944
3088+456222868+456190506+455523027+454342937+453175001+452476526+452211951
3078+452067365+451881141+451573309+450956673+450019800+449178466+448822918
3068+448852439+448985266+449064157+448751255+447657499+446107370+444948963
3058+444406364+443915975+443146233+442377065+441824722+441301900+440653298
3048+440034217+439567884+439048729+438232422+437226079+436312074+435506590
3038+434565150+433374525+432158334+431309916+431100284+431489524+432066174
3028+432135429+431188164+429497693+427901215+426845862+426090574+425356501
3018+424678091+424100181+423590627+423215986+422971115+422593777+421867759
3008+420931461+420096347+419511570+419057319+418441115+417464868+416342490
2998+415626252+415609424+415900213+415818122+415138992+414183565+413271538
2988+412391802+411389270+410295047+409436741+409176516+409427967+409601929
2978+409250373+408513927+407742099+407022049+406258419+405356605+404224303
2968+402876758+401539211+400483642+399848128+399638748+399718609+399759637
2958+399329585+398160211+396513212+395207091+394895124+395279438+395377854
2948+394584487+393188472+391914749+391195670+390901070+390711215+390538007
2938+390293280+389574633+388187572+386703677+385908153+385934438+386280997
2928+386396924+386138928+385788990+385476303+384782503+383424172+381895509
2918+380783667+380003784+379285605+378773498+378651602+378719202+378616471
2908+378183291+377615845+377330630+377457021+377571330+377229554+376511410
2898+375707004+374813065+373718769+372604662+371808418+371443126+371354814
2888+371331909+371232846+371020445+370727032+370317799+369632125+368544626
2878+367167129+365871256+365043119+364682141+364378696+363910673+363565408
2868+363543043+363472746+362935720+362076731+361366606+361032776+360856872
2858+360399349+359482540+358474075+357888723+357780634+357775960+357580890
2848+357228399+356899316+356667929+356454018+356147300+355691035+355065194
2838+354272043+353339593+352336558+351428163+350829722+350569102+350391005
2828+350018880+349396815+348618622+347795051+347054290+346513022+346140682
2818+345716671+345041101+344209044+343555192+343252861+343101768+342807995
2808+342311601+341708090+341008824+340177702+339318893+338623007+338120609
2798+337635290+337021064+336372678+335934499+335789662+335706493+335357992
2788+334634239+333693267+332833235+332349031+332289629+332277260+331801038
2778+330759781+329502993+328364686+327412675+326614993+325956179+325337746
2768+324592239+323729870+323046461+322807451+322844236+322655495+321975898
2758+321048805+320242853+319647972+319178295+318780353+318370977+317801445
2748+317030840+316197057+315459173+314892554+314517948+314258911+313863989
2738+313081086+312012249+311114749+310689048+310522457+310200996+309610898
2728+308967761+308494165+308193488+307863830+307324107+306644330+306051175
2718+305654815+305402825+305167950+304744910+303950105+302863397+301820881
2708+301109569+300751126+300532325+300183861+299612406+298974178+298475986
2698+298178654+298014561+297852573+297538556+297033622+296494817+296088713
2688+295797924+295514543+295187923+294786601+294290351+293796025+293429151
2678+293115475+292653583+292006959+291317168+290686113+290141698+289746543
2668+289568374+289575223+289630221+289555627+289212430+288594428+287855861
2658+287219646+286842686+286706065+286604719+286329140+285895852+285499942
2648+285225478+284946322+284551329+284103729+283696996+283293822+282824667
2638+282346557+281962693+281646590+281300014+280949680+280712809+280593161
2628+280466716+280231536+279857110+279378120+278929352+278645881+278450974
2618+278092855+277467230+276780405+276330541+276178350+276093185+275865628
2608+275607327+275581024+275761261+275802289+275500803+275060521+274786543
2598+274710403+274651684+274499440+274280620+274050420+273846002+273678404
2588+273500989+273257791+272979983+272755590+272618556+272529471+272425824
2578+272259628+272036152+271813233+271613148+271375235+271058287+270733645
2568+270488073+270267240+269938049+269533688+269308792+269453521+269844325
2558+270183549+270307458+270257945+270128156+269946535+269686112+269338529
2548+268988698+268764000+268651453+268477166+268177748+267936455+267883831
2538+267824591+267471866+266851347+266289277+266046780+266086729+266181513
2528+266166950+266046798+265898761+265803689+265837920+265964473+265981409
2518+265787832+265599432+265641305+265772244+265718739+265522933+265429551
2508+265451485+265369034+265086228+264729512+264423999+264172098+263938231
2498+263714072+263512530+263387973+263417152+263570709+263663389+263541457
2488+263267515+262989006+262680455+262211730+261656115+261287316+261233344
2478+261357703+261495942+261568289+261460056+261065980+260499523+260053326
2468+259899788+259928608+259877009+259577051+259095418+258645338+258360069
2458+258183589+257988789+257745357+257525333+257375390+257264137+257169803
2448+257132263+257166746+257206192+257169515+257015743+256747428+256440189
2438+256204020+256034966+255810141+255492906+255222811+255148774+255261843
2428+255412451+255448085+255340500+255184211+255082073+255084878+255205821
2418+255391865+255519658+255524009+255470918+255430717+255379010+255298358
2408+255272127+255380413+255551067+255623252+255588157+255655362+255975474
2398+256405094+256694049+256832467+257094670+257842065+259411197+262133649
2388+266390893+272642432+281352152+292836876+307198903+324404936+344364668
2378+366870264+391441045+417268864+443447736+469198966+493427395+514289013
2368+530346096+541913702+549938486+554353494+554678622+550885463+542899513
2358+530609629+514306489+494017134+469936527+445342230+426384778+417716211
2348+420647396+433834997+452904349+470969515+483218732+489514821+491683348
2338+491612511+490927808+490358025+489571203+487877819+484872238+480406674
2328+474419962+467206668+459466164+451644685+443511921+434632031+424950721
2318+414769457+404486325+394503942+385112916+376249280+367511854+358603163
2308+349622520+340839249+332430367+324556713+317400627+310948625+304960871
2298+299288572+294021677+289259427+284956894+281051332+277548638+274440110
2288+271662679+269167533+266957296+265053237+263453541+262125558+261041331
2278+260186729+259498933+258858242+258197541+257544157+256921264+256302993
2268+255689791+255144118+254739344+254511751+254431044+254390574+254272687
2258+254046515+253761336+253448074+253096463+252737877+252441749+252181380
2248+251825814+251347579+250925815+250749156+250796764+250883386+250870513
2238+250792053+250792503+250959166+251224694+251443532+251532886+251510575
2228+251436700+251374134+251402702+251612676+252028345+252556291+253081127
2218+253595068+254135168+254638070+255021071+255376350+255897877+256626395
2208+257432670+258223987+259018900+259850544+260713219+261574779+262378843
2198+263078414+263712274+264394478+265188546+266046582+266898955+267721789
2188+268482147+269126020+269665742+270173804+270686199+271193146+271670374
2178+272052099+272260005+272295064+272215526+272050679+271814204+271544433
2168+271267416+270965121+270621547+270260282+269881002+269387881+268704832
2158+267956196+267372623+267024968+266796009+266569189+266354145+266280863
2148+266433737+266699373+267038956+267878168+269777139+272734249+276275400
2138+280157104+284553540+289641475+295328067+301328317+307377756+313427105
2128+319636969+326187746+333175874+340638678+348511613+356540460+364357265
2118+371766923+378958427+386310949+393994712+401934671+410237766+419550476
2108+430907767+445192935+462657502+482734528+504097466+525059621+544305273
2098+561304118+576022538+588553051+599005075+607399466+613637952+617389831
2088+617793706+613787176+604898980+591212325+572999266+550949467+526165459
2078+499838369+473321784+447999024+424798728+404194422+386415082+371356216
2068+358676049+348089507+339286208+331824483+325421707+320021247+315508722
2058+311733614+308662770+306232940+304326437+302986659+302369305+302574155
2048+303726809+306053512+309862816+315621844+323914511+335251594+350085042
2038+368812438+391413141+417200688+445043315+473495458+500770352+525275906
2028+546421696+564640761+580638477+594703009+606663559+616271409+623265578
2018+627350424+628647268+627674617+624458792+618366078+609043588+596878439
2008+582388350+565721536+547036606+527044261+506786657+486913798+467424391
1998+448250079+429967550+413524176+399160765+386103330+373611113+361844086
1988+351356248+342343316+334665163+328089108+322326663+317121201+312375959
1978+308116971+304388355+301164260+298309863+295751449+293662173+292181820
1968+290944450+289292310+287088294+284875000+283114178+281751604+280619733
1958+279795515+279348671+279067447+278649387+278023852+277383251+276948381
1948+276827186+277151451+278019573+278959521+278924282+277531108+275736468
1938+274609110+274236680+274156207+274114820+274117967+274179795+274283713
1928+274530327+275220424+276479441+277818858+278697768+279416109+280416466
1918+281029074+280296313+278775077+277979930+278532705+279819715+280906261
1908+281345913+281311898+281223550+281330092+281630895+282066215+282685996
1898+283612909+284746992+285669392+286253684+287024739+288202977+288945697
1888+288485189+287372034+286563152+286242986+286144067+286127365+286127005
1878+286094500+286088423+286243184+286931285+288839047+292127291+295289467
1868+295881759+293442221+290116420+287893239+287073335+286993617+287058377
1858+287045666+286980673+286964132+287057604+287370668+288140752+289619703
1848+292053398+295456022+298670696+299373306+296960305+293805931+292060338
1838+291804302+292076968+292488933+293784249+296728433+300464042+302751857
1828+302796876+301999014+301155936+299755499+297944696+296809589+296796608
1818+297344169+297896818+298619295+299986292+301875284+303354181+303668989
1808+303202117+303020567+303930976+306104752+308929898+311117985+311696074
1798+311194071+311348041+313578630+317544601+320533534+319845379+316666266
1788+314343411+314340570+315863515+317729458+319537474+321058478+321918186
1778+322560531+324449272+328728325+334677928+339208791+339618131+336955477
1768+333741594+331414531+331025543+333066743+336152905+338031650+338622036
1758+339335829+340281799+341226188+343496222+348382993+354516231+358420427
1748+358631246+357037572+355934216+356389582+358410143+360996028+362784735
1738+364255038+367811596+374028507+378627762+377289603+372734360+368866698
1728+366518348+365700782+366444132+368300007+371305301+376787708+385613014
1718+395240388+399804296+397234628+391897309+387933281+386868039+389036349
1708+394044333+400184655+405267538+409628718+415909202+424468530+431103592
1698+432865402+431305961+427401981+422571411+420111126+421517281+425673179
1688+431633282+440267438+450959802+457402059+455202789+449909806+447265814
1678+448774519+453578948+459189112+463589701+467876053+473438789+478003525
1668+478600959+477665560+479659189+485199523+491047079+494480016+496950369
1658+501717725+510965676+525207694+540132726+545165880+541499292+540367457
1648+543899168+546599866+543861845+538890466+536450280+537811021+542769635
1638+550668100+558579545+560887335+556858546+552992358+553543910+558033998
1628+563997301+569845791+575763428+581499911+585674328+588776455+593591850
1618+601311390+608844671+612018857+612041582+612538443+614568533+617231475
1608+619473282+620941212+622006849+623272482+625005850+627163805+629789423
1598+632967636+636472775+639844008+642849913+645624683+648260513+650606382
1588+652638197+654610108+656632934+658509341+660269462+662742836+667245724
1578+674083766+680621778+682981382+682711341+684848153+690829543+697851975
1568+702906451+706922619+712554933+721329143+734715409+755194439+781901384
1558+802154241+807859189+809271097+812781630+817462508+821592877+824842717
1548+828064799+832796449+839688499+847604331+854315730+855391292+846116625
1538+832521518+824505148+822894107+822590770+819261535+814575982+812588538
1528+813819005+815859881+817442875+819805716+823074183+824819345+824257832
1518+823037146+821042655+817366214+813692146+813191762+817762394+827036629
1508+836949183+838384176+828264723+817373909+812741501+813586359+816943138
1498+819589683+819131728+816359907+814948934+817248561+821913042+824770371
1488+822939630+818028839+813268351+810378805+809510503+810191826+812177831
1478+815476790+819891151+824978565+829403425+830050876+825578912+819988308
1468+817758582+819402776+821843932+822084919+821540019+823962837+830748524
1458+838900597+841688528+837057703+830724433+826915309+826229527+827534138
1448+828861545+828861761+827900976+826916819+826319708+826805854+829599106
1438+834383686+837588795+836017739+831914267+828834577+827156584+825667223
1428+824214827+823589742+823750544+823815051+823633825+823903866+824193037
1418+822449097+818015894+812752001+808508151+805921511+804693489+804474868
1408+805528998+807665738+809115473+808524763+807384982+807887092+809946164
1398+812053418+813452957+813785564+812360999+809742716+807933837+807813164
1388+807857823+806158974+803654892+803377947+806682084+812248812+818195754
1378+823959457+829770192+834901690+837723204+838248184+838815378+840949673
1368+843722429+846017669+848336858+850976355+852463486+851621721+849519788
1358+847689982+846308782+844971090+843921921+843763924+844481996+845510453
1348+846435712+847054397+847256478+847418431+848294931+850009458+851658469
1338+852322749+852076296+851650199+851593674+852185391+853766371+856577242
1328+860325886+864234396+867512500+869784008+871313641+872798183+874749814
1318+877278706+880352283+883697051+886756965+889386322+892015680+894706741
1308+897031035+899096507+901532773+904285680+906383442+907032475+906441693
1298+905527869+905081133+905231004+905414243+904783692+902810631+899612138
1288+895830198+892331962+889878509+888720101+888342547+887780387+886403646
1278+884430513+882601426+881415834+880862304+880887978+881647904+883124392
1268+885052578+887201471+889272409+890914085+892254869+893784502+895427761
1258+896489083+896664556+896446797+896458447+896705044+896524609+895403598
1248+893796009+892643139+892142250+891621945+890618802+889441769+888498387
1238+887669782+886768039+886187326+886545678+887878911+889595235+891090924
1228+892145055+892845508+893372573+893874108+894429364+894924787+894940033
1218+894106538+892778914+892038189+892769062+894802460+897114816+898975114
1208+900664039+902847595+905674072+908761313+911547373+913499148+914554932
1198+915341323+916533387+918502852+921547232+925447328+928934273+930629023
1188+930519136+930115837+931384634+935244170+940723233+945777135+949148872
1178+951234408+952997189+954540702+955082438+954281520+953210993+953562441
1168+956002303+959603161+962961665+965529751+967563868+969234527+970644133
1158+972534708+975848912+980249610+983699446+984066428+981152862+977145972
1148+975035697+976214313+979321905+981670723+982126664+982085601+983386687
1138+986295004+989899385+993447026+996572022+999000234+1000796240+1002206494
1128+1003207839+1003580862+1003445374+1003720090+1005387368+1008140492
1120+1010162814+1009717660+1007297575+1005783980+1007793430+1012826188
1111+1017585094+1019680482+1020250265+1021614997+1023967554+1025649646
1103+1025495389+1024321016+1024186175+1026403028+1030007986+1032495455
1094+1032960889+1033398852+1035880927+1039829638+1043009650+1043485799
1085+1041060896+1038075990+1037341378+1039237706+1041824058+1043485727
1077+1043832789+1043052223+1042976928+1046452582+1052883297+1057553172
1068+1057501609+1054767255+1052669062+1052029090+1051697993+1051366465
1060+1052495531+1055628438+1058320577+1057911381+1055977873+1056230007
1051+1058564154+1060079188+1060595394+1062185867+1063889822+1062506320
1043+1058746315+1057296220+1060221148+1064380642+1065616430+1063484293
1034+1061152088+1061704540+1065337616+1069858627+1073091495+1073741823
1025+1070821857+1064834067+1058874899+1055733002+1054917342+1053964540
1017+1051577679+1048619526+1046741824+1046772964+1048487418+1051282972
1008+1054908928+1059430658+1064311532+1067584385+1066702923+1061372220
1000+1054724322+1050466664+1049600807+1050170374+1049514149+1046666386
991+1042904941+1039986485+1038116766+1036181173+1033964248+1032802101
983+1033288894+1033724699+1031991402+1028551778+1026020153+1026067545
974+1028030178+1030039556+1030334624+1027846219+1022835467+1017025235
965+1012553198+1010147928+1008224345+1004921215+1000532528+997080030+995716162
955+995348532+994297062+992118180+989122343+985441516+981556665+978543497
945+976825375+975449065+973292764+970618675+968787790+968324082+968113587
935+967044929+965701988+965416629+966138081+966614806+966279681+965518101
925+964449228+962815390+961029308+960099734+960268807+960576387+960220695
915+959964750+961152786+963814146+966577697+968032539+967738334+966389208
905+964940767+963187047+960187111+956505852+954129635+953821623+954516322
895+955199587+955687531+955581600+954317981+952118172+949483061+946583734
885+944210466+943952506+946138148+948631730+949078611+947971838+947990392
875+950334391+952772095+951988653+947643474+942648040+939775106+939490682
865+940651247+941920403+942503418+942432726+942173976+942013317+942307953
855+943397754+944581619+944765146+944342717+944605855+945557794+945961885
845+945018431+942994670+940887703+939782729+939930011+940583718+940801261
835+939865575+937849437+936553599+938259424+942861699+947420537+949267028
825+948549675+947055425+946195752+946376331+946809403+946433503+945872135
815+947020258+950520939+955183550+959293998+961227794+960162948+957568181
805+956124199+956402942+956721166+956466946+956782941+957773355+958029588
795+957151433+956099820+954958528+952943684+950314974+948793180+950196746
785+954309495+958654386+961302513+962548226+962909743+962180812+961261594
776+961583485+962026626+959825738+955307028+951858558+951274392+952199220
766+952830490+953107003+954157898+956742093+959887657+960893461+957817007
756+951951904+946793654+945065823+947445348+953075936+959724410+963938272
746+963466365+960058599+957919918+959323340+962923982+965816117+966467955
736+965741397+965073810+964207665+962019075+959206765+958072018+959582090
726+962121266+963541804+963294488+962003254+960152376+957962707+955577285
716+953071046+951200320+951689846+955406631+960645785+964329705+964877698
706+963586175+962749013+962177216+958980089+952392024+946680604+946518939
696+951152496+955005776+953836797+948529395+942014108+935443591+929051279
686+924771039+925017780+928689258+931171765+929591720+925683066+921965346
676+919256162+919067529+922870612+928069351+928008295+920069809+913131949
666+912645732+912183822+907649291+902829257+902198778+903376746+900610750
656+894070437+889744315+890889490+894572116+896760562+897241099+897522574
646+896884041+894008661+890854036+890320571+892041066+893311445+893093686
636+892262852+890679642+887289783+881726364+873789101+865178785+860466336
626+860647778+860608728+857287188+854275458+856402920+862443712+865825876
616+862933166+857083524+852760999+850188454+846775726+843398955+846369406
606+858494066+873547466+883602411+888686589+893357902
##END=
