##TITLE=<SNM>
##JCAMP-DX=4.24
##DATA TYPE=INFRARED SPECTRUM
##DATE=2/5/2025
##SAMPLING PROCEDURE=Instrument type and / or accessory
##ORIGIN=Admin
##XUNITS=1/CM
##YUNITS=ABSORBANCE
##RESOLUTION=4
##FIRSTX=4497.3318
##LASTX=599.83466
##DELTAX=-1.4281778
##MAXY=1.7747922
##MINY=0.23356003
##XFACTOR=1
##YFACTOR=1.652904e-09
##NPOINTS=2730
##FIRSTY=0.25568593
##XYDATA=(X++(Y..Y))
4497+154688911+154756561+154814113+154075575+152801429+151968358+151918270
4487+152180971+152580125+153521432+154982498+156206646+156649578+156398308
4477+155610547+154389122+153216450+152744724+153074768+153671084+154010486
4467+154036846+154091153+154630349+155714924+156595036+156247899+154629916
4457+152951171+152298709+152404763+152203834+151356158+150680293+150943562
4447+151708668+151912302+151302933+150567162+150184668+150035674+150094228
4437+150580685+151283586+151512949+150933546+150016409+149571755+150013200
4427+151015674+151778030+151733730+151029116+150236874+149769160+149678206
4417+149851531+150197703+150640031+151058108+151356915+151585972+151799667
4407+151747812+151052907+149839541+148744751+148212894+148189599+148368559
4397+148316009+147703232+146866104+146674731+147471660+148588167+149179047
4387+149136423+148865320+148478597+147684165+146428113+145184817+144394081
4377+144008945+143836395+143873952+144090316+144313972+144514325+144887777
4367+145592229+146535483+147323208+147416866+146649137+145607519+145134179
4357+145375956+145677332+145506279+145099299+144962215+145081855+144947917
4347+144193323+142988161+141904965+141530061+142044862+143048508+143941818
4337+144503687+144827168+144787195+144113818+142980363+141930279+141311714
4327+141302835+142081112+143324804+144114467+143990176+143502051+143215225
4317+142933520+142407171+142054463+142432053+143401965+144178547+144067634
4307+143103131+142083834+141933588+142866339+144221171+145154634+145376118
4297+145208572+145167400+145535353+146150591+146623696+146792775+146821849
4287+146899911+146977333+146756634+146036576+145111073+144521438+144385805
4277+144401212+144419017+144496520+144563277+144551332+144642295+145006786
4267+145515781+145936076+146179439+146226156+146057167+145835467+145856310
4257+146088540+146155838+145993799+145960993+146127810+146177690+146066750
4247+146010099+145919262+145605472+145324029+145502240+146114783+146721484
4237+146957058+146751179+146237551+145688817+145447185+145613838+145848448
4227+145889900+146127566+146971194+147893217+148037946+147582258+147462762
4217+147923085+148392584+148610191+148846091+149067584+148796498+147928358
4207+147100769+147053349+147886402+149030937+149798991+149920380+149628190
4197+149302698+149099515+148987917+148994372+149128742+149149207+148763809
4187+148105136+147642822+147568249+147600306+147482037+147364263+147540212
4177+148055030+148794208+149737787+150839627+151807384+152265641+152043977
4167+151279079+150421531+150015940+150163139+150385110+150325610+150294779
4157+150772292+151614748+152133624+151907885+151235193+150720699+150649227
4147+150910486+151344150+151897715+152431971+152559751+151944684+150849002
4137+150090486+150209522+150867213+151278934+151097739+150691598+150605684
4127+150918635+151258867+151330916+151127471+150727622+150281039+150087547
4117+150308427+150722673+151031559+151228116+151451178+151670029+151732306
4107+151615866+151441820+151297433+151264312+151479088+151845247+151903774
4097+151376640+150672008+150474928+150937441+151507162+151542591+151031090
4087+150590322+150771869+151551173+152430745+152827591+152540405+152018266
4077+151935886+152432259+153027853+153221679+152897567+152268346+151668028
4067+151364109+151441207+151737715+151861096+151483939+150750999+150177897
4057+150110040+150498422+151099217+151623619+151840686+151775110+151706360
4047+151873717+152244834+152548122+152520590+152199921+151892505+151795790
4037+151818472+151804012+151711823+151590065+151551949+151701979+151983576
4027+152228986+152359110+152405574+152442771+152605873+153006325+153544493
4017+153934326+153917702+153418245+152642853+152077333+152171577+152950287
4007+153986614+154765702+155138568+155434229+155975912+156533084+156562491
3997+155966969+155210257+154689416+154448477+154482032+154787681+155136945
3987+155311172+155472525+155835312+156198713+156262792+156161787+156282265
3977+156729758+157256910+157550857+157428071+156918535+156291352+155879288
3967+155812828+156034871+156544083+157368824+158287340+158866148+158843160
3957+158314602+157633346+157305862+157827424+159294151+161040185+161982700
3947+161863989+161760928+162571172+163582923+163492754+162362760+161362801
3937+161272902+162271798+164255273+166506948+167704429+167200393+165958142
3927+165444622+166015082+166781910+167023912+167207136+168076466+169310062
3917+169505257+167657172+164646025+162511654+162316188+163496504+165410004
3907+168589788+173570959+179191809+183279454+184854813+183987503+180536038
3897+175408912+171371986+170799868+173324864+175745032+175511919+174446762
3887+175578415+178423809+180209654+180640380+181177628+180754926+177946313
3878+175124845+175274514+178190948+182101499+186081612+188873204+188619860
3868+186432481+185403078+185879600+185410146+182782665+179836193+179113882
3858+182214838+189842007+200382526+206442594+201626778+191809543+184186575
3848+180741656+181036631+183819208+187695051+191961845+196470767+200045955
3838+200504177+197877598+194745540+192454630+190477610+188644219+187676534
3828+187719879+188518278+191121868+196777156+203168205+205049358+202233785
3818+199332299+197181485+193498385+188906434+186427378+187706410+192207057
3808+197386020+200737777+203341926+207473763+211446303+211602048+208986125
3798+206874275+205350644+203482346+202173672+202614531+204628711+207586272
3788+211371315+215926214+220838131+226183550+232874082+240988393+248740152
3778+254982451+261486658+270625341+283024530+297797370+312730084+324848884
3768+332902505+337680529+340154825+341891177+344939304+349470205+353445954
3758+355913325+359141611+366259100+378727651+394914696+409417099+418607529
3748+426512148+438512706+453821098+465014729+469643967+474457475+484738954
3738+500479424+517333769+529773688+536311324+540068582+544688156+552087422
3728+562397461+573185698+579916943+580472636+577200717+573051950+569156904
3718+565993744+564640427+566288215+570485195+573729311+571801045+564963566
3708+556912000+551064348+549760686+552956193+557192371+558442050+556504552
3698+554380874+555136234+560321598+569211716+578800976+585064840+585714002
3688+582790897+580319811+579901292+581194821+583816712+587416457+591523034
3678+595181341+595983905+593025894+590911483+592894633+594595177+589326657
3668+578295155+568103107+562330748+560827059+561360323+561952365+562896034
3658+564977197+566981731+567950318+570281236+576950925+587073197+594375821
3648+592942161+584955108+576320587+570256607+566778242+564669348+563764877
3638+565024797+568472078+572784164+577120230+581844920+586890658+590005209
3628+588612838+584512392+582173757+584207320+590305413+597175599+600783530
3618+600878117+600768961+602213547+604686761+607985004+612258324+616000978
3608+616875951+615222502+613984183+615101411+617968442+620867855+623068054
3598+625180626+627891515+631066286+634429438+638605035+644113934+648622081
3588+647567815+640683349+633362046+629555349+629318936+630914616+632332012
3578+632386896+631680325+631833511+633866821+637935174+643384934+648389779
3568+650399939+648481229+644569668+640751504+637477421+634806488+633469434
3558+633958487+635456227+636342235+635652180+634199083+633791455+634915102
3548+635876837+634616016+630917284+626545518+623755080+623748228+625712808
3538+627184511+626217800+623286437+620489219+619610568+621025151+623561002
3528+625615661+626545518+626240229+624188023+620501408+616991417+615451775
3518+615615202+616007901+616014320+615996867+615966215+615336021+614065535
3508+613249557+614061929+616073243+616956438+614941591+611299113+608694603
3498+607882664+607281318+605487594+603131721+601881069+602477006+604061110
3488+605240939+605501152+605067560+603748609+601068913+597544137+594669750
3478+593382352+593202699+592985037+591931708+589782643+587026606+585013490
3468+584883131+586184737+587067679+586345062+584883455+584549607+586284444
3458+589290741+591703156+591929256+589752568+586580321+584337282+583653610
3448+583391774+582329214+580763031+579782797+579696685+579726471+578835450
3438+576804087+574566277+573185915+572779981+572919499+573362467+573647562
3428+572761446+570213262+567000266+564825057+564430411+564969408+565165325
3418+564960393+565367589+566688090+567827171+567673914+566236287+563961948
3408+561049625+558033087+555886510+554843855+554297177+554319354+555688321
3398+558015093+559508252+558991144+556855710+554094300+551661655+550506743
3388+550944807+552092615+552676183+552359751+551800596+551421383+550707853
3378+549020976+546688868+544937010+544964560+546993111+549797180+551553545
3368+551622060+550861255+550218403+549936987+549790977+549321144+548363051
3358+547535930+547416930+547665171+547803932+547949220+547937248+547068441
3348+545513690+544425166+544082302+543433429+541927540+540294357+539132918
3338+538297503+537801130+537985219+538807039+539976122+541363877+542242853
3328+541327925+538957339+537732867+539448484+542514028+543843798+542767534
3318+541320063+541034536+541381114+541214009+540219892+538749198+537293397
3308+536439880+536543662+537148001+537369809+536979490+536386474+535751772
3298+535111589+535055587+536161925+537963258+539403841+540051705+540157868
3288+540005007+539694201+539052611+537874801+536580732+535918913+535887215
3278+535847946+535667715+535944768+537143710+538877934+540055131+539893940
3268+538822870+537922798+537632042+537659953+537771055+537817141+537418707
3258+536344499+534811313+533159775+531742847+530888032+530646174+530840684
3248+531349823+532020622+532311126+531594422+530013635+528515139+527847874
3238+527820504+527684412+527209783+527035790+527603420+528258388+528046460
3228+526842326+525019825+522773577+520471831+518848421+518178560+517862309
3218+517237415+516427279+516154841+516814461+517853870+518214945+517331497
3208+515553639+513794173+512919307+513148544+513827276+513973285+513119660
3198+511595993+510119169+509119210+508354906+507350042+506196465+505378107
3188+504783504+503699776+502001721+500512419+499824672+499530454+498966936
3178+498098814+497339956+496917146+496605654+495933125+494666354+493050624
3168+491433020+489877547+488348363+487008677+486159812+485999054+486325041
3158+486410216+485615261+484261512+483254376+482737953+481886960+480231816
3148+478426697+477355229+476977207+476486278+475416109+474127557+473196545
3138+472751594+472521961+472196406+471611972+470814421+470013985+469341924
3128+468738270+468177492+467724031+467277493+466632550+465832402+464997781
3118+463900349+462339721+460824780+460176700+460417476+460634417+460012697
3108+458524766+456598194+454683451+453263999+452775667+453176083+453761130
3098+453706750+452857741+451813679+451169602+450883786+450568833+450155975
3088+449953387+450119302+450328164+450092617+449393908+448784340+448621923
3078+448420345+447404555+445643501+444084675+443433169+443530244+443877471
3068+444196138+444256324+443697313+442481675+441217897+440592138+440608149
3058+440601658+439980226+438906631+438113299+437952180+437912622+437285565
3048+436022832+434654370+433577674+432721019+431839266+431005835+430639243
3038+430856400+431069842+430660086+429766902+428893515+428028026+426754475
3028+425077154+423613528+422915324+422868084+422914639+422739312+422404093
3018+421872560+420973066+419872137+418891290+417860535+416427380+414881536
3008+413864916+413440087+413194551+413023119+413061992+413072738+412613543
2998+411738822+410955442+410472772+409975028+409189701+408225910+407270125
2988+406392087+405735640+405519529+405725760+405947857+405640837+404599985
2978+403221606+402087610+401262941+400330631+399139443+398078433+397522631
2968+397381851+397295450+397009814+396479760+395740699+394788267+393643489
2958+392484430+391576029+390985681+390501821+390035269+389894453+390294509
2948+390812663+390774871+389985253+388698035+387212088+385885168+385174522
2938+385204633+385430841+385087508+384010992+382798131+382066535+381831925
2928+381786092+381804194+381828427+381584225+380782094+379455714+377991511
2918+376898155+376409390+376232261+375887233+375295011+374793949+374642747
2908+374703509+374593128+374082005+373324013+372622238+372049380+371492929
2898+370952670+370504870+370061578+369471483+368813954+368308998+367978215
2888+367636397+367121596+366330319+365221133+364020929+363179636+362880478
2878+362866450+362893135+362946252+362889817+362413133+361512016+360601955
2868+360030035+359761239+359568856+359339727+359149075+359050089+358853847
2858+358300174+357432773+356582285+355987285+355592819+355195251+354668118
2848+354052276+353463335+352930720+352391687+351854889+351477876+351377303
2838+351340882+350885005+349801132+348530430+347723792+347537359+347577891
2828+347372418+346699203+345641258+344497670+343559735+342932461+342578491
2818+342403922+342274320+342095640+341862508+341501975+340806367+339752244
2808+338737104+338208276+338145278+338131358+337816009+337133418+336252747
2798+335482674+335039382+334801310+334450332+333867089+333233721+332772795
2788+332490910+332145594+331455034+330399217+329267132+328372505+327795464
2778+327415025+327077138+326673296+326120163+325360439+324446051+323575261
2768+322928190+322460268+321976841+321396193+320794162+320222314+319657353
2758+319102922+318588879+318083923+317493612+316725774+315789750+314909440
2748+314420026+314407260+314549952+314398858+313720775+312608487+311392706
2738+310412075+309792446+309469921+309345620+309316194+309254855+309066547
2728+308720222+308235315+307677639+307092917+306420964+305563552+304535069
2718+303506658+302714912+302248721+301908256+301443183+300920052+300611139
2708+300552919+300474380+300142406+299598919+299063799+298667241+298298143
2698+297781143+297154753+296611590+296201077+295778826+295248375+294701102
2688+294285288+294028104+293849261+293721499+293702441+293755053+293641679
2678+293120225+292239987+291347127+290733593+290346339+289937322+289428093
2668+288965958+288667702+288490085+288347213+288185247+287925774+287478298
2658+286873094+286297423+285945183+285874108+285986022+286069755+285921996
2648+285511934+284969060+284401395+283843646+283354521+283012847+282837214
2638+282770015+282672940+282379028+281868104+281307994+280842037+280477086
2628+280176954+279875993+279466092+278947650+278496045+278257379+278175485
2618+278076968+277877463+277677903+277608270+277570317+277291785+276697002
2608+276036950+275591133+275407657+275368747+275377059+275418709+275468797
2598+275392313+275045807+274481604+273926145+273557930+273413796+273452435
2588+273583011+273666545+273580468+273293841+272883977+272489438+272201999
2578+271990684+271774393+271559148+271432575+271418529+271415356+271318191
2568+271151916+271020439+270952843+270870932+270712860+270542853+270509497
2558+270683886+270952735+271109418+271038217+270766014+270386621+270006903
2548+269702425+269455537+269191447+268892992+268609592+268376767+268198574
2538+268052240+267856918+267531724+267128747+266811018+266673627+266667929
2528+266687727+266668290+266627451+266638396+266711869+266713780+266482560
2518+266048734+265678752+265626104+265826132+265948629+265817117+265605171
2508+265509899+265488118+265451805+265420595+265341983+265092822+264761083
2498+264601623+264647402+264651297+264452946+264164227+263947196+263795796
2488+263617134+263404485+263209866+263003437+262690504+262271282+261887183
2478+261677130+261621452+261571563+261439491+261275956+261135194+260996451
2468+260860286+260767232+260691324+260549715+260302375+259950839+259525324
2458+259135329+258916189+258896879+259013282+259194649+259334654+259285720
2448+259018313+258695499+258488926+258402957+258327284+258160576+257866647
2438+257518752+257282808+257254158+257325305+257296385+257104435+256879759
2428+256774264+256778501+256755999+256635323+256482426+256405815+256479938
2418+256712312+256994233+257162817+257186202+257193432+257277832+257383543
2408+257431900+257463652+257556327+257649562+257612906+257508078+257572014
2398+257876185+258224061+258481137+258844843+259756310+261704229+265148968
2388+270531620+278273462+288742978+302254581+319126181+339635552+363733707
2378+390766433+419604315+449058220+478054083+505542976+530547115+552298340
2368+570166636+583561223+592226215+596434193+596416668+592033327+583119914
2358+569592912+551540636+529305118+503610635+477523921+457017110+447263017
2348+450220488+464796166+486110409+505772501+517542379+521793018+522400422
2338+522368977+522508171+522492160+522015043+520707307+518031397+513828971
2328+508335974+501634696+493681792+484723592+475231226+465459752+455333803
2318+444767157+433892627+423010596+412433961+402263946+392255878+382061703
2308+371610234+361162264+351101368+341743040+333214068+325451780+318354089
2298+311869679+305915071+300345157+295083488+290198112+285794486+281891381
2288+278433174+275370388+272681154+270355951+268421104+266926916+265833109
2278+264930405+263973502+262912529+261920593+261155748+260566158+259986935
2268+259358797+258757992+258259905+257866665+257540894+257251165+257007684
2258+256850298+256753962+256583684+256223385+255721801+255241564+254885718
2248+254622945+254363976+254073094+253791010+253560403+253367785+253178017
2238+253002257+252906949+252942433+253061902+253156416+253201636+253293176
2228+253483179+253681494+253790794+253842973+253944556+254171539+254534128
2218+254960039+255301082+255446839+255478518+255648724+256119873+256757766
2208+257303831+257719339+258192454+258833538+259553902+260247725+260922058
2198+261605009+262243930+262768070+263202834+263655142+264195347+264799920
2188+265392503+265899551+266292701+266605130+266888782+267169604+267461190
2178+267760384+268003378+268107305+268087958+268051230+268040719+267981489
2168+267801096+267519139+267198741+266887286+266600136+266299661+265936567
2158+265549313+265240454+265052579+264963401+264974435+265150267+265608326
2148+266401694+267382181+268416740+269783309+271997283+275223279+279221061
2138+283780666+288819426+294196543+299830482+305885357+312556524+319771485
2128+327279257+334954712+342869536+351084167+359486386+367863506+376029961
2118+383830437+391097361+397704954+403704421+409369319+415052751+421057448
2108+427665185+435111726+443435765+452473479+461960508+471444002+480206754
2098+487600756+493533403+498467064+502835296+506522525+508929711+509317254
2088+507005448+501555760+492826904+480730065+465334117+447393736+428223438
2078+409003773+390559446+373483689+358140822+344767331+333580984+324596244
2068+317496929+311809854+307061472+302894386+299239053+296206702+293782279
2058+291831114+290265184+288995384+287937998+287170683+286872228+287137057
2048+287986896+289472952+291758596+295188208+300188419+307089743+316147363
2038+327576036+341364332+357157234+374329814+391991519+409064391+424681426
2028+438525940+450777263+461798416+471739302+480407287+487573710+493076984
2018+496532740+497463283+495798908+491822149+485727554+477590741+467580546
2008+455957831+443014578+429157587+414940964+400907528+387399387+374521980
1998+362357564+351282104+341842531+334100834+327368724+320899135+314591999
1988+308774421+303726916+299602219+296353613+293666687+291259194+289133820
1978+287346731+285786950+284335638+283020852+281993559+281474521+281510203
1968+281621739+281056616+279668536+278145014+277130486+276594428+276231857
1958+276013636+276032009+276140948+276080385+275817485+275575969+275595893
1948+276007524+276922615+278337577+279686873+279927217+278705647+276967546
1938+275811553+275442293+275489532+275672449+275925108+276260597+276694406
1928+277300295+278334584+279926874+281554215+282556482+283224090+284228791
1918+285148029+284981735+283988555+283459601+284024183+285216832+286256025
1908+286804362+287112464+287571208+288207785+288739516+289048898+289435323
1898+290333303+291714350+292943276+293646349+294326072+295354591+296018052
1888+295564157+294464887+293589625+293122569+292889798+292823411+292814504
1878+292703149+292478095+292320492+292746403+294564937+297940675+301254351
1868+301908562+299374929+295864614+293457463+292484027+292243935+292090786
1858+291820080+291539763+291392401+291406988+291665957+292410679+293903695
1848+296446595+300101856+303539762+304106886+301268433+297869942+296251742
1838+296252283+296604811+296887886+298062307+301088166+305083622+307579049
1828+307623584+306730147+305840678+304401861+302460559+301134017+300965669
1818+301396178+301809594+302435335+303932605+306200706+308005718+308251254
1808+307340833+306658892+307284326+309494153+312656160+315327490+316288468
1798+315956206+316202788+318621442+322821848+325799693+324703452+321039663
1788+318529379+318647838+320346543+322271095+324138527+325868532+326966504
1778+327664889+329487462+333873111+340278584+345370768+345955959+342985939
1768+339295898+336614507+336112508+338251873+341512324+343490895+344058633
1758+344649990+345414474+346255694+348671788+353948241+360471488+364491339
1748+364581743+362918990+361964864+362690799+364848952+367265730+368705953
1738+370007343+373794026+380521304+385454028+383896897+378801143+374433344
1728+371772255+370819426+371492425+373297292+376410796+382291877+391711869
1718+401846040+406560958+403772323+398016337+393624990+392291903+394404367
1708+399463627+405605245+410605330+414926035+421271070+429838951+436241756
1698+437675884+435841916+431545337+426145052+423146147+424192264+428236853
1688+434469379+443886018+455640895+462447794+459302736+452658073+449162615
1678+450495485+455420709+460805272+464428240+467838090+472766091+476907502
1668+477256315+476303740+478486557+484256319+490046996+492900901+494553881
1658+498877109+508494100+523974754+540325982+545472257+540975901+539772669
1648+544245044+547837288+544852628+539120982+536440024+538235515+544155541
1638+553606617+563637223+567719855+564089314+559765653+560052911+565011815
1628+572141024+579436508+586794052+593921422+599360760+603641257+609879337
1618+619435818+628655998+632594677+632894268+634061909+637240575+640985609
1608+643794798+645405263+646529343+647880532+649553598+651371843+653515788
1598+656313005+659606056+662823884+665720773+668699591+672158809+675800420
1588+678979159+681522654+683695087+685554080+687109084+689254110+693664605
1578+700861500+707916315+710500631+710400599+713270227+720718824+729433796
1568+735739778+740766259+747631396+757524178+771260944+791334487+817639872
1558+837959348+843231546+843119831+844471092+846831544+848638755+849546400
1548+850417262+852710353+857095245+863101708+869580060+872410742+865262745
1538+851915434+842203316+838104456+835785329+831683224+827021820+825359428
1528+827556021+831394740+834775778+837859172+840455965+840771134+839182018
1518+837879943+836561064+833877654+831044952+831025985+835911686+845664048
1508+856118076+857321777+845867141+833449903+827586817+827605208+830605591
1498+833133219+832420518+829155379+827004150+828371062+832316592+835159174
1488+833842531+829377728+824875423+822302863+821840855+822571875+823839187
1478+826099968+830022491+835014499+838681930+838114192+833531184+828956181
1468+827575854+829278850+831281726+831113251+830325688+832501583+838795376
1458+845988881+847759310+843063144+837507798+834329637+833570922+834265377
1448+834848187+834174793+832749535+831574970+830892200+831265499+833988215
1438+838667650+841450587+839414320+835525333+833301189+832355105+830951051
1428+829300919+828676711+828784172+828493740+828297354+829629575+831646659
1418+831109140+827226788+822708616+819420182+817167911+815355868+814189526
1408+814210801+815002475+815127966+814107235+813500552+814800968+817635905
1398+820694923+823056168+823760359+821945503+818761355+816798219+816984291
1388+817498947+816034023+813352416+812802204+816124679+821839701+827649634
1378+833167261+839069004+844400125+847015742+847007159+846868398+847985915
1368+849772788+851748978+854267881+857124742+859013595+858875266+857095606
1358+855017652+853784669+853624849+854010336+854437798+854683154+854484605
1348+853724087+852904936+852883949+854149458+856582536+859644510+862580200
1338+864737704+865875342+866119472+865929721+866071728+867099670+868898732
1328+871076285+873531143+876164718+878548682+880658441+883260066+886773590
1318+890443834+893332862+895510054+897716889+900386596+903415034+906580141
1308+909707313+912454118+914448339+915779623+916851487+917714200+918097019
1298+918129834+918476304+919483764+920457327+920109054+917856639+914478774
1288+911390548+909487127+908665091+908089420+906865308+904748481+902280929
1278+900177661+898710934+897802208+897444271+897679241+898344919+899204170
1268+900105828+900811462+901202358+901847986+903575576+906249899+908785317
1258+910395709+911018259+910944551+910822810+911466419+913046665+914719082
1248+915383389+914833610+913894377+913238147+912477269+910936906+908830825
1238+906956686+905720386+905039995+904781513+904866255+905122862+905303598
1228+905295592+905121636+904736221+904145405+903563964+903048947+902512654
1218+902517559+904076889+907156461+910407249+912622377+913459414+913239517
1208+913038516+914158268+916819898+919977288+922658175+924965906+927530678
1198+930295441+932416811+933671286+935102241+937537627+940427448+943021861
1188+945612308+948663175+951889586+954968653+958198308+961594636+964165970
1178+964971131+964248838+962929310+962018853+962612842+965107728+968219033
1168+969991554+970028913+969725211+970403726+972112420+974124815+976078648
1158+978268174+980818304+983393677+986049537+989230151+992384368+993943627
1148+993309538+991816414+991454294+993404593+997592162+1002728989+1006662619
1138+1007626662+1005866546+1003476813+1002418363+1003368415+1006003648
1130+1009374445+1012316626+1014067655+1014565651+1014751940+1016285091
1121+1019535734+1022506475+1023406619+1023095127+1023483644+1025432573
1113+1028770771+1032204674+1033857257+1033812975+1034264237+1036090704
1104+1037543512+1037004334+1035547632+1035962905+1039645698+1044530967
1095+1046634884+1044662876+1041848782+1041675403+1043368518+1043341617
1087+1040391070+1037033543+1036038849+1038067328+1042136545+1046573365
1078+1049910481+1052027668+1053424150+1053860194+1053816056+1055542924
1070+1060101411+1065125873+1067724686+1067685091+1066299861+1064214551
1061+1061532294+1058715748+1056661378+1056455977+1058619395+1062072049
1053+1064922131+1066476269+1066936763+1065451212+1061092788+1055815325
1044+1053543366+1056278559+1062766431+1069757420+1073741823+1073381145
1035+1071108392+1070608232+1072320460+1073455502+1072382484+1070772597
1027+1070808152+1072226919+1073258107+1073262795+1072901900+1072138138
1018+1070101798+1066880869+1064083291+1063113694+1063454322+1063531203
1010+1062795135+1062149579+1062446502+1063252023+1063370806+1062294038
1001+1060564213+1058879896+1057806085+1058108056+1060147064+1062633512
993+1063089966+1060360687+1056041497+1052620937+1050794974+1049433977
984+1047842191+1046810787+1046946447+1047164325+1045811477+1042764071
975+1039436475+1036886705+1034657585+1031655183+1027835504+1024204422
967+1021304721+1018838395+1016522369+1014598106+1013454120+1012865973
958+1011858224+1009587563+1006514410+1004077437+1002882030+1002173151
950+1001225840+1000161693+999003644+996720290+992238611+986504405+982241687
940+981279951+982791538+984326492+984189462+982484518+980436639+979171418
930+978790907+978539277+977857011+976950449+976245320+975726914+975159465
920+974525160+974048006+973965500+974192753+974335265+974315648+974364979
910+973973361+972081552+969082251+966838563+966018978+965236536+963439855
900+961631634+961367887+962675011+963923427+963307369+960700623+958036252
890+957453369+959258777+961779122+963056531+962434270+960708412+959182473
880+958624472+959093476+960063793+960467527+959190046+956327703+953520893
870+952391549+953315420+955560334+957672329+958243240+957397764+956586257
860+956275343+955385801+953304818+950893881+949383016+949422827+950855585
850+952507952+953128699+953046553+953787741+955690873+956888228+955631518
840+953180554+952603080+954786402+957205345+956816179+953257435+948845209
830+946316642+946732204+948952381+951288240+953375064+955470183+956808607
820+956455429+955456985+956219305+959775597+964706951+968154268+968078613
810+965581275+963993529+964772221+966128602+966642249+967198447+967843426
800+966566955+963041097+960340378+961528862+966228346+970829962+971997603
790+970090216+968075440+967639107+967954204+967719450+967088462+966921863
780+966936143+966391268+966065929+967304898+969317798+970021412+969381481
770+969233849+970200345+970803205+969605129+966934484+964249703+962662534
760+962584715+964309924+967740365+971846365+975322459+977244558+977005044
750+975178000+974031130+975047605+976647468+976279073+974022547+972140403
740+972049097+973268449+974612642+975345393+975406984+975526129+976504091
730+977992599+978753332+978000460+976095597+974631899+975402369+978160136
720+980187317+979682324+978232185+977781861+977872301+977759431+978020293
710+978494417+977779914+975424077+972374003+969570871+967369879+965768934
700+964441185+962841105+960306914+956530147+952493311+949841779+948638510
690+947683410+947652398+950243349+953682084+953385378+947983362+940921478
680+935820207+933955660+935479435+939016182+940580129+936634959+927262026
670+915385120+907697658+910809757+920095495+926732585+928755510+928969350
660+928505539+925285331+919294878+914364174+912786019+912319612+910017218
650+906298148+903573484+902837272+902883862+902282804+901357995+901232432
640+901929050+902338698+900639092+895900230+890415130+888130621+889984278
630+891783628+890197613+888510988+888941840+886881989+878910225+868621426
620+861333082+858826585+860807319+866025570+870427771+869177912+862535990
610+856863303+857546290+863467290+870667286+877592428+882674587+882090045
600+874057195
##END=
