##TITLE=<SNM>
##JCAMP-DX=4.24
##DATA TYPE=INFRARED SPECTRUM
##DATE=2/5/2025
##SAMPLING PROCEDURE=Instrument type and / or accessory
##ORIGIN=Admin
##XUNITS=1/CM
##YUNITS=ABSORBANCE
##RESOLUTION=4
##FIRSTX=4497.3318
##LASTX=599.83466
##DELTAX=-1.4281778
##MAXY=1.698784
##MINY=0.26413316
##XFACTOR=1
##YFACTOR=1.5821159e-09
##NPOINTS=2730
##FIRSTY=0.28761974
##XYDATA=(X++(Y..Y))
4497+181794357+182338049+182974231+183351687+183674667+184248950+184666793
4487+184328669+183517585+183164466+183699475+184595608+184896981+184124419
4477+182797672+181885848+181702866+181806262+181906663+182157026+182557632
4467+182713829+182404130+182015560+182177878+183066213+184147287+184770585
4457+184946409+185159606+185462750+185303954+184340517+182884831+181435342
4447+180210316+179202009+178372408+177809464+177797390+178516850+179546631
4437+180038503+179660332+178905100+178318026+178084221+178329836+178987700
4427+179402284+178894551+177718726+176731102+176252153+175927836+175515098
4417+175185959+175113117+175215477+175382919+175680205+176132425+176406635
4407+176005557+174943716+173940589+173586773+173613390+173432649+173046999
4397+172852073+172835798+172632001+172314597+172474825+173325278+174200012
4387+174289525+173659503+173056568+172825608+172617195+172159399+171678528
4377+171475070+171566448+171732628+171651535+171178180+170577562+170207264
4367+170117054+170312601+170957052+171797842+171981936+171086104+169825005
4357+169188747+169387101+170052235+170917457+171863395+172607230+172698966
4347+171949781+170834536+170157139+170174525+170416637+170445401+170242847
4337+169827190+169235030+168919604+169425114+170547065+171346545+171150452
4327+170288320+169718519+170003410+170779325+171220827+170831974+169739202
4317+168450996+167462374+166976209+166949310+167344868+168176823+169327821
4307+170496431+171378643+171872229+172075499+172053554+171727580+171131313
4297+170580576+170369488+170400833+170326691+170041009+169878200+170177502
4287+170735246+170997589+170698175+169992240+169209995+168772958+168956412
4277+169515136+169908509+169889616+169608812+169393958+169624485+170424587
4267+171352215+171822104+171842146+171861775+172040349+172212369+172374198
4257+172669166+173000942+173061296+172741387+172346639+172448453+173443989
4247+175024168+176230791+176345038+175494039+174220130+172894702+171723605
4237+170920056+170690640+171074463+171742273+172170117+172227099+172240869
4227+172375573+172514853+172720101+173120199+173494227+173551548+173368471
4217+173146138+172975249+173061484+173600694+174280634+174465708+173959859
4207+173216683+172909357+173426244+174484149+175184660+174810350+173617986
4197+172636559+172663477+173556973+174509824+174921978+174820917+174374838
4187+173513780+172429409+171909602+172523745+173768211+174567654+174490855
4177+174057039+173907228+174126416+174508317+175012226+175595080+175934203
4167+175799179+175480231+175403094+175533672+175563660+175475239+175527625
4157+175802495+176128601+176409498+176726619+177102154+177382128+177415545
4147+177258859+177149340+177217568+177261477+176997457+176511463+176165465
4137+176090136+176094600+176055136+176101626+176393072+176932583+177648144
4127+178472395+179245070+179674328+179564545+179012075+178260855+177478875
4117+176750843+176152580+175754535+175590277+175583665+175539643+175326728
4107+175040048+174916213+175192251+176010681+177172642+178051482+178204344
4097+178010549+178191008+178771376+179078645+178713452+178005030+177520166
4087+177508411+177801364+178050597+178109764+178173621+178470229+178973610
4077+179470963+179701792+179505887+179027597+178587677+178285155+178059394
4067+178052951+178414904+178891273+179066552+178843088+178448717+178233372
4057+178499445+179242847+180111403+180744081+180998946+180879990+180539662
4047+180316142+180455027+180743987+180674516+180113757+179575904+179592142
4037+180022605+180332417+180372276+180471698+180876223+181441559+181846404
4027+181960480+181993728+182224745+182588883+182754969+182656018+182653663
4017+183010172+183368584+183047055+181881892+180500029+179692091+179795977
4007+180653795+181792398+182676079+183109161+183308758+183428071+183317027
3997+182903856+182411796+182062596+181944488+182221279+182999021+183919378
3987+184378700+184238891+183909282+183769812+183907925+184296815+184861304
3977+185452051+185937612+186196452+186112834+185862377+185948368+186565224
3967+187252925+187558047+187599564+187614162+187482341+187071129+186525572
3957+185954679+185367266+185078344+185640722+187185319+189116206+190491703
3947+190739579+190176409+189651309+189555259+189490422+189036940+188315765
3937+187670956+187463089+188124739+189729313+191464352+192247443+191989942
3927+191556615+191545690+191669694+191501442+191458682+192348410+194026787
3917+195100006+194287227+191882646+189442821+188338370+188855747+190544823
3907+193201368+196900221+200973271+203920659+204859721+203870647+201050427
3897+197059525+193874640+193408481+195552113+197743987+197678566+196726525
3887+197666962+200376307+202301148+202869178+203628573+204006707+202071788
3878+198901992+197405938+198534369+201377758+204908208+207697196+207939044
3868+206248555+205140299+205214158+204734945+202641551+200128507+199002732
3858+200618495+206043269+214742706+221021607+218662555+211463843+205241058
3848+201815699+201209393+202910883+205958390+209467422+213181646+216538833
3838+217787444+216155971+213494058+211603595+210275115+208620152+206933506
3828+206112476+206445383+208268842+212283573+217419915+220180760+219780380
3818+219211936+218900748+216356189+211718764+208053724+207558461+210443329
3808+214754310+217608342+219042930+221339123+223994218+223809521+220968618
3798+218564998+217177012+215577863+213827491+213042120+213554807+214959068
3788+217090625+219829978+222510031+224834518+227743271+231863432+235927930
3778+238338652+239539097+241295120+245050804+251272761+258829187+265535669
3768+270574134+274752633+278755157+283570366+290938743+301263286+312078061
3758+320629760+327738769+336678887+349929701+367443028+385204627+398206982
3748+407152035+416124589+426098443+433650537+437733571+442192214+450090607
3738+461916252+476219528+489911807+499570103+503986062+504912880+505166351
3728+506566016+508837758+510309004+510642004+511388176+513577035+516946561
3718+521171738+526510145+533834876+544155369+556422666+566202160+570069246
3708+569644284+569322924+572922261+580896869+588989585+592343476+591455951
3698+590170966+590867898+593837062+598549289+603847912+607593876+608148852
3688+606757664+605302580+603273458+600096146+597255978+596794848+599658637
3678+605673443+612220847+613823838+609275794+603404602+599038712+595280692
3668+591256882+587709045+586032326+587456290+591757230+597046209+601506246
3658+604365025+605705579+607463637+612867107+622882854+633525799+637084862
3648+631350728+623751090+620856972+623037280+626894985+629019084+629254885
3638+630224463+633438320+637983689+643284798+650476616+658967885+663388402
3628+660096598+655121519+654914463+659954718+667574512+673833445+675660333
3618+674694296+675402417+678954171+682982954+685673557+687247049+687701850
3608+686666191+685123290+684397161+684877505+686927875+691175619+696933488
3598+701373219+701648692+698451676+695637126+696110236+700088762+705877599
3588+710374067+710801441+708008366+705660446+706149982+709291919+713777160
3578+718184868+720811575+720522842+718281992+716484791+716551173+718137625
3568+720262665+722018123+722771302+722071696+719725434+716212182+712920453
3558+711710440+713419634+716458495+717782359+716540775+715657470+717823424
3548+721455801+722267676+718747115+714197753+712074597+712587792+714788707
3538+718592275+722938424+724706992+722377232+718347168+715404150+713975250
3528+714024377+716556296+721602278+727128376+731076687+732446816+730662952
3518+726156311+721079739+717566110+715733797+714543676+713649897+713689003
3508+715405732+718583158+721373973+721569426+719243809+716400627+714547217
3498+714139132+715012717+716516136+718056325+719585136+721356944+723790987
3488+726745834+728577318+727813064+725756289+724965511+725575981+725408181
3478+723357736+720675271+719272366+720040238+722199787+724336808+726026411
3468+727269654+726675610+722456272+715672238+710345360+709563398+712387441
3458+715325110+716566996+717451054+719596739+722266169+723648428+723852923
3448+724881951+727229493+728242020+725577262+720774881+717458212+717239552
3438+718541717+719414849+720107147+721658261+723142090+722398555+719201012
3428+715456366+712994897+712737508+714259011+715648353+715756628+715729729
3418+716599169+717198714+716097804+714354326+714593405+717597531+720763277
3408+720745194+717769399+715480854+716234937+718564472+719760697+719252776
3398+718534634+719037356+720934920+723185490+724539644+724739015+724492100
3388+724220320+723339351+721359129+719252173+718463656+718712907+718173566
3378+716400778+715300320+716098331+717345642+716938537+714868199+712945996
3368+712612883+713981730+716399120+719269578+722136344+724389853+725578920
3358+725243546+723490951+721501462+719859403+717929288+716108202+716640234
3348+720167049+723688061+724221751+722655718+721880538+722889975+724152130
3338+723639688+721127208+718612167+718296459+720115812+721507264+720000755
3328+716034285+712571441+712102701+714644943+718439921+721965982+724953380
3318+727433084+728527513+727187072+724110161+721950159+722786748+725527608
3308+726712003+724482154+720912843+719251796+720000077+721342553+722464334
3298+724433630+727645264+730140262+729868557+727805830+726716373+727405506
3288+728232526+727841997+726796167+726572685+727925407+730291938+732261535
3278+732927762+732965813+733826815+735754744+736917515+735180366+730829998
3268+726042762+722224275+719502856+718326221+719654833+722986345+725855296
3258+726500350+725887620+725820485+726536216+727107128+726969015+726457176
3248+726421536+727401739+728833652+729535896+729170458+728264850+726930964
3238+725054422+723318102+722346791+721374274+719263400+716316162+713911656
3228+713129469+714569068+718246126+722586398+724948332+724486826+722984160
3218+722230228+722240626+721919417+720492853+718654588+718156311+719349221
3208+720233807+719376573+718097766+718040878+718645998+718406693+716955942
3198+715201539+714587453+715991337+718526270+720076857+719467668+717440279
3188+715203573+712932283+710197527+707476484+706310398+707588451+710297438
3178+712329047+712305915+710533504+708451186+707470607+708007913+709105282
3168+709269842+708134574+707093641+707785411+709933507+711324356+710074559
3158+706621736+703176071+701331627+700648221+699746983+698251853+696834481
3148+695785260+694669130+693432594+692869819+693628951+695228363+696357604
3138+696289715+695676232+695425699+695321418+694516249+693113269+692222505
3128+692375084+692748660+691905742+689168951+685789216+684424663+686621435
3118+690932019+693988662+693439902+689754932+685512764+683072619+682483472
3108+681851679+680004221+677650726+675736208+674433517+673961386+674683898
3098+675992166+676560214+675978076+674908963+673760960+672418033+671147288
3088+670809654+671908153+673844295+675311622+675365496+674017144+671819694
3078+669421517+667660559+667225500+667669902+667400533+665521052+663242980
3068+662413926+663210204+664360843+665206097+666041330+666529661+665651103
3058+663563134+661838644+661444725+661667755+661237970+659813365+658243263
3048+657561288+657644698+657148155+655150076+652441089+650554224+650033569
3038+650450997+651522747+652923844+653404338+651880048+649235031+647167180
3028+645830431+644419389+642977002+641837137+640491195+638579014+636955339
3018+636670373+637607326+638678774+639033287+638808147+638585343+638342044
3008+637537779+636004749+634043817+631949820+630039672+628846311+628714452
2998+629310379+629954868+630314052+630416752+630196585+629387724+627784130
2988+625428223+622732573+620433743+618993578+618139810+617460962+617047000
2978+617063162+617133274+616635826+615454256+614122442+613239514+612883080
2968+612865600+613319571+614161736+614296873+612687100+609933507+607503722
2958+605912334+604690905+603559894+602701567+602237423+602123836+602390907
2948+602884550+602827926+601426264+599098161+597250289+596542357+596326598
2938+595878428+595161454+594328406+593323339+592010437+590354213+588723456
2928+587808279+587689794+587506811+586618873+585328688+584077723+582975382
2918+582310435+582480797+583225273+583600695+582813873+580827473+578261836
2908+575957505+574595289+574350747+574667133+574549326+573456667+571853186
2898+570631267+570204647+570211089+569761600+568233128+566034850+564173264
2888+563006689+561957129+560493757+558826833+557526628+556839529+556470701
2878+555801573+554455141+552910130+552237762+552900373+554089289+554628253
2868+554203290+553167783+551622809+549530885+547370507+545870177+545182287
2858+544745080+544000755+543031064+542257993+541620549+540530037+538834330
2848+537286041+536649991+536791947+536975947+536608776+535488991+533874547
2838+532383636+531312639+530200013+528576037+526780456+525413832+524418974
2828+523332908+522065253+520908736+520064575+519491817+519002507+518399949
2818+517685876+517074954+516659523+516164147+515206851+513720084+511983010
2808+510315860+508863490+507668809+506836176+506481664+506500840+506553169
2798+506379642+505981692+505360560+504249064+502320683+499620436+496701115
2788+494369056+493212087+493182814+493576131+493548102+492838964+491955094
2778+491458136+491176598+490431482+488998777+487379096+486004296+484690792
2768+483134403+481551794+480442935+479866334+479354608+478606138+477891463
2758+477504061+477134027+476177408+474551586+472887224+471803757+471191781
2748+470490592+469560496+468773072+468251701+467705315+467042140+466404771
2738+465639499+464463957+463034379+461715977+460509844+459236801+458035151
2728+457233373+456869969+456583911+455953097+454866541+453528812+452181552
2718+451013545+450224162+449794263+449283743+448278525+446935786+445716504
2708+444780983+444011115+443408595+443081208+442896567+442474166+441624956
2698+440574907+439579145+438581763+437534727+436705070+436235803+435730142
2688+434738148+433408708+432288433+431658034+431281784+430710232+429767063
2678+428701190+427787972+426940457+425932941+424835950+423911354+423191781
2668+422451449+421556164+420630739+419851189+419192459+418458758+417533220
2658+416511727+415564678+414761619+414086011+413533107+413108144+412739467
2648+412243187+411465030+410504343+409663196+409082262+408607796+408097765
2638+407590673+407069152+406365251+405452070+404582366+403981579+403574549
2628+403158251+402717088+402358997+402000189+401385915+400449490+399431990
2618+398649011+398253133+398082846+397707688+396868990+395810350+394898677
2608+394160681+393500029+393030046+392854561+392816359+392673951+392293030
2598+391604989+390604066+389453841+388457929+387839397+387551191+387323301
2588+386951722+386534143+386320569+386320607+386189125+385588413+384573324
2578+383494491+382616574+382003241+381645225+381437001+381147099+380696556
2568+380306931+380099310+379820560+379268673+378640874+378129374+377564565
2558+376795940+376079418+375760997+375805415+375855144+375593762+374926028
2548+374000265+373193288+372868952+372996102+373173584+373106336+372838700
2538+372516173+372182645+371792606+371267016+370657752+370257314+370264435
2528+370407747+370245447+369758887+369316557+369116998+368951006+368547593
2518+367985497+367584231+367427168+367250364+366876788+366478084+366263003
2508+366143275+365885660+365463975+365077252+364829922+364584928+364221901
2498+363854579+363642738+363555636+363470267+363345114+363167556+362892950
2488+362545257+362223935+361953700+361674799+361373520+361060110+360691846
2478+360292276+360026184+359983650+360030517+359996234+359868971+359731084
2468+359631662+359578052+359559102+359489292+359165446+358427375+357409235
2458+356499634+356024075+356062201+356468854+356910695+357037656+356787162
2448+356394033+356051426+355735303+355370355+354989999+354684123+354504531
2438+354477557+354616687+354834819+354943999+354870836+354753594+354689511
2428+354560100+354258746+353909244+353709986+353719706+353904987+354227514
2418+354567485+354700022+354480119+354002638+353520637+353241925+353204138
2408+353302994+353431613+353559592+353640666+353554204+353274400+353012603
2398+353016785+353255450+353444196+353390134+353162960+352882402+352503175
2388+351893233+350950855+349519921+347321492+344058622+339557256+333880198
2378+327371146+320476238+313462694+306408971+299458060+292920414+287108106
2368+282209619+278365194+275683671+274085069+273350068+273493022+274971821
2358+278457194+284440109+293113946+304465934+317662442+330123044+338439054
2348+340621547+337445666+332102022+327707839+324720705+321909885+318693127
2338+315269596+311719198+307915065+304109934+301134742+299702225+299686195
2328+300389399+301249987+302038692+302828697+304052857+306228494+309379717
2318+312851415+315816453+317997401+319840150+321973064+324634205+327637163
2308+330641288+333330270+335470191+336942303+337805678+338345095+338934429
2298+339779683+340844012+341982445+343045342+343910035+344527701+344956017
2288+345338935+345812271+346363291+346820315+347039314+347019723+346824308
2278+346538212+346296646+346182155+346123647+346016276+345868104+345755836
2268+345736434+345825344+345981917+346146101+346322603+346547856+346791833
2258+347004315+347211446+347455310+347696009+347869687+347980109+348064047
2248+348131295+348195454+348301318+348459473+348615971+348755176+348949537
2238+349237178+349567805+349925331+350338276+350723191+350921281+350936275
2228+350966490+351174036+351519620+351809634+351894815+351859477+351956337
2218+352319966+352841036+353323715+353640855+353754366+353734625+353764199
2208+354004296+354421535+354795977+354938611+354868274+354746813+354723041
2198+354906777+355360861+355979657+356493643+356759584+356950742+357319081
2188+357876543+358445534+358890954+359144650+359157196+359031591+359066929
2178+359464352+360103868+360741162+361260912+361642964+361885962+362074483
2168+362350934+362717879+362995876+363069340+363060600+363145479+363322698
2158+363523048+363816755+364292125+364818959+365153052+365250703+365349070
2148+365720158+366358658+366927761+367097935+366925614+366772770+366887525
2138+367195096+367487484+367718011+368023208+368434947+368736679+368773373
2128+368718746+368802721+368973083+369060261+369071374+369122686+369265697
2118+369524706+369936332+370415922+370721270+370709704+370559083+370571177
2108+370812177+371115340+371337278+371412776+371292446+371051935+370938461
2098+371129016+371536611+371931472+372170815+372288961+372401003+372524951
2088+372566015+372502120+372433667+372395917+372280823+372011944+371692770
2078+371538532+371684255+372035754+372341667+372460716+372485581+372571629
2068+372759773+372976285+373087160+372979525+372673612+372293670+371942586
2058+371714846+371712134+371861963+371895606+371701435+371488614+371446344
2048+371506057+371558838+371637954+371787746+371954642+372048337+372001621
2038+371818450+371622432+371564716+371662442+371825985+372008252+372202310
2028+372359260+372447041+372527889+372682729+372934882+373296929+373763672
2018+374181175+374270237+373942850+373518866+373454481+373868820+374439619
2008+374759848+374713961+374511614+374440561+374611149+374913257+375178256
1998+375332568+375424568+375564452+375760545+375780136+375365119+374615707
1988+373883814+373315803+372786672+372218247+371698232+371302203+370990338
1978+370719386+370535914+370447907+370290430+369944055+369646355+369759829
1968+370201896+370438489+370143125+369545087+369022398+368682692+368432009
1958+368195190+367945110+367650989+367296552+366925915+366659974+366639404
1948+366944752+367624052+368653720+369614822+369688512+368540585+366888618
1938+365641608+365002582+364689473+364480947+364299660+364103454+363887582
1928+363751315+363932188+364534256+365171926+365389795+365425962+365723097
1918+365859515+365040708+363516757+362372597+362200351+362654926+362923843
1908+362458155+361455612+360581951+360215346+360188974+360221675+360307534
1898+360578222+360918719+360996252+360872456+361160888+362066835+362752841
1888+362376892+361275266+360300790+359741708+359438169+359282801+359264491
1878+359346056+359430106+359474675+359850624+361343644+364213048+367136174
1868+367883777+365918512+363067984+361169025+360590127+360722400+360911411
1858+360858931+360598151+360348033+360326823+360657789+361373708+362498315
1848+364258068+366866051+369482436+370071017+367993182+365298511+363907135
1838+363820108+364032702+364142446+364911900+367166765+370257465+372248951
1828+372367812+371711946+370893478+369443179+367558236+366325241+366245183
1818+366822425+367439638+368093546+369177690+370685856+371873266+372016502
1808+371350916+370836854+371346169+373223615+376002714+378380923+379187410
1798+378762222+378823479+380842844+384496884+387169289+386369922+383316482
1788+381144650+381144123+382519262+384194060+385864073+387336976+388208150
1778+388799067+390393506+394019554+399069491+402882778+403145103+400790741
1768+398021739+396058999+395787256+397687194+400602521+402479214+403127320
1758+403838191+404819524+405816566+407834122+411930907+417035584+420410610
1748+420904968+419956714+419362708+420015334+421926009+424257239+425918023
1738+427336148+430553621+436276754+441245052+441592745+438921470+436369922
1728+434910544+434874038+436496997+439387007+443400419+449576583+458762410
1718+468958353+475087311+474939968+472012735+470085785+470702433+474168819
1708+480193420+487494454+494143351+500103002+507716052+517817923+526830337
1698+531583063+533436737+533517925+532548196+533118354+537082978+543837627
1688+552289790+563147627+576537082+587024697+589278394+587571045+587829828
1678+592042234+599530395+607697668+614172812+619928082+626902030+633569350
1668+636685217+637475768+639984179+645421216+651378079+655309739+657974270
1658+662053838+669849419+682482418+696652440+702428619+699666210+698623620
1648+701909999+704645810+702115397+696847516+693268561+692753482+695526063
1638+701255375+706505775+704644001+695101326+685099857+678739957+675309437
1628+672767572+670195718+667825194+664912994+660090344+654553621+651069529
1618+649833596+647639838+642192780+635734099+630909151+627857669+625412137
1608+622717428+619899073+617419596+615309399+613239552+610976135+608665249
1598+606735398+605398574+604345623+603137681+601665193+600047848+598404997
1588+596835046+595460171+594422026+593693298+593059734+592796769+593952570
1578+596901503+599341686+597972537+594357490+592921056+594659749+596621246
1568+595940514+593691602+592316840+593206361+597902652+608037450+620763239
1558+625199617+618907456+611401776+607049524+605670844+606286663+607903293
1548+610438715+615051483+622633151+632684538+643805076+652740145+653701963
1538+647735681+643474449+644884060+649691715+653402605+655187675+658304747
1528+664520732+672210976+679264756+685885963+692383749+696904932+698749752
1518+699901070+701051182+701389269+701681242+704106544+709990169+719133274
1508+729094884+733325675+727985083+720364234+717133387+719020855+724174131
1498+729366212+731338070+730183437+729551267+732185207+737450903+741913917
1488+742684501+740762524+739016635+738903688+740109257+741809861+743969109
1478+747305896+752231320+758256223+763611658+765307742+762522578+758966755
1468+758388082+761020516+764126436+765262835+765838795+769165335+776249479
1458+783690774+784913823+779239891+772983595+769485111+768420293+768409519
1448+767739373+765303673+761717108+758617065+757284987+758293671+761423627
1438+765089459+766260066+763583252+759963383+758464862+759038411+759720084
1428+759490273+759284422+759965267+761204666+762737320+764814816+766430352
1418+765218832+761172719+757005672+754345134+752803137+751476785+750299397
1408+749993183+750839643+752004372+752648899+753268637+754820881+757180781
1398+759399704+760880142+761402756+760815343+759700117+759264530+759959239
1388+760840961+760759209+760466783+762336318+767597568+775014375+782305199
1378+788438678+794127453+800119956+805713265+809665570+812100064+814198130
1368+816789348+820172549+824158233+827359393+827576999+824242397+819395636
1358+815369339+812860703+811141261+809298324+807183456+805206701+803661991
1348+802586398+801898395+801467405+801354006+801961386+803619118+805936522
1338+807783452+808309230+807929250+807826551+808595553+809925521+811547311
1328+813710704+816547481+819720235+822987250+826573438+830548347+834158798
1318+836452392+837570933+838623394+840264248+842353724+844907117+848151603
1308+851519734+853748830+854328482+854163093+854567637+856040238+858216138
1298+860681676+863142090+864707068+864135704+861329292+857535444+853835781
1288+850384390+847028013+843760697+840578524+837455575+834467725+831778479
1278+829541246+827801611+826502008+825645226+825301564+825435985+826001321
1268+826999908+828158082+828957450+829314900+829760057+830670035+831883665
1258+833240080+834735060+836005729+836642646+837224181+838909867+841727205
1248+844398669+846125118+847368737+848714904+850184492+851743744+853501839
1238+855326316+856792588+857625786+858169046+859264606+861374727+863990584
1228+866304823+868154390+869863057+871620399+873547425+876125984+879952006
1218+884647845+888369584+889446308+888570010+888142410+889569200+892200956
1208+894688344+896633529+898695276+901374576+904133745+906206343+908060959
1198+911012039+915392547+920023586+923517399+925616293+927224973+929279261
1188+931768307+934207398+936682204+939467443+942030481+943735682+945195097
1178+947537140+950669357+953369377+954985065+956036848+957068588+958144256
1168+959516947+961646131+964438679+967146912+969127058+970386802+971401363
1158+972461208+973431389+974381377+975627407+976753483+976737132+975697104
1148+975662368+978536970+983749546+988649051+991107204+991514686+992158158
1138+995173284+1000876828+1007181271+1010910847+1010715545+1008476579
1130+1007182326+1008018388+1009792231+1010342120+1008786410+1007038336
1121+1007808920+1011139378+1014659034+1017075897+1019333851+1022139510
1113+1024617254+1025825685+1026023549+1026011569+1026048113+1026171683
1104+1026945809+1029028955+1032279770+1035515515+1037024434+1035873644
1095+1033467858+1032786561+1035152338+1038831280+1041588866+1043391417
1087+1045438020+1047751807+1049162472+1049081021+1048213464+1047576848
1078+1047198903+1046645848+1045929967+1045075370+1044390004+1045120202
1070+1048036999+1051722119+1053814609+1053723890+1053041765+1053916781
1061+1057095036+1060807809+1062828341+1063611509+1064953457+1066476466
1053+1066369623+1064885945+1064466482+1066543978+1069902540+1072439734
1044+1073502141+1073741823+1073554357+1072788821+1071916065+1071617386
1035+1071319309+1069868935+1067726716+1066820580+1067914483+1069727205
1027+1070894723+1071436927+1071515440+1070096561+1066232263+1061142203
1018+1057651933+1057421519+1059587699+1062079759+1063368511+1062853809
1010+1060455858+1056321136+1051110896+1046424024+1043850588+1043945451
1001+1046524161+1050736417+1054389741+1055084223+1053043799+1050834520
993+1049448644+1046980620+1042058661+1036464222+1033020366+1032393319
984+1032812933+1032156501+1029815965+1026490179+1022875961+1019286231
975+1015936560+1012692602+1009001076+1004652743+1000015750+995439489+991116246
965+987187977+983453353+979448832+974983859+970253662+965910150+962797750
955+960916008+959087764+956196962+952491648+949111084+946715771+945156444
945+944140753+943376196+942339483+940946826+940130129+940803288+942608400
935+944443275+945711457+946331270+946155257+945282727+944565489+944792212
925+945575982+945895307+945501161+945122914+945201351+945199468+944445309
915+943024170+941678455+940957450+940469571+939237782+936939442+934205816
905+931596891+929014036+926267526+923882610+923104265+924729447+927759416
895+929703847+928796883+925706183+922759247+921661652+922047359+922169423
885+921194419+920597814+922374068+925982032+928386387+927739675+925435382
875+923401438+921654344+919795508+918649615+918755329+919192724+919294368
865+919857519+921469440+922952439+922619702+920398669+917849043+916577846
855+917217626+919176223+920889034+921209715+920761093+920903802+921658940
845+921829000+920888205+919527646+918447457+917551493+916445385+915272593
835+914558896+914502536+914999984+916120183+918055496+920508300+922532826
825+923260688+922504043+920899281+919792117+920534898+923519358+927743367
815+931254811+932559838+931797467+930477596+930457855+932298230+934306933
805+934516928+933577639+933626992+934663253+934742369+933467104+932323020
795+931787898+931051371+930218625+930222618+931254509+933053594+935485903
785+937439828+936946298+934161963+932299134+933817397+937148306+938465164
776+936604821+934567185+935231528+937779120+939458476+939516193+939521919
766+940077988+939517399+936402361+931736511+927981542+926882667+928708123
756+932789348+937986628+942817792+946046078+947143145+945853940+942391775
746+938576377+936734947+937008234+937699552+938355155+940297100+943777048
736+946847856+948014394+948325581+949093980+949298174+946946261+942206192
726+937861701+936707144+939141337+942968865+945532958+946247257+946291562
716+946260594+945512313+943727469+941598511+939707125+938132803+937334793
706+938175601+940172550+940877581+938253059+932786259+926750808+922153373
696+919457045+917499805+914467198+909702265+904616651+901022626+898983482
686+897600846+897180254+898676515+901326580+902425530+900394600+896352782
676+892040766+887867767+882469986+873262082+859729880+849090589+851509939
666+862346189+869130675+868563681+865800971+865961311+868753106+871096881
656+870880105+867065838+860227327+853542075+850087293+849729616+850402022
646+851020629+851723324+852646036+853396653+853540191+853481043+854085409
636+855035774+854337901+850179293+843370470+836752729+831793699+828125758
626+826484829+828617253+832953004+834002300+829519470+823962856+821582085
616+820771792+817440053+811622207+807834915+810014582+817377891+824858518
606+828476352+828554564+827038336+824567524+820891746
##END=
