##TITLE=<SNM>
##JCAMP-DX=4.24
##DATA TYPE=INFRARED SPECTRUM
##DATE=2/5/2025
##SAMPLING PROCEDURE=Instrument type and / or accessory
##ORIGIN=Admin
##XUNITS=1/CM
##YUNITS=ABSORBANCE
##RESOLUTION=4
##FIRSTX=4497.3318
##LASTX=599.83466
##DELTAX=-1.4281778
##MAXY=1.7981036
##MINY=0.24165833
##XFACTOR=1
##YFACTOR=1.6746144e-09
##NPOINTS=2730
##FIRSTY=0.25909802
##XYDATA=(X++(Y..Y))
4497+154721001+153816083+153546056+153869188+154241420+154376584+154486211
4487+154731945+154908523+154956289+155227721+155840420+156434913+156894170
4477+157503755+158106559+157992002+156970322+155711342+154824541+154386800
4467+154337450+154597244+154862127+154944454+155188498+155931467+156770217
4457+156975447+156456322+155767436+155357867+155272942+155293906+155062285
4447+154462043+153961071+154057653+154454159+154346651+153506868+152643114
4437+152617469+153442409+154186820+154061693+153413899+153158554+153478287
4427+153762658+153616246+153230025+152865730+152532918+152202222+152008329
4417+152082060+152263887+152246465+152095888+152267643+152872529+153282810
4407+152840281+151752664+150929326+151029218+151907565+152892336+153424399
4397+153460651+153224722+152700169+151858340+151249112+151472031+152094785
4387+152095924+151319977+150473984+149956924+149625463+149351770+149048366
4377+148531591+147869071+147455417+147469441+147667827+147817514+147900535
4367+147828094+147505835+147281901+147633872+148304009+148590524+148552092
4357+148890476+149654525+150124869+149860947+149018931+147921624+146957657
4347+146540711+146694624+146874440+146488309+145638036+145105902+145431151
4337+146268762+146850344+146745300+145991421+144968673+144306846+144409719
4327+145072097+145848942+146469302+146653505+146140334+145207110+144573510
4317+144628047+145194858+145929685+146491326+146545391+146116682+145796104
4307+146109893+146809875+147158153+146856546+146364881+146218692+146320719
4297+146134630+145487495+144881203+144960887+145945933+147565898+149181431
4287+149968723+149487985+148165285+146846197+145975084+145544194+145584157
4277+146215266+147253400+148154945+148389459+147781850+146666515+145719553
4267+145447025+145878458+146705783+147408416+147440050+146871904+146577790
4257+147184678+148223070+148797747+148670368+148323505+148336185+148823730
4247+149314682+149322584+148992841+148759395+148622789+148404524+148333640
4237+148647411+149033426+149177231+149420892+150158291+150981007+151101400
4227+150413191+149593198+149208606+149113600+148850433+148402993+148180803
4217+148334129+148615226+148871620+149128184+149315555+149439810+149741052
4207+150237290+150523583+150391533+150204829+150398936+151037671+151934171
4197+152789597+153257913+153268199+153107728+152865214+152209288+151085651
4187+150117893+149897376+150360015+151131423+151968803+152691449+153092939
4177+153118690+153013869+153171777+153730695+154371228+154659193+154440883
4167+153817542+153085678+152695133+152791804+152955176+152875679+152895468
4157+153322496+153709393+153407083+152467711+151537166+151101418+151120656
4147+151211169+151038116+150713365+150788128+151527254+152370168+152618857
4137+152427384+152487554+152992922+153510054+153662784+153477700+153167791
4127+152891446+152672158+152363797+151805645+151193675+151109391+151900376
4117+153179448+154181712+154462720+154131384+153622296+153347376+153397455
4107+153515891+153427033+153170994+153024992+153081638+153094807+152923053
4097+152866780+153209844+153645005+153561859+152780343+151760637+151157531
4087+151225887+151667045+152092471+152419073+152659985+152718251+152603160
4077+152508252+152527294+152539787+152443241+152304019+152215712+152146644
4067+152059138+152052411+152182824+152321406+152411759+152607627+152954695
4057+153276528+153481295+153632280+153735251+153733276+153610978+153375352
4047+153101534+152970445+153020204+152969288+152614034+152289781+152507344
4037+153166865+153615623+153535841+153291797+153350063+153807879+154432021
4027+154808346+154630861+154082354+153694942+153728791+153938808+153961552
4017+153764259+153604500+153555613+153346895+152899508+152694741+153216322
4007+154282085+155290988+155917230+156254118+156449239+156482946+156318025
3997+156078360+155916767+155816146+155737058+155872169+156430749+157162115
3987+157459762+157096695+156554684+156402861+156601702+156724872+156706452
3977+156920634+157530627+158214423+158618209+158703881+158558057+158225208
3967+157868779+157796757+158164130+158766828+159203928+159216991+158856789
3957+158412303+158303210+158902366+160173269+161516996+162220475+162074561
3947+161472185+160993155+160946671+161200538+161432498+161534793+161633457
3937+161880953+162430812+163354523+164358568+164797448+164232978+163003024
3927+162060627+162092305+162783700+163309107+163609672+164383803+165773018
3917+166848961+166634174+165257186+163805309+163248492+163715615+164868367
3907+166694878+169298279+172068646+173968764+174631115+174130926+172359424
3897+169815250+167976620+168071582+169848031+171493961+171587375+171282271
3887+172335114+174136105+174775463+174499812+174918832+175510192+174710808
3878+173253539+173050766+174519655+176888071+179428917+181056551+180608364
3868+179039012+178417291+178837556+178620616+177010529+175164246+174579007
3858+176236380+180723988+187156899+190962170+188267188+182654288+178561727
3848+177197802+178037762+179957207+182031534+184178596+186669274+188825893
3838+189158688+187651286+186068160+185316435+184789088+184067528+183684084
3828+183919372+184489715+185921197+189181254+192996242+194063660+192323320
3818+190843609+190186704+188653836+186315657+185003750+185899663+188762733
3808+191883692+193660088+195210166+198449650+202169160+203316591+202281812
3798+201741616+202148854+202531817+202879935+203849721+205651477+208272016
3788+211879888+216470182+221619519+227179777+233854685+242212539+251438241
3778+260426342+269774395+280816091+293793746+307848749+321154323+331196512
3768+336908628+339501974+340610448+341419443+342739660+344663323+346646141
3758+348484202+351123284+356113965+364623018+376122565+387198626+394805253
3748+400757871+408842122+420059060+430939109+438705407+445470828+454246545
3738+466301486+481074775+496418052+509685932+519284703+525555844+530915232
3728+538422413+548814588+559183842+566310106+570065849+572092696+573288551
3718+573331298+572094831+570651462+569780215+567683143+561862860+553879836
3708+547724622+545548641+546772330+548732155+548751055+547454115+548123300
3698+552007392+556936959+560330828+562167323+564374911+567883995+571054339
3688+571538619+569402003+566765875+565560338+566441124+568880921+572586621
3678+578091620+584244592+587178385+585539325+581670538+576556100+569801606
3668+562589528+556847122+553803560+553705964+555300141+556629435+556727601
3658+555646747+553800570+552706760+554659822+560175642+566526084+568996278
3648+565717659+559547781+553444996+548786149+546283958+545782665+546628427
3638+548608042+551329522+553633354+555165030+557150340+560224583+562492323
3628+561831467+559740411+559077881+561451013+566952489+573422523+577228845
3618+577445820+576929294+577579401+578756855+580005886+582269960+585778225
3608+588799613+589752083+589239650+589230965+591441116+596267321+602245815
3598+606664764+607670980+606119977+604775770+605826619+609580690+614564501
3588+617845611+617011452+613060124+609289681+607961562+609117055+611563294
3578+614307732+616664277+617670066+616970591+616072151+616755111+618277426
3568+618054898+615612930+613217517+612192437+611889754+611620812+611403624
3558+611244523+610621715+608749450+605719270+603284492+603509440+606478541
3548+609986664+611564433+610600075+608086636+604812217+601006465+597242001
3538+594558570+593810510+595212450+598198244+601351077+602743121+601064624
3528+597035063+593184357+591339462+590885259+590449280+590031097+590188347
3518+590422087+589700829+588136479+587095097+587389452+587716054+585779329
3508+581464703+577364561+575638689+575923754+576552256+576743391+576862023
3498+577122101+577136232+576692635+576012310+575142095+573984467+572932870
3488+572500129+572143914+570525249+567229403+563341467+560014655+557163295
3478+554378032+552533707+553056925+555773066+558569363+559327211+557821411
3468+555853827+555469102+556541947+556675742+554409532+551503430+550494153
3458+551258336+551544967+550084513+547771320+546176965+546038544+546773896
3448+546829706+545178437+542665319+540879757+540173342+539834994+539442118
3438+538944954+538059043+536810261+535867081+535586750+535526918+535089230
3428+534038736+532440537+530637678+529139139+528212901+527833728+528039776
3418+528803995+529461897+528952774+526959171+524385402+522523315+521913037
3408+521958204+521717844+521055458+520483762+520027566+519346813+518723330
3398+518536395+518211181+516950511+514964240+513055029+511672737+510966108
3388+511044733+511704557+512314230+512353881+511889605+511213017+510407261
3378+509745800+509850871+510830320+511992398+512817694+513351198+513353263
3368+512188623+510051971+508320690+508098375+508897012+509259706+508615365
3358+507847800+507763480+507883180+507353662+506323492+505739446+506141505
3348+507048131+507446026+506820336+505687836+504988895+504999751+505064423
3338+504517963+503565635+502741549+501961706+501011905+500535065+501364240
3328+503025012+503970684+503360157+501774735+500194332+498985592+497868647
3318+496493651+495034977+494102652+493913439+493983380+493976154+494165687
3308+494690187+495131861+495154747+495003085+495172117+495819590+496572419
3298+496889802+496643213+496278954+496417802+497265522+498188521+498143461
3288+497084211+496394382+497093074+498342354+498651480+497968058+497618605
3278+498508859+500153578+501330356+501204250+499799071+497799276+496116792
3268+495252201+494851886+494234418+493383138+492922956+493072340+493187911
3258+492538693+491260048+490284478+490233153+490639305+490665182+490196528
3248+489563149+488713935+487528472+486530158+486357141+486701005+486579953
3238+485691194+484723455+484073419+483117817+481373792+479630267+478990517
3228+479330822+479551286+478914312+477548393+476053663+475025059+474662117
3218+474724049+474897636+474810896+473900212+472170461+470705237+470354218
3208+470480573+469978783+468759471+467408466+466283405+465491032+465009956
3198+464515035+463555838+462109692+460786734+460352819+460917858+461675955
3188+461694392+460741530+459049508+456815510+454495910+453004775+452883153
3178+453542194+453829679+453143766+451605291+449532316+447334089+445558067
3168+444479135+443808241+443069401+442109242+441107938+440256268+439535651
3158+438818913+438115096+437443527+436537363+435154680+433600794+432395933
3148+431582667+430839983+430012586+429157748+428367226+427735094+427261955
3138+426786147+426227229+425761423+425560536+425496433+425156092+424107841
3128+422334524+420467668+419350331+419277507+419789976+420166729+419978691
3118+419230097+418164335+417038170+416042668+415287206+414708534+414061843
3108+413161446+412087710+411085232+410385544+410106067+410066808+409781387
3098+408957728+407961158+407480474+407709124+408106271+408031348+407403130
3088+406612253+405967022+405473915+405049575+404675563+404342305+403942240
3078+403321746+402535780+401932905+401695855+401441293+400687788+399523468
3068+398408124+397548944+396808217+396035171+395268461+394639425+394127063
3058+393538567+392824357+392183291+391715242+391254063+390647699+389971289
3048+389440490+389213869+389199489+389078010+388641532+387968468+387185207
3038+386270608+385185625+384095018+383335996+383061787+382934364+382367616
3028+381204399+379935151+379107826+378729116+378399809+377855128+377079022
3018+376027211+374675814+373312636+372358066+371893968+371663965+371410543
3008+370985918+370344353+369593019+368898563+368301952+367700465+366980133
2998+366176620+365506687+365099467+364741650+364134219+363326613+362668497
2988+362390337+362357307+362222053+361790132+361176258+360580252+360101775
2978+359804609+359672807+359492066+359043558+358341841+357503731+356605362
2968+355749278+355014246+354347268+353663169+352948852+352240159+351628385
2958+351186213+350821811+350441072+350193131+350177434+350016198+349183356
2948+347727102+346314022+345584364+345638074+346055652+346291598+346100784
2938+345631845+345111333+344553447+343856926+343011805+342059548+341017419
2928+339994546+339186655+338621686+338148690+337752290+337552685+337446368
2918+337144966+336640897+336198974+335813572+335172684+334253066+333457668
2908+333033541+332757659+332314953+331674313+331031289+330614317+330522878
2898+330563881+330304337+329447932+328158360+326948018+326224625+325963621
2888+325864566+325714328+325429975+324933736+324287295+323765394+323496845
2878+323217012+322641686+321890922+321285911+320921082+320690368+320561628
2868+320557250+320560524+320384944+320010896+319555127+319040167+318392338
2858+317657377+317042400+316718183+316657497+316631727+316365206+315785752
2848+315104358+314579218+314247954+313947263+313501816+312856230+312147109
2838+311623678+311364418+311170364+310877967+310595359+310454339+310324602
2828+309968316+309333585+308559649+307817214+307220532+306777256+306383170
2818+305937438+305448282+304986996+304605154+304312259+304030576+303583989
2808+302887433+302152294+301721868+301664634+301677910+301435521+300901234
2798+300224752+299487620+298745220+298189168+297979169+297946566+297717613
2788+297124241+296301953+295445299+294646360+293905561+293180531+292471126
2778+291870689+291455852+291175094+290915727+290588662+290094524+289359688
2768+288492498+287761186+287319013+287044840+286703396+286165763+285470452
2758+284782332+284277907+283961841+283619435+283032292+282203544+281330517
2748+280623301+280184723+279990136+279895441+279670564+279139943+278362359
2738+277602234+277077432+276780141+276518906+276111152+275600391+275213584
2728+274988333+274650003+274045562+273392394+272883502+272417803+271909587
2718+271478253+271173291+270828626+270286170+269556121+268764834+268090595
2708+267678943+267488787+267292687+266944516+266573565+266365648+266216763
2698+265831486+265174473+264583931+264360781+264418103+264403528+264069220
2688+263475261+262876354+262460788+262224859+262060099+261853908+261503103
2678+260967125+260343588+259802681+259431979+259192598+258985873+258723855
2668+258381361+257994019+257602603+257254520+257014285+256873319+256732886
2658+256558961+256390623+256143447+255657229+254991069+254419320+254113024
2648+254006565+253933564+253762059+253443483+253005065+252509254+252052311
2638+251743648+251582233+251441124+251263479+251133761+251090533+251033281
2628+250855067+250549767+250209000+249972146+249903718+249891830+249761595
2618+249486852+249210508+249056087+248980043+248845768+248605123+248316802
2608+248027074+247780254+247685256+247773918+247883598+247867973+247793940
2598+247765536+247720547+247526636+247156984+246737271+246480894+246496039
2588+246620668+246581871+246322202+246024217+245842853+245762786+245708542
2578+245656310+245590285+245453696+245245459+245096039+245117306+245227040
2568+245238963+245091234+244928378+244986875+245384824+245988802+246546990
2558+246938443+247175581+247226818+247020698+246595913+246090723+245600019
2548+245139178+244717294+244373678+244153749+244080552+244137501+244253267
2538+244298381+244132518+243721880+243221371+242851150+242655602+242480163
2528+242215440+241936853+241768961+241738315+241784248+241815018+241758568
2518+241617690+241447822+241264109+241041510+240818377+240714926+240803588
2508+240998852+241120046+241051245+240813305+240505567+240233352+240079643
2498+240082081+240217335+240414271+240574458+240597380+240423134+240067025
2488+239619567+239204285+238904592+238708047+238517677+238240764+237899960
2478+237637995+237546361+237518153+237375336+237110008+236861960+236684101
2468+236488161+236222975+235952806+235723373+235479045+235167926+234843656
2458+234606713+234491925+234458183+234467793+234523478+234599238+234580480
2448+234368364+234033985+233766734+233668764+233685333+233715195+233689711
2438+233550702+233259017+232884204+232612647+232558279+232599140+232516937
2428+232272467+232010715+231833159+231725206+231687922+231772900+231957201
2418+232121997+232204626+232266451+232374939+232513378+232623895+232661374
2408+232618609+232552726+232545341+232612060+232698925+232754664+232770289
2398+232778778+232829231+232974024+233331876+234133716+235658808+238188869
2388+242011972+247328667+254200779+262723482+273101047+285417152+299524922
2378+315243776+332357736+350271720+367986242+384626458+399757956+413063387
2368+424044272+432301754+437893387+440956917+441069747+437705919+431261440
2358+422654861+412042827+398879910+383572939+368797621+358192741+353867295
2348+356054560+363965864+375585217+387269563+395556551+399542333+400656502
2338+400769581+400751464+400532354+399960943+399043888+397623938+395392752
2328+392214897+388190355+383457831+378107056+372280579+366214740+360046107
2318+353667405+346941777+339973190+333048633+326412734+320145936+314132419
2308+308130041+302035086+296074460+290568659+285538382+280730329+276018432
2298+271574621+267592434+264043860+260800514+257814559+255055154+252425682
2288+249889943+247577712+245668821+244223315+243137087+242223680+241353180
2278+240512828+239723908+238973269+238263596+237643209+237136649+236678655
2268+236154494+235555552+235068426+234886385+234944562+234982237+234823973
2258+234471388+234013554+233571542+233237768+232979345+232669418+232259119
2248+231857825+231599776+231488227+231440319+231428199+231462992+231481909
2238+231394172+231236495+231175578+231333967+231660052+231990908+232208702
2228+232294499+232272823+232201174+232198736+232393732+232830459+233439670
2218+234084580+234652272+235122812+235548950+236003206+236555343+237232626
2208+237993926+238794823+239646547+240576273+241566828+242557667+243492732
2198+244367716+245214404+246042548+246821751+247510192+248100663+248656697
2188+249258007+249906209+250549358+251130059+251551071+251756675+251879844
2178+252111075+252448960+252730910+252799836+252580832+252147824+251686574
2168+251288412+250897547+250488476+250105833+249712672+249170964+248453942
2158+247777015+247371236+247191278+247047767+246933033+246994537+247319075
2148+247882210+248626550+249709860+251727969+255304697+260391425+266357622
2138+272680106+279204241+285980269+293132196+300704440+308617203+316833540
2128+325334550+334000569+342794509+351821834+361033138+370157774+378882842
2118+386867717+393802098+399515424+403851192+406620368+407827293+407819320
2108+407256594+406832716+406814777+407055884+407426515+407809710+407839750
2098+407063715+405222735+402358206+398832714+394997918+390776938+385866627
2088+380136109+373551821+365992176+357314981+347586865+337282071+327047145
2078+317239372+308003330+299574432+292122634+285632436+280111793+275536947
2068+271708469+268468379+265755263+263402687+261296343+259536765+258160986
2058+257043062+256095415+255241377+254419747+253769337+253469857+253509544
2048+253889321+254752845+256237556+258517326+261822658+266211477+271614681
2038+278077063+285621758+294054625+303043865+312110306+320640715+328219189
2028+334786285+340442022+345323574+349519995+352999857+355757002+357761176
2018+358623311+357811860+355307070+351597419+347134940+342109058+336553837
2008+330508321+324139833+317687133+311279030+304927627+298697739+292762775
1998+287311183+282522457+278565061+275388915+272570176+269666726+266696949
1988+263990470+261747414+259967423+258558045+257365855+256275907+255293895
1978+254457315+253777702+253254021+252817899+252406995+252175071+252349068
1968+252780082+252945910+252556468+251894295+251409909+251242853+251272395
1958+251411475+251652031+251946742+252225275+252488450+252814091+253265268
1948+253814238+254436191+255208542+256044677+256455954+256092977+255361077
1938+254926734+254934547+255104273+255268819+255508254+255911915+256422337
1928+256968245+257683879+258741723+259963027+261009214+261931323+262922234
1918+263673888+263752655+263467146+263572448+264365995+265538039+266621207
1908+267372362+267838329+268197748+268591425+269082787+269675233+270326550
1898+270990574+271589801+271988693+272221525+272597085+273187235+273456550
1888+272934827+271963493+271189985+270794279+270581308+270408486+270284052
1878+270245594+270261451+270301119+270603536+271661343+273548256+275265478
1868+275381903+273809865+271958332+270946866+270745143+270792019+270776393
1858+270742882+270796308+270935227+271106643+271353748+271851214+272804325
1848+274402845+276627269+278693623+279186214+277824957+276072124+275203262
1838+275295199+275812063+276447221+277479046+279270587+281373781+282645948
1828+282771253+282562108+282378128+281823677+280958071+280463897+280671156
1818+281255327+281816095+282416568+283420150+284833924+286058805+286539863
1808+286450489+286427425+286998747+288384616+290342056+292096331+292940349
1798+293109985+293664596+295452809+298201608+300290706+300236996+298791420
1788+297871482+298315755+299689433+301328707+302981862+304459472+305490603
1778+306335048+307904844+310888361+314764587+317627087+318032599+316847172
1768+315592730+314949030+315382589+317157935+319464507+320977960+321719470
1758+322610755+323744964+324982677+327099538+330758896+334970622+337693099
1748+338320320+338124416+338445714+339855626+342227298+344730914+346399552
1738+347674317+350299376+354729751+358235097+357998724+355590426+353391487
1728+351921850+351275302+351587453+352629618+354464689+357962881+363582135
1718+369564687+372332154+370877181+367911781+365826918+365453369+366989992
1708+370224226+374109813+377338424+380155935+384014222+388832560+392258712
1698+393247487+392846425+391186721+388907591+388105537+389673553+392759400
1688+396772552+402404513+409309672+413538768+412408866+409362492+408049536
1678+409483687+413053492+417025392+420079561+423001502+426746212+429953039
1668+430829305+430790722+432435121+436032831+439592351+441598518+443123680
1658+446290999+452481343+462022880+472521515+477805197+477946039+479513806
1648+484339263+489157922+490385812+489514992+489966276+493000584+498544701
1638+506206711+514583537+520497323+522527836+523731664+527100582+533037361
1628+540350346+548026273+556069984+564266993+571559832+577945262+585205462
1618+594549600+604286436+611181096+615245324+618719919+622359308+625615148
1608+628127590+630146144+632189683+634769610+638118632+642075014+646412312
1598+651205914+656674716+662675064+668614762+674088404+679317522+684704816
1588+690231421+695424875+699776909+703177683+705970101+708739810+712268505
1578+717338095+723789194+730019759+735411679+741625657+749977069+759620581
1568+768566468+776882857+786573564+798684101+813075513+830342416+850270398
1558+865985444+872106666+873821539+874891253+874824908+872900890+869971368
1548+867843116+867668141+868857447+870046540+870361752+867716405+859330325
1538+849006275+842953177+841496567+841049091+838285931+833806830+830475178
1528+829503060+830113481+831104107+831877331+832018849+831454129+831242279
1518+831905022+832004540+830196982+827531063+826460851+828561695+833622244
1508+839298554+840923875+836526923+830960311+827983877+827520456+828201849
1498+828618074+828010145+827009553+827096827+828794331+830862359+831226476
1488+829210912+826069896+823157744+821267681+820733358+821188024+822029515
1478+823332790+825610034+828734179+831347350+831569308+829243729+826564711
1468+825545540+826495020+828020752+828337530+827880729+828853202+832017638
1458+834955276+833806830+829229492+825204202+822890084+821546589+820697908
1448+820230998+819860474+819244999+818381013+817581522+817254351+817580668
1438+818083669+817671430+815946021+814016522+812913137+812579417+812454485
1428+812301221+812272960+812313821+812211883+812303998+813081706+813766303
1418+812579630+809379245+805829906+803061549+801201669+799981397+799121682
1408+798564580+798304751+798002138+797350358+796810839+797233898+798872531
1398+801035023+802627029+803021756+802541036+802253088+802937116+804126849
1388+804207859+802069499+799171797+798450041+801149988+805983027+810904479
1378+815105385+819097430+823254770+826981007+829642656+831656867+833810247
1368+836239259+838675248+840911916+842519939+842839992+841851928+840475118
1358+839617112+839427828+839442421+839158815+838467812+837597562+836849752
1348+836436943+836402276+836825548+837967018+839742043+841351917+842126280
1338+842606786+843908637+846212718+848790652+851134028+853399027+855990914
1328+859099184+862443863+865357867+867540219+869698796+872829846+877040291
1318+881693157+886320610+890628509+894122039+896716986+899331438+902982147
1308+907526668+911875997+915331656+918115673+920373697+921459570+920991948
1298+920060834+920248907+921548267+922227312+921054449+918789023+916880808
1288+915619176+914337043+912781342+911325657+910005511+908189695+905545986
1278+902897578+901560489+901845660+902678182+903021584+903138685+903951915
1268+905807381+908270848+910655654+912651071+914576727+916821937+919222475
1258+921399133+923331693+925076109+926552722+927846316+928808610+928671292
1248+927057716+924973957+923959910+924480566+925438731+925208586+923295531
1238+920857335+919180617+917997077+915937449+912479584+908627917+905662589
1228+903899024+902785388+901859115+901236379+901263358+901939484+902706158
1218+902774141+901874704+900754520+900593995+901807291+903634069+905061422
1208+906037099+907607393+910640847+914614171+917897772+919467711+920164694
1198+921598952+924145920+926772830+928602597+929853124+931208080+932874903
1188+934506418+935896753+937291361+938814316+940251849+941689666+943538511
1178+945823301+948220991+950547425+952542842+953808887+954269462+954230950
1168+954258784+955143129+957298431+960044791+962083276+962729717+962537016
1158+963092410+965905614+970690887+975128843+977277240+977734468+978361048
1148+979766476+981186923+982076465+982842641+984403325+987685788+992977479
1138+999101976+1003817344+1005796175+1005783291+1005516058+1006083055
1130+1007554045+1009827231+1012597510+1014629233+1014838021+1013968483
1121+1013340123+1012978783+1012787790+1013400774+1015019831+1016872449
1113+1018045881+1017915753+1016348733+1014427989+1013851240+1015293897
1104+1018171240+1021957416+1026912111+1032885623+1037812271+1039037740
1095+1036723266+1034041756+1033584599+1035240317+1037415551+1039014391
1087+1040277304+1042009973+1044042693+1045292579+1045089342+1044068889
1078+1044010659+1046116202+1049930283+1053737529+1054814290+1051455303
1070+1045755929+1042871112+1046969154+1056757031+1066260020+1070695556
1061+1069690266+1065850700+1062298015+1060514162+1060068608+1060175601
1053+1061150708+1063988472+1068519539+1072425307+1072914213+1069987823
1044+1066486179+1064576469+1063946614+1063156021+1061847905+1061163664
1035+1062101185+1064530056+1067801057+1071219557+1073673342+1073741823
1027+1070955812+1066903543+1064198969+1064281687+1066362671+1068711101
1018+1070278548+1070410242+1069044180+1067936026+1068772605+1070120941
1010+1069018625+1065112500+1060864967+1058531344+1058549568+1059638715
1001+1059721007+1057899354+1055302769+1053316321+1052077540+1051249290
993+1050896776+1050814129+1050173597+1048404907+1045611350+1042098814
984+1038329153+1035064558+1032814935+1031550385+1031144909+1031384663
975+1031305362+1029796145+1027069717+1024421665+1022854076+1022428241
967+1022372502+1021807854+1020935468+1020615771+1020111702+1017025855
958+1010651424+1003559152+998775445+996911793+996393629+995281488+992691880
948+989239425+986193727+984155313+982842926+982030977+981726941+981498790
938+980939124+980431567+980055491+978672487+975582725+972135680+970246330
928+970063524+970178845+969454598+967779090+965580650+963394026+961589600
918+960138828+958947955+958347643+958741017+960102024+962280248+965150187
908+967912564+969091762+968021835+965582429+962942279+960557900+958569530
898+957312597+957138831+957882869+958455134+957419020+954618629+951760080
888+950720193+951605962+952845597+952957003+951740575+949831363+948041958
878+947204525+947624167+948509081+948689253+947922081+946822184+945835402
868+945207043+945218219+945192022+943625216+940953815+940546630+944581957
858+950379639+953145575+951562681+948243486+946040276+945882029+946918143
848+947739773+947562733+946463976+945113290+944467134+944855597+945371055
838+945388140+945933568+947934823+950122372+950235131+947778641+944732801
828+943580226+944749031+946522277+947749739+949123204+950960233+952049807
818+951621908+950253284+948924381+949096865+952371782+958082688+962544705
808+962825107+959952818+956797850+954873404+954127374+953673064+952771065
798+951810622+952148258+954358658+956902778+957887638+957669239+958179359
788+960331457+963074614+964494421+963692509+961463743+959131331+957529358
778+956993327+957444362+958274179+958602133+957775947+955939274+954521532
768+955182566+957857384+960628873+961829355+961676519+961029081+959816283
758+957995770+956621807+956661742+957708818+958604909+959175181+960916037
748+964921324+969887409+973154425+972928978+969624234+965795276+964415262
738+966102302+968405243+969046132+968484189+968147763+968091313+967441739
728+965999366+964107382+961647617+958708343+956992473+958786576+964141338
718+970368129+974661648+976172004+975381482+972953894+969468194+965298539
708+960564876+955465317+951028571+948775673+948646399+948410417+946676680
698+945269971+946575524+950158392+953552902+954609945+952872434+949377481
688+944642750+938379867+932140120+928990419+929021884+928610357+925813526
678+923157572+923126677+923990592+922108004+916699497+909625306+902843263
668+899017080+900582819+904914992+908399979+911204641+914560425+916757513
658+914231047+906761560+898161210+892288925+890889976+893842704+898762448
648+900630869+895674181+886700388+880337631+879428941+880228574+878374674
638+875534277+875900387+880089192+885482252+888990944+888363865+883510325
628+876740312+871125152+869107951+871665312+877478584+883993536+888731114
618+888614156+881605954+870381328+862228525+862728750+870748293+878844503
608+879552733+874404269+871670865+873841329+874168785+867528260+859251665
##END=
