##TITLE=<SNM>
##JCAMP-DX=4.24
##DATA TYPE=INFRARED SPECTRUM
##DATE=2/5/2025
##SAMPLING PROCEDURE=Instrument type and / or accessory
##ORIGIN=Admin
##XUNITS=1/CM
##YUNITS=ABSORBANCE
##RESOLUTION=4
##FIRSTX=4497.3318
##LASTX=599.83466
##DELTAX=-1.4281778
##MAXY=1.7983561
##MINY=0.27620557
##XFACTOR=1
##YFACTOR=1.6748496e-09
##NPOINTS=2730
##FIRSTY=0.29627648
##XYDATA=(X++(Y..Y))
4497+176897365+177055910+177168706+176859393+176232349+175389979+174340701
4487+173314662+172778812+173157896+174437821+175965403+176909216+176941049
4477+176292226+175416510+174872849+175122179+176074765+177097672+177598254
4467+177448660+177001086+176881831+177467112+178353593+178650451+177998282
4457+177035073+176661274+177023258+177408623+177177674+176461732+175703742
4447+175022177+174368851+173861401+173603886+173439629+173197239+173048072
4437+173348043+174097884+174775053+174913384+174684073+174576739+174701920
4427+174784128+174596864+174119094+173512923+173014886+172660358+172312449
4417+172049079+172123191+172552063+173109497+173562995+173689422+173376300
4407+172774649+172064204+171336019+170947059+171353226+172251059+172619342
4397+172005431+171138167+170968163+171614175+172441473+172803902+172518717
4387+171846494+171220411+170887094+170710737+170410142+169939277+169466276
4377+169107264+168902116+168859339+168856386+168788928+168831296+169219775
4367+169816249+170264481+170477155+170567744+170479326+170072536+169417983
4357+168705065+168078075+167759953+167987859+168617287+169139756+169286183
4347+169348835+169740660+170448720+171008289+170883446+169980879+168882472
4337+168283062+168116190+167649737+166565066+165421426+164913656+165218610
4327+166102493+167132411+167750362+167581497+166860483+166336431+166483160
4317+166897512+166860945+166393656+166190662+166628876+167474928+168366160
4307+168952046+168896689+168356694+168073929+168471714+169034931+169002724
4297+168358206+167786644+167848496+168452230+169078455+169342091+169290862
4287+169218174+169244082+169128065+168546930+167495267+166377072+165807948
4277+166248297+167539450+168797398+169087156+168347192+167514680+167583241
4267+168498797+169218814+169002012+168192028+167469537+167026981+166838952
4257+167005913+167479110+167951150+168179252+168203220+168325483+168862934
4247+169720054+170444645+170877111+171270484+171686419+171882207+171838843
4237+171791208+171725281+171344970+170538313+169601066+168998845+168991994
4227+169498287+170180244+170533473+170164069+169307144+168800512+169150076
4217+169888653+170275299+170259765+170291314+170538598+170718744+170485269
4207+169864364+169444389+169855164+170873837+171554743+171453175+171104199
4197+171122099+171464154+171757382+171830088+171717132+171458620+171084483
4187+170672124+170324251+170123196+170068515+170031646+169872193+169662544
4177+169668808+169996164+170421264+170727979+171006082+171396928+171723093
4167+171683181+171333830+171084732+171229113+171672504+172068777+172057816
4157+171527946+170816273+170500269+170905279+171850142+172793955+173195993
4147+172905346+172244013+171611364+171195340+171166994+171729249+172721587
4137+173523421+173571447+172829276+171800248+171234789+171603730+172629681
4127+173505556+173694351+173333755+172873530+172578469+172407611+172223158
4117+172077870+172210880+172660838+173109319+173310231+173402458+173550664
4107+173556839+173119710+172335474+171684355+171530437+171791920+172141804
4097+172344603+172296932+171958294+171443709+171064429+171097312+171527607
4087+172060218+172385048+172485300+172581797+172720715+172672689+172320243
4077+171877758+171659621+171781671+172035734+171987548+171380967+170487796
4067+169861944+169791053+170132342+170583777+170943465+171096689+170905101
4057+170345461+169788455+169840609+170649223+171525757+171652166+171183578
4047+171186514+172270615+173714761+174341769+173913840+173072449+172257857
4037+171460720+170845064+170859068+171584851+172420619+172679575+172378340
4027+172198656+172669931+173570807+174224026+174212726+173653496+172962660
4017+172552277+172592082+172918424+173225443+173344698+173331886+173392902
4007+173733889+174330470+174913776+175354356+175847500+176473974+176847915
3997+176565738+175846361+175377079+175553773+176079000+176330020+176123111
3987+176036205+176702307+177829149+178349714+177678843+176429489+175740024
3977+176184536+177347020+178276669+178421833+178079084+177816943+177794166
3967+177931501+178338414+179098629+179897937+180303142+180279387+180131465
3957+180088528+180196769+180473200+181055563+182179416+183688919+184656398
3947+184374131+183636088+183749508+184552285+184723926+183903230+183070345
3937+183124919+184376711+186785382+189554916+190959968+189996155+187986871
3927+187124608+187910908+188910328+188928406+188704913+189717554+191894155
3917+193151748+191618419+188038847+184788803+183258375+183414446+185283620
3907+189632338+196738028+204842692+210652425+212094221+209429388+203871707
3897+197435162+193165360+193330364+197070740+200006702+198856460+196569981
3887+197589525+201332820+203851618+204463786+205200156+204831588+201235575
3878+197214979+196973372+200862292+206617077+212250578+215488504+214278243
3868+210901256+209496578+210150651+209646813+206804466+204069684+204012013
3858+207929102+216668710+228873920+235755209+228753721+215225988+204737049
3848+200150816+200868894+204862924+210085507+215807889+222022080+227243773
3838+228579642+225579195+221161614+217344029+213859923+210551621+208462389
3828+208166118+209394084+213058943+220636886+229486194+232617712+229163464
3818+225153793+222196977+217459993+211301800+207389124+208120299+213162700
3808+219217367+222848630+225638876+230870766+236296930+236512220+232688141
3798+229648565+227542748+224553512+221642978+220890290+222550491+225835927
3788+230441734+236005500+241482217+246686205+253080027+261263928+269270334
3778+275552213+281797295+290486635+302581094+317682495+333515444+346213762
3768+354137977+358828234+361615668+363433151+365739043+368703315+370684004
3758+371366618+373522152+380478051+393654031+410832423+425208575+432625589
3748+438176578+447418761+458943420+465991528+467767159+471334577+481594116
3738+498349970+516546856+529079831+534060558+536380045+541065000+549692933
3728+561438950+573620813+582400956+585946417+585639541+583591911+581279114
3718+579870788+580581695+584428728+590419515+593479092+588178357+576345613
3708+564253324+556648192+555886857+560831817+566055504+566476368+563523449
3698+562253098+565238509+571784434+580348308+589472766+596039190+595906660
3688+589890285+583758498+580700915+580522868+582666870+587287161+595396754
3678+606985365+616235840+614728828+606271824+600744928+599048587+595465119
3668+587880165+579621814+573057952+568404137+565924148+566855523+571761693
3658+577881237+580552441+580034101+581944468+589090159+597775389+600460010
3648+593814972+582962607+573868328+568817350+567351621+567497781+567573121
3638+567554046+568350684+570561486+574813369+581986355+590764470+595170592
3628+590774933+583081187+578553852+578612430+583261298+591540717+599416283
3618+602983701+603423712+603355810+602840210+601779046+601960046+603722936
3608+604141879+601922110+600255592+602124677+606723152+611031869+613371001
3598+614492950+615711984+617756162+620948055+625266025+630234830+634795511
3588+637096421+635606064+631085669+626046329+622876002+622525958+623651608
3578+623752750+621888932+619136623+616987389+617072017+621176957+629033946
3568+635910271+635995611+630327145+625134919+623499434+623553528+622169152
3558+619069290+617131663+618503155+621540382+622816428+621754480+620683849
3548+620865277+621479456+621664869+621095461+619493001+617597368+616954363
3538+617266897+616200964+613124091+610376266+609799313+610693498+611517646
3528+611762208+611579997+610698196+608798434+606417379+604350994+602510024
3518+600504993+598850006+598599964+600212744+603315311+606799453+608769679
3508+607955068+605304043+602611664+600138578+597012488+593538061+591325338
3498+590902161+590780556+589737470+588747517+589206603+590465531+590788172
3488+589882207+588918625+588625130+588402598+587135770+584672969+582331844
3478+581562003+582377860+583343221+582750858+579972641+576260913+573830925
3468+573692452+575014157+576590103+577835009+578445878+578253346+577434500
3458+576265148+574832480+573147990+571347590+569797196+568973973+568951411
3448+568915182+567695045+565183845+562676382+561312647+560823952+560198884
3438+558983302+557517608+556459860+556396228+557521594+559437050+561280583
3428+562217652+561851557+560189310+557459706+554175213+551100654+548871311
3418+547680001+547292910+547351737+547574162+547753918+547702101+547294618
3408+546683642+546125408+545409448+544008951+542078726+540686378+540575700
3398+541134681+541131194+540258041+539296736+538859608+538681632+538228098
3388+537490500+536812049+536347874+536053240+535850210+535432798+534328536
3378+532667179+531385297+531227250+532021149+533084983+533917387+534455692
3368+534841360+534852037+534027746+532837112+532664474+533811798+534768974
3358+534452881+533674072+533259079+532584686+531026178+529090899+527336800
3348+525764875+524799157+525326786+527117114+528414869+527996816+526722087
3338+526095808+526118051+525627647+524268433+522924734+522409918+522770104
3328+523613435+524187612+523654574+522203080+521168998+521422563+522400985
3318+522956515+522510205+521355088+520189152+519308596+518304266+516769958
3308+515070877+514069963+514253348+515296648+516427102+517122422+517430650
3298+517641830+517797812+517723896+517476914+517437803+517786922+518335441
3288+519156030+520601226+522229130+522697042+521471460+519811135+519337601
3278+520188369+521082839+521094761+520772653+520979384+521321599+520753578
3268+519180408+517383603+515911538+514936497+514581114+514712470+514780479
3258+514293776+513423399+512905379+513160012+513663547+513527103+512538217
3248+511361498+510962378+511871119+513651803+515125398+515359461+514279114
3238+512363231+510143960+508069140+506641525+506249629+506499707+506204006
3228+504801943+503272333+502711358+502742248+502234122+500879320+499244298
3218+497800597+496594127+495562892+494730238+494124458+493692953+493355080
3208+493088276+492951689+493009021+493250913+493616865+493922780+493787012
3198+492883645+491325884+489635345+488322288+487469420+486642460+485370436
3188+483786091+482576773+482185518+482261285+482061850+481273005+480229599
3178+479322851+478459947+477389992+476284805+475436990+474584016+473251030
3168+471630065+470310709+469287872+468061686+466664214+465750989+465572159
3158+465578778+465211082+464490068+463609691+462425427+460758874+458966837
3148+457729725+457220246+456849526+456035983+454882752+453821658+453011211
3138+452379025+451869190+451402168+450874504+450344242+449937684+449440946
3128+448334407+446575324+444955071+444190248+444076224+443967716+443564326
3118+442892138+442144611+441685063+441666913+441777769+441687483+441343097
3108+440679237+439657718+438514238+437422005+436300767+435315868+434960841
3098+435353627+435873746+435613633+434173349+432201842+430954124+431024233
3088+431834644+432517650+432783884+432741819+432433306+431816281+430856435
3078+429521527+427990920+426781424+426242301+426077849+425871616+425822469
3068+426200414+426378817+425446374+423587076+421789808+420533763+419719508
3058+419367827+419476798+419615449+419346474+418662792+417664974+416382629
3048+415089324+414186775+413686371+413290881+412906957+412604067+412245731
3038+411639809+410917656+410384191+410095572+409833857+409380110+408611835
3028+407458817+405999635+404539457+403345905+402359724+401455859+400872820
3018+400920650+401329130+401409239+400841040+399822830+398579134+397273942
3008+396268259+395878570+395890990+395708566+395015666+394077814+393342636
2998+392920348+392547065+391974061+391182939+390214801+389129579+388174609
2988+387606517+387311314+386966644+386507202+386018008+385385502+384540001
2978+383791406+383441148+383289970+382907790+382153288+381161484+380065835
2968+378963601+377994859+377260036+376738921+376395318+376228161+376088513
2958+375663129+374877487+374093198+373666959+373559270+373516208+373337627
2948+372905126+372237031+371521818+370887141+370241431+369518495+368884138
2938+368476370+368115116+367548233+366867327+366374326+366114497+365842960
2928+365332983+364437552+363083356+361498441+360193961+359531205+359458107
2918+359636261+359680710+359414440+358950301+358415412+357808849+357258978
2908+356991712+356844484+356290983+355170920+353972599+353238240+353021686
2898+352983714+352775702+352300494+351742545+351378479+351295167+351261857
2888+350915585+350107736+349055504+348132207+347557353+347288272+347105599
2878+346795164+346357680+346014220+345900338+345871405+345723714+345409828
2868+344905794+344125846+343148776+342295552+341806394+341589948+341370725
2858+340972353+340429599+339906277+339502317+339143909+338738597+338365492
2848+338119294+337833379+337255963+336503311+335993761+335850235+335684572
2838+335124559+334284502+333538221+333080416+332890233+332881657+332882689
2828+332636882+332013842+331162576+330387290+329885818+329589441+329276622
2818+328897502+328661198+328651660+328576249+328158374+327567328+327118171
2808+326715741+325994371+324947192+324020622+323523777+323273344+322917321
2798+322362005+321801955+321471022+321363012+321174324+320657372+319960523
2788+319363177+318808003+318036952+317080061+316250183+315666147+315077449
2778+314284548+313518515+313145125+313116476+313037613+312692551+312178197
2768+311625693+311084469+310560435+310004585+309412436+308927833+308622132
2758+308244400+307472104+306373287+305356785+304675025+304216081+303779487
2748+303295952+302729105+302023216+301236969+300546062+300065837+299771773
2738+299559028+299304573+298918727+298382184+297755638+297175784+296730702
2728+296284428+295638398+294938950+294617821+294792950+295005002+294724016
2718+293952876+293156665+292667809+292356343+291938592+291391515+290890898
2708+290523433+290240561+289946889+289542288+289026831+288547139+288175885
2698+287739201+287038295+286135390+285279515+284642542+284221820+283931333
2688+283689245+283407725+282992609+282477009+282104437+282079419+282239298
2678+282191237+281788629+281258669+280844282+280543154+280244570+279920469
2668+279603736+279346167+279246716+279331825+279367502+279034576+278360787
2658+277751911+277529183+277605680+277650503+277460018+277126398+276850982
2648+276630442+276231020+275503814+274620642+273940074+273664747+273633501
2638+273474476+273002934+272419770+272066968+272047199+272136044+272062555
2628+271810076+271544411+271284600+270856084+270221656+269634702+269366599
2618+269429163+269614915+269707053+269638546+269489147+269320086+269048656
2608+268571135+267982669+267559064+267480593+267642234+267784088+267753606
2598+267571413+267307563+267006506+266705111+266433823+266201931+266002318
2588+265801139+265555457+265307390+265202548+265296820+265391378+265226338
2578+264852254+264626288+264763836+265065391+265205537+265129450+264977346
2568+264757163+264354822+263827710+263432931+263351844+263571547+264007643
2558+264545930+264989606+265150909+265003148+264656538+264227559+263768349
2548+263277696+262793610+262471858+262442071+262562892+262507855+262158416
2538+261731235+261462634+261347845+261252914+261123017+260992765+260880858
2528+260755731+260601065+260495173+260572452+260822191+260972622+260734236
2518+260164578+259620045+259333756+259228985+259155371+259066277+258928142
2508+258722354+258598667+258750041+259081081+259266246+259157382+258862393
2498+258462401+257953367+257437055+257106353+257044003+257171568+257350630
2488+257464743+257467323+257385720+257241606+257005337+256664883+256263646
2478+255844454+255455085+255199883+255142213+255161697+255057406+254788040
2468+254515383+254444794+254641026+254909467+254909129+254515525+253989551
2458+253670326+253609755+253594577+253431708+253136915+252875681+252763293
2448+252761265+252753418+252651120+252445243+252230843+252136125+252170236
2438+252188902+252036550+251703018+251358188+251212633+251298916+251440450
2428+251469507+251386836+251284058+251221085+251214928+251265357+251334789
2418+251346373+251268559+251180746+251179749+251255303+251337921+251407727
2408+251479045+251550577+251605525+251597553+251484081+251343419+251346604
2398+251561378+251943967+252571705+253711377+255632456+258556300+262880551
2388+269328164+278786563+292009092+309351794+330631958+355314945+382953485
2378+413246325+445486935+478224425+509739928+538612342+563808509+584985397
2368+602785974+617878087+629721081+636761324+637558354+631947825+621221158
2358+606621513+588237078+565163916+536920094+507022994+483047853+471080727
2348+472946040+486984817+507895791+527597233+540558582+546677948+548330551
2338+547957410+547175825+546549369+546099536+545586890+544412733+541800996
2328+537296580+531059737+523587918+515164830+505786166+495570401+484776543
2318+473532424+462018193+450728807+440142391+430150297+420008910+408956683
2308+396929805+384645270+372957761+362255720+352494592+343519141+335153492
2298+327193902+319558377+312359874+305714053+299579740+293865526+288590486
2288+283864925+279749789+276190521+273106904+270493531+268352571+266568524
2278+264975887+263547632+262390379+261541622+260885076+260280292+259669992
2268+259032806+258333501+257579586+256858749+256250567+255732672+255222553
2258+254685689+254153167+253648191+253156595+252679377+252264278+251953576
2248+251709905+251410182+250943142+250340957+249775107+249377072+249113169
2238+248882878+248669510+248530557+248494897+248539044+248648620+248841454
2228+249102688+249337587+249442679+249403603+249280023+249144451+249078524
2218+249152707+249339918+249515029+249611455+249715977+249937619+250240705
2208+250496334+250657228+250790523+250969299+251210569+251496074+251813519
2198+252191589+252680925+253259676+253794119+254154680+254346571+254473851
2188+254611933+254781901+255007975+255287732+255537650+255700376+255855664
2178+256087396+256335249+256512905+256632463+256683211+256555219+256225157
2168+255878138+255694593+255603772+255396810+255040698+254706401+254502375
2158+254377728+254291462+254291071+254408565+254617805+254916923+255381667
2148+256090083+257023166+258162429+259698107+261938660+264959801+268545708
2138+272497477+276797671+281478461+286522446+291924339+297720317+303910059
2128+310438155+317314693+324626046+332337551+340242192+348135410+355820011
2118+363008549+369461305+375050694+379557779+382699707+384411670+384862251
2108+384263019+382748747+380314631+376908818+372629710+367705106+362368712
2098+356864307+351381646+345953008+340559104+335233636+329977636+324718290
2088+319376238+313929165+308474975+303181892+298128103+293327221+288863037
2078+284813703+281163347+277910545+275092896+272695595+270711508+269213090
2068+268216002+267540487+266887518+266060807+265111727+264221492+263500976
2058+262986853+262676436+262458957+262210321+261991046+261957397+262146156
2048+262481040+262862793+263228282+263630410+264186242+264936812+265886052
2038+267062433+268427751+269900598+271491064+273240360+275105281+277004758
2028+278865942+280631608+282301542+283897969+285429305+286939129+288371103
2018+289349419+289425577+288581784+287223797+285762925+284392874+283102291
2008+281762668+280281137+278713589+277212111+275882399+274689025+273491166
1998+272244090+271222517+270872544+271203317+271465298+270847276+269415871
1988+267899767+266827783+266283410+266108281+266030575+265864325+265687008
1978+265652843+265752347+265876496+265953972+266052088+266451261+267341354
1968+268312303+268593182+268018346+267245267+266863424+266858691+267038678
1958+267431517+268038151+268592506+268836159+268837156+268899346+269272540
1948+270073877+271454124+273497323+275602553+276423729+275312812+273355683
1938+272062092+271803438+272027020+272273841+272543706+272969250+273503071
1928+274122605+275228664+277184388+279404087+280946242+282039382+283438580
1918+284507379+283943468+282250313+281351252+282198105+284081461+285673528
1908+286257439+286141707+286061918+286359577+286880693+287453358+288198074
1898+289355896+290800611+291952027+292661279+293665699+295226039+296101808
1888+295206323+293378912+292033666+291411017+291031382+290653881+290290616
1878+290001214+289862207+289957281+290732816+293169210+297607467+302058875
1868+303025732+299643727+294839072+291470965+290071607+289792010+289823772
1858+289817651+289717986+289609194+289633447+290040023+291160050+293224834
1848+296451194+300859985+304971117+305659710+302129268+297746724+295513929
1838+295380812+295719823+295901572+297214113+300972407+305967191+308913349
1828+308702062+307455840+306308481+304356938+301642281+299724014+299392796
1818+299975479+300658948+301577582+303366452+305847580+307632001+307603566
1808+306426491+305792810+306899100+309931096+313939486+317022301+317793815
1798+317091378+317382239+320516871+325831556+329439864+327690000+322537845
1788+318764586+318306603+319956750+322056303+324119165+325878532+326762148
1778+327312126+329566060+335176659+343213048+349332877+349582100+345389471
1768+340426432+336813141+335956145+338398482+342180425+344232681+344474218
1758+344854618+345558123+346300526+348859271+354961627+362834132+367852155
1748+368000878+365753421+364073344+364245270+366239055+368836557+370350473
1738+371451354+375382233+383140038+389299405+387782678+381580854+375673272
1728+371425018+369291230+369453725+371141809+374326228+380911549+392202359
1718+404810140+410527469+406213484+397841571+391162440+388342976+389924225
1708+395441228+402624713+408450621+413190487+420187206+429796516+436619174
1698+437189223+433562409+426709359+418658770+414053498+414801523+419289996
1688+426245611+436873984+450343068+457813749+453054486+444046651+438917735
1678+439648500+444755849+450516737+454243555+457645061+462467884+465529845
1668+463331784+459587137+459881521+464510282+469074735+470246116+470336261
1658+473959837+484156421+501653183+520791124+527204768+522290057+521217540
1648+526777071+531027424+527018856+519599742+516103643+518606622+526924014
1638+540234517+554407852+560428106+555786961+550109740+550610393+557351376
1628+566913567+576663485+586812381+597272031+605708537+611970682+619991804
1618+632208899+644410265+649639290+649535159+650556536+654749165+659868508
1608+663260975+664773681+666052360+668086288+670446061+672546184+674837628
1598+678348034+683306376+688565508+692688028+695528454+698008301+700629076
1588+703216898+705701015+708246700+711036591+714540662+719708190+727487526
1578+737504355+745946981+747880765+746162431+748307537+756809310+767878335
1568+776252134+782055408+788683612+798073735+812014787+833944078+863380099
1558+884308796+885514946+879742492+875957204+874616815+874410404+874466491
1548+875167861+877895828+883222435+890502399+898476473+902126384+893180400
1538+876048096+863174400+857386928+854342370+849667309+844308601+841936444
1528+843220959+845894049+848767216+853007319+857892350+859577800+857089341
1518+853238143+848892984+843697127+839496384+839411685+845741377+859008676
1508+874784649+879086675+864252790+845719739+835368810+833484493+837029064
1498+841765550+842841733+839174241+835501055+836468267+841799572+846085798
1488+844007953+837009348+830320715+826890809+826623472+828342802+831512773
1478+836249543+842359159+848784440+852763897+850287537+841838861+833979239
1468+831441312+833612753+836243920+835823981+834520604+837396831+846235196
1458+856296439+857863666+849736350+840772999+835233860+832504897+831414407
1448+830913826+829987255+828378461+826585321+825317675+825710780+828930076
1438+834172482+837355122+835395003+831399247+829405888+829114422+827917738
1428+825287069+823304601+823251290+824511320+826599058+829716999+832215566
1418+830448476+824237221+817641402+813545287+811965462+811534847+811360608
1408+811758696+812973672+813939390+813739314+813495962+814700689+817032134
1398+819326923+821040773+821285832+818808548+814720547+812205468+812728257
1388+814470292+814546308+812977729+812794308+816025846+821746271+827523992
1378+831904099+835290374+838380841+840539114+840951509+840617906+841233153
1368+843340321+846856778+851673123+856317365+857949077+855859275+852814503
1358+851386853+851604224+852072492+851805012+851007626+850459001+850376081
1348+850207820+849603037+849273918+850596869+854231833+859073517+862767842
1338+863709360+862358651+860396752+859355232+860086211+862683641+866495976
1328+870346889+873125035+874634680+875955638+878539331+882720928+887347589
1318+891186757+894370821+897719444+901162446+903988138+906337733+909217803
1308+912999248+916796778+919456416+920724561+921331195+922187515+923628902
1298+925339763+926859302+927844166+927792990+926080920+922732795+918866509
1288+915898393+914337857+913643747+913210854+912950136+912668350+911604196
1278+909342504+906794683+905421055+905680350+906812976+907810224+908134218
1268+907925601+908040835+909438378+912020291+914382983+915243858+915050401
1258+915442226+917181272+919650442+922217124+924677967+926364841+926475378
1248+925487026+924811850+925004950+925293997+924806867+923671537+922663826
1238+921920035+920575732+918193823+915810064+914655801+914603913+914677367
1228+914414015+913965535+913301248+912119582+910562178+909491333+909742086
1218+911260415+913179964+914682776+915690132+916672078+917970401+919532503
1208+921263151+923327400+925828173+928335494+930079309+930743454+931007802
1198+932191033+935136870+939149638+942253984+943267816+943250378+944066768
1188+946105608+948294843+950056310+951926249+954175129+956327210+958070669
1178+959474191+960481547+961261850+962653201+965122372+967854396+969951031
1168+971796627+973922445+975621988+976384925+977609581+980876778+985252116
1158+987834742+986965824+984097213+982253253+983067152+985801667+989039753
1148+992190151+994908509+996501359+996827844+996670260+996764711+997122513
1138+997448642+997985381+999541932+1002322213+1004930818+1005653754+1005185201
1128+1006380106+1010780142+1016800716+1021706246+1024255988+1025008817
1120+1025514097+1027307806+1029968654+1030620271+1027244459+1022118426
1111+1020201440+1024294850+1032364869+1039536005+1042907333+1043423289
1103+1042710317+1040566849+1036832665+1033437991+1032729219+1034902725
1094+1037902015+1039183399+1038278465+1037278939+1037847850+1039175640
1085+1039867472+1040548699+1042921426+1046720522+1049917184+1051735164
1077+1053719127+1057511106+1062118834+1064068206+1061237959+1056135272
1068+1053372001+1054780506+1058952067+1063737806+1066552964+1065023603
1060+1061270984+1061338958+1067223016+1073502458+1073741823+1068084389
1051+1061821461+1059100326+1060234803+1062582618+1063009532+1060954963
1043+1059056197+1060103981+1063876671+1067283800+1067399889+1064485654
1034+1061592772+1060942578+1062273571+1063828556+1063607696+1060989483
1025+1057739083+1056297197+1057646839+1061000159+1064979047+1068186741
1017+1068609598+1065285602+1060138786+1055685510+1052638603+1051231451
1008+1052900460+1058420666+1065397847+1069675816+1069411539+1066386625
1000+1063074018+1060165619+1057400000+1055540239+1055938327+1057846986
991+1058471058+1056915860+1055233470+1055053608+1056007155+1056991449
983+1056900273+1055332903+1053439690+1051489037+1047241887+1040534321
974+1035918194+1036725616+1039982564+1040041071+1035649860+1030545252
965+1028098786+1028172596+1028632892+1027813227+1024733579+1018956926
957+1011915900+1006323877+1003025789+1000660108+998714865+998176845+998916507
947+998917290+996581432+992391294+988269913+986030925+986014128+986790659
937+986551436+985053749+983652077+983501611+984445976+985165495+984073938
927+980699621+976647422+974521747+975237352+977133057+978415295+979290120
917+980472640+981259350+980493708+978123971+974647444+970352962+966319625
907+964870764+967423567+972178701+975185963+974293201+970972764+967710407
897+965260525+963064172+961109391+960295065+960928462+961803145+961671540
887+961101704+961413669+962070055+961185123+958755882+957226449+958499078
877+961702644+963851166+962559035+958426621+954315417+952417862+952589895
867+953488778+954198689+954357482+954184809+954473144+955342916+955337151
857+953282937+950682660+950027270+951519904+953475041+954668237+954664109
847+953012752+950131543+948211852+949243336+952530036+955488257+956606221
837+956409917+955707622+954356272+952301560+950660310+950550984+951668235
827+953055600+954271644+955246899+955947984+956801386+958826061+962467218
817+966325391+968037817+966992311+965017743+963899068+963710949+963677781
807+962876338+960458130+957160967+955535234+957381186+961609617+965196181
797+966111791+964731046+963082322+963354428+966526178+971336687+975096423
787+976134669+974191561+969520842+963557067+959427001+959640174+963246668
777+966722055+967846638+966980923+964821724+961768340+959268421+959259880
767+961893183+964886494+965736479+964622217+964346979+966631163+969369522
757+969062539+965897693+964139501+967073950+973353534+978988120+982195743
747+984054151+984997021+983693146+979611409+974375053+969938717+966987827
737+965455832+965639822+967712613+969978078+969734015+967365985+966692944
727+969661486+973721799+975396502+974157753+971915776+970034805+968005645
717+965358605+963519770+964041990+965995418+967221640+967643003+969143395
707+972437924+975610244+976137374+974059387+971835845+970451612+968117890
697+963218909+957011355+952956879+952796092+954213422+953803875+951365594
687+948843255+946824629+944551051+942290995+941367129+942248717+944148479
677+945799266+945663818+942336548+936152482+929575738+925152356+923249036
667+921846581+919812510+919087083+922323105+929151030+934722198+934013854
657+927399884+919890163+916805391+919500901+922845752+920095293+911933314
647+906361007+909299798+918257597+924896549+922773366+913481608+904147857
637+899193643+897592181+896500268+895082725+894666985+896101041+899173429
627+902599349+902503404+895936553+886520380+880572192+879181482+878023731
617+875185868+875090563+882122906+894265124+903577025+902804479+890621121
607+872081807+856916240+853105400+860669428+871029681+873923916
##END=
