##TITLE=<SNM>
##JCAMP-DX=4.24
##DATA TYPE=INFRARED SPECTRUM
##DATE=2/5/2025
##SAMPLING PROCEDURE=Instrument type and / or accessory
##ORIGIN=Admin
##XUNITS=1/CM
##YUNITS=ABSORBANCE
##RESOLUTION=4
##FIRSTX=4497.3318
##LASTX=599.83466
##DELTAX=-1.4281778
##MAXY=1.816788
##MINY=0.31804073
##XFACTOR=1
##YFACTOR=1.6920156e-09
##NPOINTS=2730
##FIRSTY=0.34147376
##XYDATA=(X++(Y..Y))
4497+201814776+201261818+199931893+198609771+198210772+198528572+198555380
4487+197859171+197004406+196678327+196959931+197498323+197958723+198082440
4477+197682737+196971873+196681462+197442753+199086427+200773572+201704763
4467+201655691+200985973+200220402+199694375+199484404+199339921+198835470
4457+198036310+197682895+198158830+198706980+198459193+197824754+197948806
4447+199106929+200367246+200648128+199729708+198366563+197626920+198043567
4437+199303161+200657745+201426540+201262822+200350531+199267124+198411231
4427+197785459+197359441+197161518+196978866+196376396+195168462+193816062
4417+193253839+194036812+195629002+196987285+197790179+198344952+198479519
4407+197684410+196397708+195970053+197053618+198731709+199472251+198648785
4397+196951495+195505003+194910953+195077206+195586501+196019811+196056147
4387+195603762+194911974+194316215+193892346+193529649+193190061+192847143
4377+192357734+191680953+191001301+190487004+190216338+190328201+190897698
4367+191709839+192392521+192733783+192829001+192916276+193018576+192939456
4357+192804906+193166423+194117711+194855206+194698199+194010727+193486866
4347+193081632+192320535+191241725+190395203+190216655+190774281+191691486
4337+192111462+191437077+190269072+189803002+190327567+191130338+191750826
4327+192408285+193128854+193323536+192592663+191361515+190255281+189311039
4317+188403450+187965596+188465608+189505756+190223348+190415811+190622664
4307+191122729+191509856+191512498+191558029+191978833+192234546+191695942
4297+190716720+190123286+190081383+190108825+189896459+189663679+189822095
4287+190471011+191196564+191414373+190947809+190184387+189703186+189844552
4277+190526705+191252487+191397799+190856078+190343648+190630079+191489776
4267+191877273+191194098+189974522+189159210+189081922+189422110+189831553
4257+190256919+190768732+191383813+192020260+192482280+192639374+192633879
4247+192633879+192471201+191915054+191178863+190773805+190913075+191310224
4237+191596972+191769267+192037063+192378395+192561294+192553597+192643408
4227+193123799+193901135+194421068+194214920+193555928+193173433+193351083
4217+193721072+193888048+193826102+193695233+193568451+193294421+192590638
4207+191465153+190471698+190240045+190788724+191578584+192185809+192575349
4197+192788156+192833704+192868826+193011512+193081262+192951979+192891107
4187+193096004+193197617+192635587+191365231+190030269+189522524+190235360
4177+191626686+192771775+193366284+193819409+194493407+195288815+195775001
4167+195459701+194263234+192848517+192032624+191912747+192065086+192279848
4157+192425617+192054412+191050654+190266413+190627085+191912500+193136339
4147+193835807+194272992+194623166+194685887+194317430+193698739+193212518
4137+193196014+193587351+193813561+193417081+192755377+192672012+193521159
4127+194827782+195848097+196182982+195909744+195353721+194748697+194091432
4117+193363448+192795888+192690048+193002899+193346821+193435505+193357459
4107+193333611+193380163+193426575+193614986+194099992+194629137+194743836
4097+194341790+193726938+193197088+192792031+192363388+191822002+191390383
4087+191451696+192025086+192672981+193068404+193316543+193581943+193749166
4077+193650020+193381449+193189955+193188282+193319643+193467702+193533788
4067+193495285+193401475+193316596+193343738+193568064+193792953+193590891
4057+192900988+192254273+192152643+192556045+193123816+193626100+194006746
4047+194307849+194566802+194593892+194028499+192889592+191811522+191409547
4037+191659500+192182357+192793686+193461978+194074188+194466405+194508731
4027+194213775+193889229+193967926+194563333+195359269+195901554+195929559
4017+195594497+195316997+195325240+195481789+195530367+195314672+194898341
4007+194596657+194667798+195004357+195338027+195570614+195738840+195857520
3997+195896728+195777149+195416073+194871586+194402891+194359544+194937831
3987+195941114+196853986+197224874+196944590+196268161+195696656+195733609
3977+196572716+197936354+199172099+199646607+199268956+198571866+198155272
3967+198237932+198819301+199836287+200911257+201393937+201004397+200120463
3957+199274698+198780005+198967008+200324533+202944084+205804059+207177665
3947+206495530+205289709+205189048+205733710+205306495+203634833+201905909
3937+201162214+201985275+204665416+208371650+210821001+210407894+208430250
3927+207529759+208508647+209734459+209700271+209205913+209825996+211453924
3917+212387775+211267415+208375507+205111725+202809640+202244123+204012677
3907+208844396+216707486+225361775+231116529+232275181+229710215+224365027
3897+217641689+212652083+212156580+215633609+218841063+218358594+216703136
3887+217938318+221375065+223464255+224016033+224914111+224548912+220991654
3878+217510697+218191547+222782683+228570515+233694671+236378299+234960993
3868+231700822+230553038+231488439+231042676+227600434+223540222+222187435
3858+225830770+235618365+249390098+256913724+249482199+235606317+224967620
3848+220065554+220593730+225176798+231655027+238263243+244282447+248425918
3838+248270161+243824601+238508705+234689076+232008354+229692319+228187739
3828+227953778+228928809+232218923+239431089+248114652+251407813+248219875
3818+244063000+240310884+234675760+228324296+224940055+226266563+231504203
3808+237553261+241372168+244428692+249836830+255557678+256347555+252924265
3798+249633288+246738209+242968021+239629435+238690424+240288092+243640822
3788+248346058+253914074+259294101+264321664+270490229+278525051+286499054
3778+292610675+298519178+307154303+319549418+334558659+349294151+360540690
3768+367534836+371384901+372895047+373643445+375683018+378653394+380255519
3758+380425066+382103915+387856485+398431104+411991176+422975273+428055712
3748+432168148+440536323+451440103+458109808+460096506+464230923+474835274
3738+491664870+510659589+525471417+532533058+534604793+537167981+543628614
3728+554088005+565477953+573516086+576980909+577710390+576975801+575467803
3718+574802823+576815307+582506687+590517203+595092768+590258777+578688291
3708+568258103+563907075+566286870+571879299+574450940+571628799+568086336
3698+568195082+571332364+575523391+581858264+592812454+605753799+610784497
3688+602921266+590615169+582866496+582056662+586708494+593911466+601819013
3678+610153722+615681967+612596785+604266585+599339665+598201904+594837161
3668+587604810+580561205+575788404+572331472+569683423+569380894+572376669
3658+576248398+577611965+577878810+582234559+592609828+604153788+607307803
3648+599097797+587445302+578837266+573642481+570275096+568341662+568344198
3638+570223418+573162900+576227861+579383813+584367343+592329280+598647525
3628+595875864+586590625+579635440+579166286+584141044+590429065+593594000
3618+593674599+594893172+599002966+603271281+604970914+605078779+605439151
3608+604971195+602098504+598556710+597622067+600464393+605421115+610238549
3598+614354049+618171036+620691881+620432047+619021839+620613043+626841741
3588+633344646+634578367+631247583+626817364+622784436+620006434+619694957
3578+621605035+623597475+623954395+623092038+622824312+624720300+628831010
3568+632815044+633264329+629917341+625911325+623341304+621730021+620033700
3558+618297220+616995652+616016130+615102060+614741053+615884240+618414385
3548+620523637+620301073+617711606+614206448+610978316+608756337+607855301
3538+607209590+604946396+601319353+599422519+601754899+607022464+611348340
3528+612526402+611649179+610384107+608558925+605401669+601836485+599943386
3518+600284524+600919244+599538768+596096385+592570585+590757063+590997805
3508+592295110+593281889+593289216+592530990+591597826+590976492+590728389
3498+590500364+590040229+589474659+588941992+588518458+588376458+588111868
3488+586460989+583039038+579664784+578432297+578998324+578964330+576901401
3478+573809844+571494373+570634094+570641245+570918482+571509521+572225721
3468+572032923+570064333+567037523+564982837+565062239+566094003+565869607
3458+563846520+561683018+560975519+561696897+562858508+563428305+562723518
3448+561144608+560213171+560500799+560446444+558604318+555779359+553606417
3438+552302595+551120059+549970919+549465588+549914133+550711426+550732562
3428+549391153+547201090+545398841+544923840+545442840+545537459+544232475
3418+542055693+540149383+538947121+538262766+537992504+538085997+537943750
3408+536638026+534074662+531371518+529890962+530170453+531610991+533020177
3398+533736342+534117040+534368596+533658737+531509643+529217210+528651676
3388+530072240+531733863+531509854+528978019+525881636+524276165+524499575
3378+525203093+524985602+523613369+521899822+520920933+521309804+522919362
3368+525011176+526680936+527257779+526691575+525461237+523903005+522052566
3358+520258137+519249412+519305670+519908756+520441106+520675789+520487571
3348+519723849+518631319+517963098+518393642+519853273+521315863+521472835
3338+519962407+517757478+516119634+515553958+515779446+516081060+515735096
3328+514655141+513524847+512967451+512962695+513306757+514078299+515253613
3318+516197450+516058515+514842972+513618551+513259729+513385736+512929758
3308+511536565+509857751+508629033+508043138+507911248+507940733+507795598
3298+507277021+506650368+506561173+507391086+508690822+509382645+508847370
3288+507877853+507938514+509331002+510832060+511397312+511340703+511375577
3278+511411932+510954615+510153306+509827844+510411062+511148187+510783658
3268+509061515+507021801+505844515+505903802+506733574+507471862+507529986
3258+507076192+506623278+506350938+506193685+506122879+506025405+505718860
3248+505193766+504610583+504125226+503783277+503388312+502581155+501379879
3238+500376015+500011134+499971292+499669362+499007200+498300546+497725676
3228+497048684+495807178+494004401+492629421+492692512+493552474+493263084
3218+491050828+488361070+487054500+487439989+488242320+488144107+487138341
3208+486152759+485643835+485242177+484626303+483920671+483192423+482205080
3198+480802447+479228610+477928099+477036609+476298498+475621681+475198816
3188+474981501+474781306+474798180+475156473+475191595+474084163+471944933
3178+469683324+467986897+466749055+465469293+463974858+462450092+460959955
3168+459518114+458475288+458194424+458343363+458056756+456879435+455216015
3158+453845720+453172145+453033843+453102289+453089643+452589913+451257627
3148+449237147+447026371+444993491+443343599+442349387+442156766+442407864
3138+442507274+442348224+442323882+442526720+442495050+441898552+440910187
3128+439829212+438846907+438108901+437624107+437213289+436724515+436160706
3118+435550962+434815880+433873382+432919117+432336991+432117139+431709387
3108+430812824+429875575+429402722+429279217+429130735+428914053+428743872
3098+428400620+427495603+426128795+424907369+424186554+423780598+423504982
3088+423439178+423489059+423247508+422572030+421877565+421553652+421370965
3078+420754563+419566884+418370892+417796974+417857318+418116589+418325696
3068+418492602+418449589+417837802+416529048+414770340+413025652+411844033
3058+411555524+411830611+411827617+411050685+409846943+408867914+408334578
3048+408017887+407612213+406875017+405750818+404653532+404183145+404315634
3038+404403843+404118891+403789202+403675630+403464268+402680432+401348041
3028+400031607+399182214+398613263+397843235+396737037+395490248+394261741
3018+393158572+392360011+392007917+392067134+392332076+392466749+392097499
3008+391074014+389687867+388469364+387688804+387207956+386826236+386454485
2998+385914455+384980306+383758809+382739586+382324260+382383829+382380200
2988+381980057+381352840+380695469+379870347+378841295+377977142+377549873
2978+377367820+377116370+376656693+375964376+375166203+374540078+374200877
2968+373965138+373675431+373397420+373150055+372720216+371936591+370911555
2958+369851363+368848451+368003496+367501969+367382690+367411541+367318295
2948+366986809+366356880+365390462+364231811+363180038+362383133+361747708
2938+361179884+360651021+360074284+359419273+358843417+358483362+358282920
2928+358103122+357748844+356987271+355867158+354809080+354135962+353830720
2918+353814304+354031267+354247702+354164355+353737016+353126462+352397580
2908+351517926+350621399+349987947+349678125+349405363+348866742+348052012
2898+347208818+346627502+346404515+346322049+346056719+345525002+344891550
2888+344306254+343818360+343483210+343353152+343336419+343214463+342908305
2878+342611341+342512389+342469377+342126970+341368497+340506951+339925036
2868+339620604+339294331+338814892+338280075+337685866+336944091+336169872
2858+335583800+335228994+335027566+334940133+334933968+334955139+334919630
2848+334660958+334078550+333345335+332709558+332178124+331666733+331273213
2838+331091371+330941726+330575577+329991654+329317480+328553688+327697671
2828+326973334+326649879+326688453+326791104+326745309+326498615+325959254
2818+325025386+323896220+323100935+322989054+323292781+323401809+323001207
2808+322244918+321446534+320866873+320638743+320605454+320389265+319857549
2798+319310298+319005408+318775587+318310414+317538062+316575555+315589727
2788+314811316+314380349+314110016+313710683+313234273+312949181+312838251
2778+312595643+312077771+311430650+310781346+310054930+309131067+308073904
2768+307179737+306741936+306701284+306639355+306238119+305606499+305035117
2758+304612252+304227362+303786214+303265453+302648699+301924819+301145527
2748+300448948+299970002+299679097+299365859+298858379+298221932+297654038
2738+297222824+296815142+296326508+295778341+295249213+294814283+294508354
2728+294202372+293623522+292708219+291802515+291278566+291081876+290866445
2718+290458323+289997430+289671757+289450073+289124435+288582996+287961715
2708+287485023+287216663+287025645+286768030+286441898+286123059+285800538
2698+285395286+284933460+284553220+284322624+284160228+283943317+283618542
2688+283204783+282756467+282367895+282154719+282110597+282022001+281693210
2678+281214263+280837546+280674779+280630552+280507575+280120077+279433415
2668+278613330+277897711+277477471+277434300+277631325+277747644+277559691
2658+277093109+276481621+275855496+275352807+275060652+274935860+274857832
2648+274725977+274488089+274142847+273748886+273408170+273192933+273048256
2638+272804890+272364606+271855241+271522081+271455749+271485375+271379394
2628+271102140+270804807+270618861+270550432+270517530+270391523+270064705
2618+269561593+269041924+268657492+268427213+268238237+267964524+267617819
2608+267351820+267269054+267283709+267234567+267077560+266908717+266842297
2598+266902588+266996503+266973852+266754758+266410872+266107021+265976364
2588+266038064+266177035+266226617+266143516+266056418+266068536+266088087
2578+265952604+265664781+265415814+265389746+265567132+265724280+265659321
2568+265417188+265211128+265138930+265116825+265102329+265176746+265342613
2558+265461839+265473058+265444295+265373701+265183545+264892605+264558231
2548+264161874+263756411+263512323+263440830+263332348+263077252+262777734
2538+262515117+262268898+262042494+261844606+261598264+261253973+260927471
2528+260770693+260771715+260803842+260792252+260716127+260545910+260298282
2518+260064515+259907279+259808344+259725103+259624178+259514393+259488712
2508+259624407+259837935+259953110+259888926+259702470+259507964+259387487
2498+259318442+259213871+259055209+258883125+258663484+258315072+257882731
2488+257551227+257465414+257580465+257664975+257472283+257005243+256581375
2478+256500000+256679711+256783595+256652533+256410383+256193032+256009975
2468+255859415+255778622+255760638+255734147+255634561+255446537+255182140
2458+254858492+254519908+254235045+254010930+253769432+253487087+253269966
2448+253218464+253315320+253475216+253598634+253598440+253483547+253357205
2438+253252405+253084319+252853389+252728949+252784273+252804071+252555192
2428+252134546+251824778+251712421+251687058+251712509+251838604+251998095
2418+252035770+251954765+251961564+252213596+252619076+252928405+252962099
2408+252745559+252494144+252436195+252582704+252740416+252789487+252818549
2398+252958893+253257284+253787750+254794802+256694577+259994995+265249701
2388+273058754+284024797+298630037+317130979+339511999+365445487+394300808
2378+425250868+457318152+489285497+519872155+548314404+574487295+598133845
2368+618221904+633303360+642499370+645909203+644083810+637995175+629028352
2358+617434792+601505069+579311950+551184313+521505385+497529074+484924112
2348+485689066+498609768+518666546+537632801+549686743+554716807+555155066
2338+553695118+552637709+553006254+554381763+555574303+555420995+553317097
2328+549250175+543383469+535753581+526648915+516992523+507582439+498076079
2318+487650048+476563863+466082807+456835683+447978063+438091463+426502765
2308+413617572+400391557+387741398+376201454+365811953+356270719+347260073
2298+338661760+330510830+322882527+315869394+309511307+303646997+297983692
2288+292436953+287265541+282786920+279107671+276152372+273766165+271762999
2278+270012058+268475262+267110920+265840811+264664123+263672448+262874221
2268+262112279+261251102+260360845+259595186+258956943+258336296+257718995
2258+257183492+256728306+256261883+255744081+255214408+254687025+254114322
2248+253490117+252938515+252623427+252543197+252472109+252167343+251619756
2238+251051228+250680393+250553734+250584611+250661282+250715814+250747043
2228+250745475+250601731+250241641+249845337+249698863+249821506+249972207
2218+250001498+249977280+250002203+250092402+250212385+250324970+250419484
2208+250516499+250636025+250783467+250983522+251282933+251691479+252139408
2198+252506878+252700521+252720882+252671987+252703920+252911830+253243263
2188+253514441+253584807+253516590+253493358+253614961+253853836+254131195
2178+254331479+254346485+254196453+254003040+253829582+253670003+253532741
2168+253405889+253239142+253052210+252928810+252865665+252778355+252666703
2158+252610129+252598134+252525002+252369845+252237110+252211940+252316212
2148+252578865+253015204+253617938+254488749+255833417+257728278+260055515
2138+262713674+265725971+269128758+272898559+277024275+281573861+286609262
2128+292041794+297709696+303626107+309972358+316812069+323956563+331080873
2118+337873697+344121241+349627716+354059097+357073859+358608524+358770638
2108+357512400+354673491+350328134+344948266+339142609+333215665+327104625
2098+320764116+314364215+308085142+301999993+296190919+290796766+285941886
2088+281661911+277877227+274487385+271519615+269106706+267302185+265960089
2078+264815300+263712025+262717126+261932075+261292088+260685250+260166497
2068+259909763+259966725+260128804+260092221+259776059+259354726+259003161
2058+258796361+258761609+258812812+258768831+258582057+258395354+258351532
2048+258501616+258832803+259273264+259713601+260033022+260136132+260062314
2038+259981327+260000525+260111772+260305116+260558186+260811204+261077573
2028+261426109+261830956+262203763+262528803+262898264+263491416+264402668
2018+265345061+265765848+265461345+264820320+264338027+264168937+264185899
2008+264230161+264230461+264190003+264143080+264142763+264228964+264337674
1998+264369784+264510322+265224972+266574889+267772413+267940270+267136337
1988+266078840+265244329+264728782+264546976+264651212+264886458+265111066
1978+265275981+265415832+265594010+265805407+266068078+266631234+267699000
1968+268833028+269166187+268506879+267657943+267361596+267547630+267828618
1958+268153781+268627249+269111233+269391534+269525256+269788560+270374526
1948+271334938+272826766+275003196+277246487+278067435+276756532+274530837
1938+273045103+272709478+272945851+273223898+273458862+273773474+274158523
1928+274572035+275387840+277042981+279051272+280458785+281410513+282635338
1918+283522777+282756519+280780742+279505225+279951199+281482957+282766823
1908+283045715+282644427+282340858+282448354+282721962+282962104+283398444
1898+284390242+285769062+286822896+287406326+288405381+290145454+291241525
1888+290406698+288487302+287108041+286669518+286648223+286645915+286554589
1878+286392352+286310255+286595418+287855822+291010753+296193702+301221301
1868+302463968+299056566+294102345+290693217+289487238+289564755+289916919
1858+290076180+290060645+290077889+290254746+290739417+291878007+294063402
1848+297634099+302546540+307092233+307897981+304138343+299371249+296776357
1838+296447442+296884152+297426471+299164219+303263480+308507513+311631444
1828+311485675+310115591+308619430+306233469+303265946+301343151+301041467
1818+301504314+302025286+302994804+305137698+308129175+310341819+310486919
1808+309200887+308278503+309114862+312115287+316400300+319855788+320746784
1798+319800763+319725624+322687898+328149352+332047643+330426038+325215224
1788+321383653+320948529+322666586+324841501+326948464+328624212+329266048
1778+329593131+331856396+337741595+346196006+352652835+352911260+348366236
1768+342868710+338781426+337730569+340318275+344375721+346491350+346508611
1758+346585300+347078866+347814300+350665855+357340880+365812904+371066131
1748+370971019+368300530+366346030+366423670+368270763+370542693+371812733
1738+373096017+377614198+385978357+392153933+389909973+382893176+376501271
1728+372056010+369890501+370128212+371951703+375260963+381923165+393249352
1718+405793477+411214350+406454477+397763658+390986545+388191670+389812852
1708+395330564+402399637+407961066+412477168+419560473+429551486+436557398
1698+436734766+432419880+424940870+416446089+411541151+412082942+416481844
1688+423568637+434644466+448730301+456324116+450807532+440747122+434730772
1678+434849945+439661179+445410297+449321939+453100880+458383276+461444714
1668+458371862+453430640+452876977+456977753+460892389+461172515+460531489
1658+463881965+474269352+492364267+512151664+518266649+512296024+510505365
1648+515805726+519848236+515519612+508018303+504811377+507710102+516270440
1638+529785633+544640650+552034024+548678123+543710059+544758485+552366708
1628+563223530+574373124+585607897+596756258+605866173+613233690+622801908
1618+636725453+650486389+656958154+657767952+659258477+663450068+668553052
1608+672479173+674916740+676849858+679087970+681663135+684279867+686924288
1598+689924361+693540977+697577217+701581118+705455666+709381575+713171578
1588+716388367+719044483+721594778+724373343+727542294+731808143+738644437
1578+748505815+757819060+761124058+760750581+764084888+773443717+784787376
1568+792885290+798307219+804920314+814751608+829164879+850830614+878226586
1558+895419901+894198722+888205481+884958115+884100196+883821621+882312989
1548+879875774+879801233+884512211+892897084+901980368+906234381+897380143
1538+879464041+865756438+860094542+858096818+854403760+849403991+847270080
1528+849052144+852054682+854466746+857713126+862111147+864550054+863588638
1518+860966692+856882262+851165905+846509529+846316414+852063982+863268495
1508+875603724+877449901+863497259+847379072+838751838+837261947+839953219
1498+843282806+843598158+840561238+838434654+840945001+847269235+851927936
1488+849688132+841929877+834136959+829904152+829291907+830464755+832490237
1478+836193934+842254882+849520663+854488657+852510238+843647053+834637394
1468+831123641+833408535+837189238+837771752+836699019+839644631+848980140
1458+859634125+860339792+849534401+838313121+832709490+831976205+832993068
1448+832525464+829605427+826106681+823957763+823407165+824405287+827658572
1438+832731120+835718370+833018642+827649835+824550845+824418462+824897620
1428+824842948+825518883+827320252+828734475+829445779+831033108+832904577
1418+831239749+825274972+818880636+814558071+811808251+809641861+808502619
1408+809465796+811850312+812862947+811198471+809625304+811332475+815803980
1398+819787238+821183355+820239271+817918023+815519768+814486349+815025674
1388+815466435+813873117+810946457+809691108+811916468+816799495+822553051
1378+828451250+834611960+840267585+843730541+844742965+845045917+845840286
1368+846898365+848289761+850776787+853960745+855843558+855306980+853682452
1358+852751825+852691305+852441827+851372124+850154679+849734843+849974034
1348+849983334+849569065+849741959+851689801+855432459+859473067+861914721
1338+862147079+861135077+860263420+860607024+862628491+865627929+868091424
1328+869337192+870182500+871672813+874147088+877661545+882146859+886829303
1318+890513343+892912655+894998516+897860569+901798737+906354012+910645929
1308+913840666+915911169+917811877+920203650+922400054+923613061+924492327
1298+926156028+928490874+930339587+930784011+929733682+927730604+925331434
1288+922605427+919520739+916553287+914241972+912524163+911129948+910190655
1278+909952944+910233703+910509037+910439710+910218344+910429424+911552954
1268+913545675+915895528+918034160+919593307+920407051+920674001+921113634
1258+922469169+924680439+926838727+928280921+929493293+931327775+933463236
1248+934648272+934764169+935107844+935946528+935756725+933789720+931330452
1238+929541836+928129515+926658153+925328968+924077775+922347707+920090571
1228+918039514+916786771+916199889+915787452+915252001+914720919+914709505
1218+915757016+917794968+919996656+921462945+921968946+922103302+922737247
1208+924195645+926058308+927990509+930336557+933414129+936658678+938923845
1198+939566244+939179311+939067853+939960857+941611313+943595368+945773031
1188+947785339+949098954+950018238+951557094+954023267+956629713+958618629
1178+959902724+960663346+961276366+962491205+964967804+968566877+972277408
1168+974993269+976517753+977573577+978774324+979972959+980858636+981702534
1158+983014106+984873035+986964603+988899693+990153986+990275942+989415205
1148+988401301+988306752+989674969+991890889+993821399+995213148+996779552
1138+999300960+1003246173+1007937001+1010711410+1009480367+1006083990
1130+1004229288+1005358032+1008504579+1012427740+1015796146+1017044169
1121+1016286858+1015470296+1015791003+1017175002+1019854438+1024018341
1113+1028438837+1031124121+1031339006+1030710133+1031897847+1035418857
1104+1038386309+1037843743+1034762155+1032980655+1035017410+1040055365
1095+1045221898+1048267273+1048454187+1046095317+1042499837+1039278046
1087+1036900434+1034976969+1034292086+1036293473+1040689310+1045426708
1078+1048581357+1049281317+1048138553+1047824399+1051299684+1058316974
1070+1065412397+1069326188+1069094465+1065902405+1061441046+1056825040
1061+1053087455+1051012725+1050313680+1050704700+1053353066+1059416902
1053+1067483252+1073334810+1073236809+1068299885+1064088637+1064720257
1044+1068444527+1070133803+1067899565+1065057098+1065096693+1067095121
1035+1066937093+1062727466+1057674363+1056482563+1060228039+1065440579
1027+1067976853+1067610704+1067716314+1070489102+1073741823+1073249984
1018+1068198220+1062476015+1060112988+1061626128+1065001087+1068150522
1010+1069505776+1067952969+1064063626+1060673942+1060657597+1063953224
1001+1067599924+1068384430+1065294035+1060323081+1056477913+1055063267
993+1054956599+1054348088+1052937951+1051523587+1050843917+1051389513
984+1052521638+1051951665+1048256634+1043665428+1041718220+1042773128
975+1043909551+1043010981+1041154377+1040159707+1039639897+1037967390
967+1035325364+1033767696+1034135325+1034828522+1033951863+1031125882
958+1027403797+1023945069+1020424552+1015910141+1010694642+1006210032
950+1003392365+1002046975+1001393162+1000353120+998009326+994549753+991280475
940+989191373+988258703+988190785+988743003+989228502+988617313+986758455
930+984855422+983977846+983716392+983054476+981959409+981350405+981869581
920+983103019+983770782+982587366+979570877+976228257+973746092+971692780
910+969272967+967094177+966365541+966928187+967236916+966619739+966732959
900+969533365+974060881+976821057+975812226+972168134+967950827+964715649
890+963525681+964391983+965971281+966793690+966495952+965688689+965040019
880+964471315+963233931+961154481+959310558+958864584+959976912+962033606
870+963915151+964065147+961852116+958894246+957089777+955820830+953468864
860+951147052+951806220+955578398+959156616+960496511+961272632+963635166
850+966806936+967945472+965812336+962416805+960910287+962171555+963822504
840+963488411+961861416+960468752+958610104+955587486+953648099+955135806
830+958739740+961304970+961728469+960680748+958534437+956085526+955334697
820+957258303+960256615+962567295+964641109+967533598+970263339+970754756
810+968876381+966587612+965445975+965492123+966063082+966640382+967246850
800+968382569+969955737+970541421+968943453+966412604+966075341+969248308
790+972885426+972523292+968197698+964458703+964360631+966471927+968036076
780+969054348+971276327+974542293+976707697+976732426+975706334+974877372
770+974665094+975355262+976730101+977315081+975671318+972212097+968726173
760+966917689+967707479+970449972+972617489+971997423+969651446+968351499
750+968136685+966770934+964588691+964919191+968701373+972073232+971305072
740+968157750+967292364+970619413+975944187+979926952+981400780+981151372
730+979850439+977779302+975412329+972839349+969489331+965067285+960301846
720+956878063+956271102+959136255+965286538+972831035+977981083+977606267
710+972430575+966036591+961247550+959227563+960529413+964473428+968717578
700+971510023+973724251+976506339+978212947+977278515+976211278+977411110
690+977452255+971002613+959458230+949172508+942884558+938894677+935937933
680+934036732+932067190+928715411+926141373+928282964+933755127+935119469
670+928375540+919876462+919184040+924473868+928650522+931110354+934033913
660+936188749+934285293+928226037+921195431+916209683+914616647+915288708
650+914582265+910522564+906414391+907386374+914707603+923371403+925543923
640+917885924+904213478+890938110+882406693+879777702+881325365+883689802
630+883998390+881359253+876908180+872800289+871416502+873488624+876855481
620+879019828+880240444+882833010+888378023+896440357+903738618+903191754
610+890174741+870582326+854944988+848841839+851527405+860386996+874662670
600+892532555
##END=
