##TITLE=<SNM>
##JCAMP-DX=4.24
##DATA TYPE=INFRARED SPECTRUM
##DATE=3/5/2025
##SAMPLING PROCEDURE=Instrument type and / or accessory
##ORIGIN=Admin
##XUNITS=1/CM
##YUNITS=ABSORBANCE
##RESOLUTION=4
##FIRSTX=4497.3318
##LASTX=599.83466
##DELTAX=-1.4281778
##MAXY=1.7440653
##MINY=0.1908229
##XFACTOR=1
##YFACTOR=1.6242874e-09
##NPOINTS=2730
##FIRSTY=0.21078891
##XYDATA=(X++(Y..Y))
4497+129773160+128823297+128577700+129080581+129918568+130466483+130477978
4487+130140092+129793958+129873624+130649228+131737518+132274333+131772865
4477+130549984+129331498+128760602+129162752+130328149+131444364+131674851
4467+131007683+130217346+129983840+130374230+131028545+131510398+131654824
4457+131711877+131883347+131855972+131236546+130278646+129695081+129837754
4447+130383807+130787627+130792434+130444722+129823269+129055866+128514446
4437+128577517+129127827+129565553+129369790+128570141+127757208+127532923
4427+127792574+127824646+127326582+126802528+126633746+126475669+125981073
4417+125400443+125063942+124871170+124637582+124525100+124813007+125401838
4407+125796309+125709175+125505155+125703129+126175084+126245916+125506173
4397+124252046+123222846+123016395+123622712+124508678+125160893+125390737
4387+125224248+124792062+124214689+123422453+122286175+120961646+119839110
4377+119239555+119312157+119920052+120550157+120737838+120574973+120454739
4367+120500306+120592587+120704867+120847953+120808065+120264626+119274902
4357+118470611+118493353+119256435+120091807+120615723+121007681+121367080
4347+121385272+120896493+120207564+119594541+119004123+118509811+118469005
4337+118884788+119172199+118890036+118291113+117975207+118267453+118945703
4327+119466849+119526425+119300828+119044617+118799204+118645990+118785021
4317+119174768+119464335+119323359+118670704+117817314+117480997+118194713
4307+119556405+120596137+120975077+121196757+121644217+122125841+122344016
4297+122141510+121385227+120242141+119449538+119736187+120967013+122210049
4287+122683334+122397464+121740589+120788332+119511774+118407274+118207887
4277+119008196+120185152+121080055+121415868+121249626+120819459+120363127
4267+119996884+119755645+119645374+119681373+119971747+120629438+121493094
4257+122156207+122438949+122601420+122901665+123203489+123274394+123232772
4247+123359795+123632454+123840061+123968625+124087502+124055952+123682939
4237+123059797+122527019+122333466+122378648+122327999+122035771+121735333
4227+121747773+122191472+122927031+123561457+123753367+123730405+124081401
4217+124845391+125403416+125407599+125171021+125057731+125043108+124901113
4207+124585969+124467423+125035044+126186588+127169120+127445972+127197706
4197+126864453+126630397+126422322+126155213+125944827+126049217+126510402
4187+127042602+127380287+127473714+127331866+127027859+126862682+127166194
4177+127828040+128236282+127890442+127078050+126701651+127344334+128678146
4167+129829699+130153889+129641835+128779482+128099095+127805959+127783400
4157+127841389+127856654+127797840+127800876+128092948+128683045+129279160
4147+129629028+129734382+129576626+128955842+127908771+126962541+126611591
4137+126750163+126934358+127013924+127181909+127631470+128447036+129561700
4127+130600395+131062268+130837900+130300122+129850598+129654312+129758097
4117+130128165+130581956+130902485+131018224+131012233+130986454+130905054
4107+130591818+129998326+129466291+129521619+130298801+131314167+131978023
4097+132207299+132307836+132389934+132245398+131753462+131110844+130665494
4087+130655980+131025058+131406925+131398246+130926090+130347056+130109836
4077+130291407+130581846+130714703+130644807+130328167+129727520+129068728
4067+128724979+128785647+128939247+128822205+128464017+128315325+128691247
4057+129324241+129693374+129615882+129321627+129178843+129429751+129972180
4047+130469235+130739078+130762123+130437842+129816929+129315866+129193237
4037+129149239+128887826+128696118+129040940+129870047+130615973+130766022
4027+130320021+129803223+129861423+130670274+131682043+132133824+131870320
4017+131429383+131205455+130911925+130150697+129209126+128887570+129563975
4007+130698328+131413824+131464271+131356330+131519049+131711959+131470500
3997+130876605+130497555+130625587+130965547+131151164+131265728+131716289
3987+132701408+133841164+134405051+134070431+133333165+132932244+133085825
3977+133497636+133793845+133730315+133284020+132764580+132625054+133004727
3967+133627034+134233177+134884217+135671710+136358905+136550347+136140023
3957+135450498+134958287+134907711+135215314+135777477+136595822+137407608
3947+137673406+137319593+136934232+136930369+137040741+136875060+136574548
3937+136646105+137388508+138567969+139548382+139772951+139259071+138596793
3927+138392324+138745201+139218449+139405268+139488521+139946036+140791610
3917+141342195+140866818+139458853+138059896+137612848+138299226+139658955
3907+141383918+143560415+146044239+148163316+149318841+149256807+147821898
3897+145470885+143539425+143077433+143719271+144012829+143364844+143113037
3887+144398228+146309101+147178885+147162243+147403702+147550110+146721003
3878+145749131+146018213+147591879+149761779+152033052+153608626+153467182
3868+152181964+151373498+151394158+151275264+150446588+149550292+149621573
3858+151399608+155101864+159632740+161675672+159261157+155286352+152409597
3848+151108068+151209917+152338279+153835663+155303489+156947739+158706609
3838+159558743+158779304+157210574+156141311+155997059+156308626+156334753
3828+155739528+155127367+155906788+158793303+162233468+163488761+162633306
3818+162048356+162020797+160963277+158808385+157272076+157748792+160323723
3808+163490760+165414542+166486997+168281957+170409969+171138474+170808817
3798+171051890+171952187+172770395+173682232+175403526+178029189+181117440
3788+184493919+188376086+192804727+197698984+203469961+210638684+218837276
3778+227176542+235452892+243988316+253022730+262557621+271720911+278824296
3768+283277891+286021036+288097931+290722676+295381163+302571903+311217707
3758+320048313+329283453+340072407+353121570+368119577+383384180+397009578
3748+409372088+422129482+435030650+445152767+452426036+460479606+471181371
3738+484062760+497740853+510524815+521040678+529615623+537784565+546096915
3728+553554801+558569916+560382802+559833538+558122116+555677987+552649367
3718+549010751+544527946+539655211+535647581+533383996+532750515+533213947
3708+534249615+535414526+536493568+537317170+537816161+538479145+539760932
3698+541374706+543210601+545953838+550496567+557422619+566112092+573345216
3688+575750117+574720320+573924203+574659625+576078178+577231823+578526747
3678+581007388+583553311+583051935+580021883+577995427+577629863+576399303
3668+572981450+568938885+565670567+562986154+560397627+558682792+559372528
3658+562515970+566173704+569105154+572162398+575686119+577832901+576659294
3648+573414975+570965965+570408922+571045706+571430976+570705058+569633245
3638+569745754+571543742+574286759+577502308+581508140+585738110+587809335
3628+586839279+586001843+587925184+592587284+598906644+604899558+607799669
3618+607192169+606235691+607118484+608775119+609771926+611174442+615115689
3608+621218653+626495079+629264590+630879356+633321246+636867462+640301241
3598+642215078+642082019+641241390+641955345+644650583+647772375+649806427
3588+649536419+646076658+640945988+637556977+637483145+639385092+641879091
3578+645452168+650088325+653526801+653926566+652441851+651243951+650634506
3568+649588600+647805181+645607171+643038313+640745408+640151669+641593597
3558+643300322+643292689+641724895+640366267+640146385+640029839+638469163
3548+635390379+632207673+630176556+629492545+630117843+632302275+635521677
3538+637874763+637846875+636199890+634713707+633551476+631309211+627614670
3528+624375599+623703551+625344003+627122359+627392954+626362240+625190835
3518+624444441+623668103+622314759+620739111+619802339+619756029+620131795
3508+620665059+621430902+621880647+621082585+619072899+616729647+614535380
3498+612719045+612120498+613423312+615718088+616943584+615978189+613742419
3488+612053015+611711706+611756989+610709358+608147803+604663823+601020143
3478+597904480+595926866+595334521+595971818+597408352+598692854+598734687
3468+597740339+597310300+598306226+599428570+598936808+597378775+597105391
3458+599160837+601888147+602748445+600989796+598090565+595822173+594559321
3448+593627539+592800854+592638805+593317349+594147593+594396061+593819532
3438+592507398+590931420+589773555+589107268+588321352+587147084+585886801
3428+584748972+583778440+582934031+581758038+579853266+577917668+577064453
3418+577198209+577409651+577446934+577610230+578092561+579192006+580873558
3408+581921629+581107971+579065552+577595148+577718557+579073662+580134833
3398+578983243+575200266+570826631+568339238+568172198+568799478+568748470
3388+568038809+567698932+568275130+569236819+569817568+569760910+569050881
3378+567873824+566932061+566664548+566252711+564555086+561876544+559903224
3368+560111216+562580518+565754197+567471307+567055690+565904063+565437952
3358+565611524+565959290+566484078+566803369+566209740+564964722+563837278
3348+562636075+560947001+559756477+560230808+561566978+561940468+560870307
3338+559336713+558448856+558808219+560244312+561731229+562153048+561189047
3328+559259394+557149859+555868329+555930161+556567752+556569110+555933647
3318+555783965+556801431+558487937+559782788+560044429+559445039+558552302
3308+557576375+556303395+554796002+553399247+552077828+550835893+550499282
3298+551597957+553102414+553847597+554265710+555198702+556183730+556345302
3288+555840954+555357229+555248315+555723894+556823816+557985644+558418949
3278+557852181+556611420+555348091+554697620+554661291+554573992+554153677
3268+553930750+554207510+554467537+554276021+553897540+553467354+552451723
3258+550533446+548349895+546914976+546669774+547201717+547680415+547585006
3248+547043632+546591795+546710653+547427874+548253972+548570877+548119371
3238+547099666+545878574+544724746+543757700+542943602+542104587+541160733
3228+540317168+539685815+538874103+537484870+535922910+534922838+534387408
3218+533651803+532769120+532500763+533100117+533961075+534435663+534340474
3208+533785302+532963315+532026102+531165290+530617237+530299231+529721161
3198+528540398+526889450+525026327+523158251+521666930+520927545+520767661
3188+520484552+519557945+518218912+517129302+516485289+515798526+514810746
3178+514013308+513807701+513890964+513828692+513464191+512714605+511682790
3168+510684259+509598318+507817504+505251435+502707346+501117571+500799528
3158+501278189+501542362+500797216+499159626+497373601+495925031+494726141
3148+493589266+492670474+492203850+491968189+491392834+490183889+488588682
3138+487126168+486257393+486134389+486438488+486543988+486019457+484965809
3128+483783027+482645088+481403997+480072230+479019352+478460548+478075168
3118+477368038+476315307+475477503+475303271+475398644+474914662+473750412
3108+472717827+472304631+472046035+471405913+470538899+469836063+469360888
3098+469010920+468705683+468249994+467436116+466396963+465594571+465390652
3088+465706199+466102074+466167246+465771628+464988428+464028868+463291978
3078+463098664+463213559+462936872+461798713+459978120+458109713+456877796
3068+456534433+456615714+456389190+455663089+454912915+454581111+454520380
3058+454246188+453555315+452701365+451990970+451389084+450636158+449645590
3048+448539503+447308760+445821880+444273827+443185318+442793553+442821148
3038+442901769+442874650+442664970+442190382+441399623+440283151+438902322
3028+437422634+436077951+435103859+434600391+434372547+434056118+433461718
3018+432681307+431958178+431539258+431421942+431197877+430486564+429539957
3008+429006105+429058580+429139348+428637128+427543701+426306940+425237916
2998+424265953+423183204+421943801+420725498+419798744+419282249+418942849
2988+418354174+417423530+416608735+416375496+416574497+416616294+416170879
2978+415376267+414423642+413313665+412077601+410937387+410064906+409329814
2968+408508524+407715379+407383575+407736626+408449077+408915922+408707489
2958+407683564+405941648+403948695+402540417+402304793+402875047+403192870
2948+402615387+401431211+400262337+399450111+399029319+398795713+398389233
2938+397620822+396609960+395508020+394412978+393591358+393300323+393341459
2928+393273902+393030902+392820121+392530847+391825626+390786105+389906908
2918+389399184+388955751+388293024+387531915+386901260+386402563+385925186
2908+385447846+384997661+384549715+384041770+383422124+382659694+381769342
2898+380855578+380094212+379621605+379419301+379317654+379074947+378453576
2888+377380442+376117590+375096197+374504219+374223312+374134692+374212450
2878+374350243+374362059+374116234+373508403+372453690+371127538+370103320
2868+369924537+370433399+370786890+370373768+369440629+368496921+367555231
2858+366485657+365667009+365588112+365986042+365951365+364950778+363445367
2848+362344748+362025053+362092574+362005861+361615491+361050191+360395903
2838+359694792+359100796+358794569+358747011+358732553+358589842+358312018
2828+357871337+357171327+356273379+355507572+355173493+355140100+354908329
2818+354158705+353111479+352244172+351775785+351512896+351100214+350377232
2808+349509558+348757733+348197351+347741184+347281532+346707682+345968884
2798+345219040+344721517+344515984+344308799+343771314+342905842+342039746
2788+341418779+340877881+340037803+338830802+337670112+336980082+336670039
2778+336275779+335559915+334715690+333991240+333370163+332668354+331816239
2768+330980307+330374715+330001885+329712575+329415558+329009849+328295270
2758+327244484+326193661+325499008+325131278+324759145+324137077+323342758
2748+322664472+322238212+321842044+321171610+320270690+319489801+318992462
2738+318519159+317767040+316825901+316031802+315477291+314895368+314074408
2728+313222293+312757760+312778933+312910855+312704698+312018301+311000064
2718+309912215+309001717+308384713+308012066+307761690+307511277+307152997
2708+306636539+305983390+305252500+304563057+304089497+303870496+303659183
2698+303152835+302377213+301656304+301181679+300819803+300390865+299924424
2688+299560694+299343198+299147535+298772650+298160655+297489139+296924077
2678+296415876+295891217+295412024+294966371+294376888+293585120+292797351
2668+292230547+291869606+291530151+291076370+290542225+290055912+289701504
2658+289488007+289358581+289169744+288802125+288340729+287971275+287691561
2648+287329134+286825428+286302090+285870785+285534082+285240368+284917316
2638+284468911+283835632+283100246+282487865+282177290+282112393+282075826
2628+281908346+281572102+281097000+280576598+280122523+279764481+279495757
2618+279343543+279231125+278935558+278415101+277972768+277858626+277923009
2608+277874717+277684247+277524143+277432752+277247144+276884314+276527024
2598+276391121+276403928+276297914+275973669+275606857+275421855+275479706
2588+275669185+275799877+275677386+275183827+274404425+273632399+273132931
2578+272954644+273022935+273250156+273473304+273481817+273233129+272916260
2568+272739038+272741331+272839713+272973598+273164710+273481836+273986367
2558+274632875+275177258+275312831+274965890+274338207+273660031+273032770
2548+272470589+271975195+271585466+271354135+271239277+271114677+270946940
2538+270807642+270684766+270481453+270206564+269963729+269774873+269594605
2528+269457784+269447326+269543965+269642438+269691941+269703665+269641814
2518+269425070+269045561+268600569+268191777+267872835+267701465+267715519
2508+267814286+267815717+267691392+267593340+267596368+267573415+267387201
2498+267099983+266924301+266954869+266993253+266770858+266330727+265965842
2488+265784601+265605176+265270290+264797574+264232494+263599270+262999879
2478+262590941+262436249+262427185+262346638+262056300+261659801+261375445
2468+261217983+260980726+260566961+260104520+259699342+259334604+259035386
2458+258894859+258913977+258958049+258873630+258610447+258265580+257997186
2448+257869796+257818679+257750388+257624007+257463922+257320496+257171859
2438+256896126+256432125+255937447+255666943+255694868+255854587+255934474
2428+255826075+255527902+255154889+254895449+254837011+254913980+255067461
2418+255290352+255517059+255681933+255863578+256167401+256493407+256601642
2408+256427722+256195345+256123054+256138687+256068322+255990821+256138742
2398+256525810+256916621+257109072+257082193+256950968+256876953+256918015
2388+256888072+256431391+255284021+253385193+250667515+246891418+241898743
2378+235976120+229777417+223873051+218419090+213217027+208100540+203259107
2368+199085355+195802744+193413438+191890450+191346342+192150733+194767663
2358+199267201+205222776+212487807+221775680+233397134+245398300+254317654
2348+257796570+256130669+252026547+248405105+245957618+243743408+241186531
2338+238358508+235371134+232207381+228940145+225961266+223843877+222860501
2328+222715186+222802962+222758358+222818870+223557668+225206854+227425762
2318+229690558+231666924+233312844+234850511+236567548+238554666+240681119
2308+242763481+244671006+246325256+247677095+248721148+249541337+250264760
2298+250925175+251460458+251876388+252303601+252857599+253499886+254063223
2288+254437576+254722153+255085038+255473666+255644136+255504454+255234445
2278+255019885+254845102+254608652+254314535+254069773+253930733+253815416
2268+253613497+253355286+253178687+253143294+253185256+253229805+253232098
2258+253147386+252968897+252764042+252602544+252475374+252324518+252151570
2248+252054656+252100893+252210467+252265914+252274116+252308775+252367250
2238+252377635+252319380+252313068+252547830+253054178+253643019+254153825
2228+254610065+255076103+255577827+256184795+256957885+257828165+258681197
2218+259520230+260441443+261485808+262614041+263829573+265201650+266721850
2208+268291333+269892502+271595044+273393472+275200230+276946128+278607185
2198+280232574+281950032+283841136+285847630+287834014+289676349+291309535
2188+292746582+294045690+295249626+296328430+297197755+297879509+298559190
2178+299339436+300084730+300613921+300839967+300713587+300252999+299576584
2168+298790778+297926572+296968186+295883823+294688253+293430465+292105359
2158+290712493+289333903+288029970+286789576+285590006+284433774+283487094
2148+283049221+283177142+283886877+285928195+290390285+297292504+305502490
2138+314049858+322672068+331335119+339980557+348496642+356722499+364756474
2128+373007981+381722774+390789738+399915451+408653583+416504372+423137114
2118+428347158+431992636+434210278+435584318+437054721+439664679+444316578
2108+451665734+462002338+475055244+489873808+504684043+517035104+525002952
2098+528365468+528023867+524910442+519797055+513208164+505377779+496406591
2088+485915498+473093152+457757286+440579360+422366207+404017426+386476321
2078+370223242+355537810+342897659+332448069+323829969+316795664+311180791
2068+306547534+302569921+299245091+296488919+294137595+292118661+290279812
2058+288576188+287309520+286648352+286431975+286682901+287613252+289271538
2048+291760674+295416904+300633810+307988397+318247169+331855650+348833694
2038+369062698+391960373+416081195+439527767+460482615+477552949+490281683
2028+498998568+504051700+505733141+504588340+501365562+496849804+491509123
2018+485261614+477985299+469939619+461386104+452286335+442443914+431640979
2008+419845531+407387905+394765919+382412217+370672583+359743524+349642141
1998+340370928+332048120+324826666+318680547+313274695+308220792+303496308
1988+299350519+295881658+292986592+290551820+288473183+286642077+285007276
1978+283557642+282278956+281148136+280099037+279083131+278214869+277670009
1968+277386956+277058931+276484200+275770924+275143663+274710322+274490660
1958+274509705+274709514+274883893+274857105+274657315+274449689+274381857
1948+274517907+274843198+275253696+275502622+275300410+274656159+273947837
1938+273492826+273285898+273189296+273153353+273223166+273430755+273698873
1928+273931122+274201827+274631829+275123481+275548180+276037116+276645222
1918+276996310+276769419+276278208+276083114+276366590+276911285+277393469
1908+277644285+277763198+277956347+278255363+278514271+278668174+278832975
1898+279116175+279450126+279706814+279966675+280480344+281218702+281689749
1888+281499958+280884072+280345414+280120303+280172741+280371725+280579258
1878+280739986+280885375+281066047+281451831+282365320+283854897+285229763
1868+285493551+284547403+283315541+282601256+282495333+282664593+282800624
1858+282827669+282856035+283002984+283278111+283655657+284165784+284908582
1848+286081731+287793428+289528611+290182605+289430798+288298235+287741669
1838+287834748+288194991+288631452+289404854+290820012+292523875+293593597
1828+293743628+293635815+293663943+293576129+293294360+293156017+293343514
1818+293705170+294109797+294675006+295571284+296683169+297585447+297981065
1808+298068805+298327273+299122289+300533337+302262134+303700576+304425760
1798+304718116+305358037+306929409+309224204+311044136+311276641+310494432
1788+310153123+310849024+312175653+313593362+314979622+316319571+317443529
1778+318411897+319785644+322134106+325197441+327615662+328278390+327718521
1768+326987099+326650598+327191385+328848974+330982289+332589384+333661748
1758+334847612+336220588+337659947+339671688+342743647+346251038+348777916
1748+349840812+350286300+351024034+352415945+354363799+356312056+357648189
1738+358778055+360922856+364204531+366524004+366134257+364482759+363248971
1728+362617948+362509916+363021456+364106627+365866928+368800322+373067832
1718+377464549+379739289+379264481+377769271+376901781+377294683+379026362
1708+381876200+385168994+388085509+390797738+394295882+398522586+401789987
1698+403336131+403932916+403619239+402662651+402496823+403924512+406587422
1688+410211910+415221227+421216489+425357288+425803950+424961560+425311308
1678+427449650+430929006+434709635+438018025+441270454+444907639+447945580
1668+449340794+450249310+452456567+456091257+459774421+462421368+464589801
1658+467578533+472379014+479469978+487558189+492404613+493433198+495008258
1648+498741954+502722135+504623862+505264572+506756479+509926929+514863332
1638+521481543+528735546+533925664+535806217+536982283+540022867+545237754
1628+551535390+558095071+565257042+573401654+581867319+590078865+598836702
1618+608906894+618570385+624541611+626708649+627279564+627182100+626386533
1608+625292262+624744466+625421872+627654816+631524763+637007053+643974645
1598+651933907+659940139+667061708+672943909+677844276+682154354+686011237
1588+689440833+692616421+695640381+698334298+700704118+703433190+707487424
1578+713192971+719399271+724009961+727123092+731299229+738494043+748540639
1568+759349335+769741240+780730847+793199518+807041568+822675038+840323552
1558+855655528+864489766+869854043+874383047+877523334+878355376+877347414
1548+876038839+875755913+876395596+876542526+874839544+870750816+864999325
1538+859930304+856694829+854181161+850998749+847159186+843966425+842093027
1528+841143484+840848670+841730398+844054568+846370518+846430479+844437159
1518+842759571+842487434+842947233+843188912+843042129+843343475+845274853
1508+848651680+850457925+848279658+844826429+842875089+842579908+843226342
1498+843893033+843659060+842794285+842823715+844474075+846514439+846597152
1488+843937288+840581230+838819535+839048664+840124734+840808084+840944226
1478+841340321+842851090+845662875+848691385+849841434+848501888+846652342
1468+846034237+846465634+846469891+845187076+844109539+845404756+848990824
1458+851545223+849367910+844566916+841542075+840629449+840319075+839547067
1448+837567838+834173030+830546670+828389980+828308295+829671180+831313614
1438+831923866+830604209+828159237+826390202+825706998+825217548+824285253
1428+823305106+822829234+822550713+821880793+821059245+820812723+821145774
1418+821225037+820561209+819364924+817718453+815556112+813180935+811208899
1408+810027805+809495495+809180204+808798567+808309925+807758459+807405958
1398+807830603+809282072+810909534+811276639+810033089+808268532+806865575
1388+805592668+804181859+803695785+805673253+810261191+816064864+821437360
1378+825669348+829041552+831978543+834560391+836896010+839332543+841825000
1368+843843420+845419875+847450551+850311582+852900402+853846422+853186410
1358+851890385+850563682+849340609+848400020+848021612+848203697+848599866
1348+849041391+849807600+851063847+852457997+853741325+855300312+857528192
1338+860210881+863058481+866165373+869520991+872735183+875582709+878395741
1328+881719507+885848086+890601890+895297347+899250080+902583313+906014817
1318+909671048+913009565+916099064+919809897+924311894+928533387+931659729
1308+934007751+936005108+937434926+938066168+938314012+938854616+939839019
1298+940702106+940831716+940409200+940156805+940158493+939418191+936989658
1288+933435369+930455444+928901887+928069331+927139458+926085479+924827691
1278+922998842+921024237+920060824+920566786+921822739+922843765+923180120
1268+922984384+922796061+923153919+924124305+925198907+925857084+926198943
1258+926609643+927130798+927812827+929024231+930604869+931396032+930310862
1248+927418200+923681165+920116381+917158400+914432631+911333004+907869500
1238+904466839+901104469+897449707+893836044+891248545+890105982+889834212
1228+889924190+890491362+891373824+891781148+891427327+890998425+890994903
1218+891062129+890993802+891609485+893879492+897511576+901143881+903838752
1208+905674867+907062925+908389554+910157121+912617433+915369183+917771442
1198+919518092+920766118+921919910+923046840+923807106+924352480+925509427
1188+927753747+930785560+934104555+937379075+940372724+942779973+944239515
1178+945110455+946795383+949978236+953204317+954854824+955575971+957028100
1168+959538392+962305407+964656659+966220343+966804322+966768653+967014369
1158+968225259+970292631+972636544+974974218+977290902+979384841+981197031
1148+982969221+984511328+985273135+985680239+987196072+990426483+994195957
1138+997001650+998665808+1000003960+1001603753+1003753177+1006736698+1010104719
1128+1012536261+1013501436+1013616514+1013120166+1011947733+1010839077
1120+1010866305+1012348525+1014890962+1017565724+1019050072+1018815586
1111+1017870373+1017571008+1018269551+1019529834+1021247715+1023974732
1103+1027848935+1031520651+1033244990+1032999348+1032335373+1032273944
1094+1032656902+1033295117+1034124957+1034657488+1034930946+1036339260
1085+1039692235+1043608859+1046558327+1049223475+1052736811+1055836512
1077+1056392674+1055198224+1054603457+1054472012+1053541331+1052767195
1068+1054032102+1056850859+1058798089+1058764108+1058278108+1059442248
1060+1062865606+1067440554+1071183533+1072709715+1072277070+1071313363
1051+1070751990+1070382463+1069999798+1070196194+1071518567+1073269107
1043+1073741823+1071637094+1067699994+1064250876+1062313333+1060581655
1034+1058070189+1056749285+1059154332+1064165594+1067757533+1067623667
1025+1064967913+1061888762+1059591160+1059062226+1060855553+1063831001
1017+1065783589+1065857861+1065132310+1064615633+1064081708+1063280049
1008+1062758381+1063139504+1064428777+1065467197+1064377623+1060285226
1000+1054473187+1049777509+1048113865+1048832517+1049395725+1047920184
991+1045290338+1043717112+1043898463+1044502551+1044294999+1043545816
983+1042653152+1041084770+1038600313+1036121947+1034355187+1032473570
974+1028983792+1023743254+1018661463+1015969307+1016049451+1017320596
965+1017918004+1016729352+1013260491+1007790824+1001474070+995421746+989972482
955+985219485+981551072+979066982+976940162+974061665+970431122+967436738
945+966341954+967016204+968468186+969676434+969481286+966874411+962477144
935+958758604+957688553+958817318+960529694+962306802+964357441+965877384
925+965565469+963807443+962532702+962545765+962584443+961580297+960358031
915+960068867+960517144+961163138+962300784+963852726+964181741+961761721
905+957351318+953425006+951966565+953053717+954975260+955772294+955059220
895+954010379+953471463+952910897+951443355+948990236+946092069+943614511
885+942731608+944020147+946756485+949519758+951084910+951038306+949917027
875+948505924+947253494+946706505+947237861+947920331+947142819+944589887
865+941487031+939213501+938645376+939924080+941823605+942576164+942034533
855+941742287+942685004+943869107+943480718+941279773+938944520+937574150
845+936198495+933802548+931417316+930718406+931650922+932751651+933212698
835+933807245+935687835+938470850+940458959+941162933+942140364+944378666
825+946655204+947328794+945992110+943229204+940584092+939977069+941731352
815+944238854+946248247+948063739+950019849+951278664+951094084+950527059
805+951288058+953053277+953445556+951108028+947675717+945817731+946409415
795+948344609+950308425+952034306+953957463+956246552+958752366+961321151
785+962998152+962198622+959026851+955889868+955049679+956458213+958248605
776+958703267+957433810+955300752+953319615+951857138+951100689+951670503
766+953969719+957149050+959485696+959963624+959033090+957549475+955671821
756+953302662+951281527+951437264+954674794+959120940+961555124+960732622
746+958429296+957337740+958926231+962720291+966706270+968864648+968169995
736+964454465+958948029+954597439+953748370+955650757+957596960+958326694
726+958767485+959256421+958631123+957216644+957580300+960496154+963221263
716+963726859+963482684+964197593+965898447+968417913+971017302+971236156
706+967115649+959718715+952006637+946576088+943560201+941222013+938812269
696+937277574+937332251+937819645+936532941+932516284+926894476+921566162
686+917580843+915005527+913783628+913790600+915126917+918243938+921712799
676+921553759+916022957+907282073+895749440+880765047+869148821+871251642
666+882009257+889750399+892615906+893533523+892633814+888733996+883463662
656+879531846+877688171+876768940+875695218+875055903+875681347+876439411
646+875754813+874313766+873955614+874770189+875162908+874479191+873922221
636+874878442+877236959+879037992+877953483+873909010+869181187+865998187
626+865287315+866044350+865241958+859779117+850051334+841199629+838643688
616+842856448+849842241+856682279+863620735+869843327+872890773+872382388
606+870043393+866970407+863448631+860366324+857261560
##END=
