##TITLE=<SNM>
##JCAMP-DX=4.24
##DATA TYPE=INFRARED SPECTRUM
##DATE=2/5/2025
##SAMPLING PROCEDURE=Instrument type and / or accessory
##ORIGIN=Admin
##XUNITS=1/CM
##YUNITS=ABSORBANCE
##RESOLUTION=4
##FIRSTX=4497.3318
##LASTX=599.83466
##DELTAX=-1.4281778
##MAXY=1.8651882
##MINY=0.40842509
##XFACTOR=1
##YFACTOR=1.7370919e-09
##NPOINTS=2730
##FIRSTY=0.42539051
##XYDATA=(X++(Y..Y))
4497+244886588+245016033+245292320+245541758+245867456+246440670+247265826
4487+248096353+248508399+248201076+247372248+246650905+246452628+246589228
4477+246741937+247031812+247712151+248534786+248946523+248791686+248415342
4467+248209242+248336835+248655395+248766827+248494451+248249251+248511762
4457+249177998+249881567+250515154+250727774+249689363+247359140+245139645
4447+244286387+244453422+244549189+244277620+244108423+244340155+244900055
4437+245693592+246598423+247295558+247438832+246925717+245957150+244923560
4427+244093600+243400874+242789281+242540289+242824863+243267843+243568921
4417+244135050+245316391+246515300+246957027+246835199+246813805+246955758
4407+246948672+246932751+247353067+248175650+248783966+248650677+247817646
4397+246637660+245296335+243841005+242544870+241850446+241875854+242232983
4387+242474614+242609636+242908038+243289425+243342936+242978482+242512290
4377+242080908+241578585+241081425+240748213+240494366+240180798+239841134
4367+239480677+238982454+238350823+237828254+237722451+238199966+239152766
4357+240173849+240725755+240565703+240140257+240220103+241034142+241995195
4347+242302810+241619606+240223208+238791126+238011331+238181780+239073778
4337+240043392+240324603+239536264+238038541+236708916+236240168+236562469
4327+237022982+237232651+237529046+238388618+239678045+240736118+240925885
4317+239971541+238196037+236640342+236458930+237816708+239631071+240634534
4307+240432774+239437580+238262141+237482192+237518855+238314348+239270734
4297+239698530+239324502+238409412+237424546+236723620+236555229+237041631
4287+237899505+238512505+238457175+237736811+236719571+236156325+236721818
4277+238095483+239094108+239111402+238785378+238943561+239546764+240005236
4267+240018772+239670085+239028708+238157041+237358048+237065565+237471023
4257+238285988+238842183+238602370+237768910+237196400+237487510+238346259
4247+239018466+239185587+239118368+239104471+239174624+239343426+239641451
4237+239891197+239818282+239283018+238220262+236731254+235429046+235155366
4227+236116367+237619529+238672506+238693059+237882126+237180873+237557663
4217+238956805+240272139+240601045+240157705+239732603+239708464+239866372
4207+239880354+239834426+240137100+240814797+241212689+240742483+239604307
4197+238454859+237690197+237290829+237039624+236707853+236234850+235879351
4187+236085812+236979010+237984241+238267648+237676917+236909716+236699480
4177+237204052+238178297+239266634+239995388+239956237+239330404+238924689
4167+239340715+240195552+240431556+239514476+238121613+237446472+238020715
4157+239398189+240712871+241202636+240508675+239041730+237826951+237554112
4147+238004245+238493461+238561727+238258384+237966124+237879278+237752354
4137+237309495+236659918+236192525+236297917+237127259+238346671+239290052
4127+239523929+239084758+238282746+237515269+237065445+236960190+237111767
4117+237428990+237741048+237870339+237793170+237601721+237444911+237451791
4107+237443693+236961116+236035354+235587297+236398419+237907105+238710851
4097+238263153+237391469+237035198+237219887+237419416+237241727+236659077
4087+236070628+236042732+236656898+237355165+237548484+237090133+236257050
4077+235600181+235641580+236468503+237616698+238287773+237833213+236444313
4067+235235641+235120024+235753079+236109024+235848109+235478525+235448089
4057+235757266+236283625+236914519+237395106+237452202+237104836+236672013
4047+236485814+236623323+236860785+236922583+236833489+236890929+237201049
4037+237421304+237151021+236515083+236130984+236385758+236969986+237350911
4027+237456680+237589780+237838068+237906299+237570582+237082652+236946242
4017+237309461+237806757+238096633+238248056+238462185+238719463+238877749
4007+238884114+238755475+238505402+238188248+237958232+237979454+238244967
3997+238579570+238825456+238892846+238717696+238387452+238137345+238063727
3987+238148582+238552325+239359347+240121231+240259511+239886702+239761786
3977+240437904+241665551+242597781+242628130+242045875+241597234+241467565
3967+241219569+240775217+240770087+241634995+242895033+243749630+243890347
3957+243427466+242551081+241631530+241332664+242297508+244447897+246576103
3947+247395992+247186478+247206105+247587424+247191556+245538533+243542929
3937+242438534+243047485+245466424+248550484+250209804+249370922+247421710
3927+246667650+247834803+249574380+250291914+250042837+250013156+250679427
3917+251043452+249800005+247234018+245057706+244369938+244933013+246522523
3907+249823732+255261313+261491608+265988106+267334201+265685655+261596416
3897+256457546+252848311+252610402+254827581+256199788+255089062+254340801
3887+256803180+260972917+263274042+263684013+264293958+263828744+260396426
3878+256720932+256508141+259583125+263487194+266863462+268828338+268149046
3868+266131723+265651531+266649195+266303459+263644415+261082855+261023597
3858+264261516+270896479+279491103+283743208+278047028+267816914+259880703
3848+256470517+257566041+261941638+267708194+273584963+279082866+282728576
3838+282162379+277952531+273532790+270522829+268052730+265595927+264204676
3828+264686532+266745838+270580835+276754753+282900947+284225030+281162227
3818+278428639+276263616+271751831+265968376+262869785+264401358+269676879
3808+275426656+278672329+280787084+284445765+287943312+287604935+284798810
3798+282791352+281081283+278264572+275542908+274844006+276412191+279516255
3788+283715363+288560807+293128779+297273810+302388730+309242250+316142606
3778+321313010+325995141+332783432+342992580+356232415+370173434+381398209
3768+388637063+393007255+395480254+397383624+400635697+405095652+407957313
3758+407839517+407550534+411092894+420274783+432660741+441719207+444926708
3748+448068156+455408712+463471624+465505624+463760264+466212366+476045068
3738+491412474+507679872+520683222+529300733+534289999+537491563+541968846
3728+550318476+562073386+573190420+579740579+581554908+581151731+581115771
3718+582806916+586502826+592319273+599432816+603719800+600241708+590616736
3708+581312521+576715349+577251659+579995455+580920119+578867385+575946534
3698+573885427+573205758+574908844+580218283+588665911+596773223+599231468
3688+594474397+587007912+581546947+579699198+580978451+584733585+591769649
3678+602695560+612746080+613704164+608648435+606631180+606541966+600801625
3668+589544939+579969583+575371450+574018253+573399179+573302589+574606581
3658+576504256+577193602+577422057+580205931+587066381+595989723+600514427
3648+595216036+583933546+573736098+567940719+566248888+566717533+567668515
3638+568443403+568850731+568931744+569764072+573394307+580241753+585700111
3628+583728698+577117839+572770842+573140357+577081261+581606651+583135634
3618+581035891+578919678+579586583+582005848+583855861+584586795+584787525
3608+584277155+583145584+583063508+585583584+590031427+593755405+594991218
3598+594692490+594617550+595175890+596072760+598117671+602619042+608648091
3588+612063047+610235474+606464350+604525329+603860208+602279344+599685839
3578+597339798+595241153+592813447+591323444+593376316+600039948+608869959
3568+614277121+612181770+605349387+599795709+598043212+598493329+598670109
3558+597871579+596936690+596472437+595982174+594839898+593878451+594514337
3548+596281314+596965033+595601301+593446246+591409089+589087891+586497130
3538+584505953+583530095+583450077+584437053+586536110+588932453+590475641
3528+590644804+589461901+586910463+583312688+579897732+577945191+577327697
3518+576719260+575363146+573931716+573546931+574488682+576044669+577356931
3508+577944231+577451978+575547647+572311632+568810825+566750131+566966199
3498+568595684+569878711+569714661+568585355+567831055+568093961+568892456
3488+569531636+569810360+569506588+568019810+565376860+562795227+561469377
3478+561245760+560868283+559301797+556865650+554862773+553764383+552555128
3468+550394514+547914824+546202748+545496966+545429953+545822836+546603729
3458+547179705+546723549+545298741+544108015+544197194+545387989+546585920
3448+546640238+545112319+542506667+539562483+536649628+534103783+532445955
3438+531865553+532008020+532385359+532618789+532440534+531679646+530063131
3428+527383294+524331746+522475522+522812714+524638435+526146383+526214906
3418+525285267+524317952+523554902+522943790+523021131+524211891+525572912
3408+525479341+523810808+522170857+521409832+520318476+517771602+514922088
3398+513684559+513992449+514203988+513633467+512970542+512632594+512251138
3388+511565361+510880475+510674529+511120563+511837736+512027212+511245187
3378+510130773+509862755+510661044+511358591+510867368+509536748+508521670
3368+508363556+508815937+509536199+510219849+510365610+509711264+508811442
3358+508495077+508811236+509173546+509432094+509935224+510557419+510697450
3348+510299867+509809536+509119401+507735116+505960213+504686999+504056671
3338+503426858+502634573+502349948+502985903+503950472+504371183+504096988
3328+503451837+502481949+501216010+500248420+500063989+500085331+499519168
3318+498891105+499378726+500722247+501249945+500260842+498954893+498483537
3308+498485458+498112374+497451988+497270679+497893183+498747918+498873194
3298+497985828+496947520+496703830+497094276+497297340+497085218+496970270
3288+497258326+497507129+497096232+496164431+495585676+495919026+496751182
3278+497129276+496478772+495340545+495117957+496514766+498434229+499239278
3268+498717997+497744197+496634003+495273017+494380676+495063022+496916845
3258+497854684+496613793+494440174+493206866+492983318+492675394+492117878
3248+492048532+492345921+491865644+490375332+489320279+489851477+490993479
3238+490862266+489210478+487350067+485992684+484794649+483718185+483259525
3228+483242849+482754988+481597203+480654593+480513499+480660426+480342998
3218+479474058+478410942+477335953+476162521+474991559+474328840+474467807
3208+474851254+474656837+473937536+473378716+472993348+472055508+470451552
3198+469145981+468830577+468888017+468337363+467221577+466323643+465915663
3188+465530981+464768857+463678840+462429301+461114260+459895397+458938445
3178+458165856+457365474+456528170+455791301+455185473+454724479+454477495
3168+454233942+453453735+451962566+450387364+449477626+449110478+448279249
3158+446294179+443769711+441956309+441278836+441050689+440516026+439639880
3148+438847459+438434606+438345907+438310633+438100501+437663664+437004067
3138+436071340+434976450+434069389+433491285+432939225+432122612+431189611
3128+430415580+429738862+428887387+427815933+426861108+426444652+426605340
3118+426926474+426987448+426683299+426081210+425293215+424488406+423756924
3108+423054710+422389898+421823015+421276514+420680018+420231617+420144840
3098+420173457+419727904+418598187+417315022+416598397+416642317+417059322
3088+417321301+417167202+416732972+416334943+416084664+415781270+415166314
3078+414202122+413128575+412245773+411631984+411167627+410762564+410323942
3068+409697526+409004440+408685604+408798700+408725579+407983974+406881021
3058+406021620+405560523+405160058+404435781+403360347+402330068+401758106
3048+401551165+401194071+400427075+399514009+398746121+398115107+397593310
3038+397260750+397023064+396625207+396007472+395280587+394409108+393303444
3028+392160928+391371972+391051558+390854190+390322031+389339894+388210965
3018+387379907+387124379+387347824+387520247+386957104+385427332+383546986
3008+382373313+382417440+383132726+383564897+383366191+382858326+382341745
2998+381829763+381293692+380727598+380091026+379474286+379109299+378979288
2988+378656747+377775626+376507216+375391498+374791605+374616884+374499637
2978+374146557+373547351+372893794+372301039+371670539+370881034+369989482
2968+369119444+368335841+367773967+367629030+367839711+368011104+367748027
2958+366938517+365817206+364857852+364389481+364295704+364289390+364276832
2948+364188545+363787599+362937668+361786917+360606382+359701242+359349638
2938+359494782+359654748+359446126+359010661+358677517+358439935+358039092
2928+357414254+356775657+356243601+355630635+354650179+353304839+352027267
2918+351342759+351320902+351451531+351178984+350506074+349952538+349902785
2908+350097304+349922617+349191273+348339181+347785062+347513235+347404772
2898+347480706+347591022+347315455+346482887+345481672+344779047+344345503
2888+343816227+343114048+342619325+342659059+343031834+343160713+342638746
2878+341598550+340600869+340121998+340120763+340172335+339972016+339543243
2868+339036441+338554139+338124885+337712410+337283807+336888145+336602697
2858+336438612+336333237+336158859+335773834+335188010+334623049+334311693
2848+334271993+334282562+334042269+333458195+332844852+332653077+332868974
2838+332886336+332189510+330985333+329916349+329334025+329084982+328844140
2828+328418523+327817087+327214621+326833645+326785607+326994332+327183156
2818+326936687+326006567+324667712+323554499+323005665+322776798+322515677
2808+322227174+322078530+322069643+322163729+322428076+322755695+322755867
2798+322191831+321274305+320357464+319580449+318901877+318291382+317793022
2788+317464785+317305024+317256849+317257604+317236261+317093279+316734504
2778+316124489+315333989+314527842+313795742+313040515+312193227+311428015
2768+310969320+310803966+310732596+310585771+310298503+309891861+309454749
2758+309072401+308746943+308415515+308019956+307529419+306944041+306313541
2748+305699444+305096635+304477287+303899389+303436337+303044346+302657880
2738+302310908+301976426+301461561+300686845+299891747+299358730+299083232
2728+298854296+298520844+298074536+297596111+297216508+297031733+296981979
2718+296882884+296617302+296201601+295660315+294998214+294305128+293732960
2708+293364955+293174518+293044918+292834649+292528338+292228992+291924534
2698+291470643+290873496+290322087+289905529+289571527+289339606+289273760
2688+289272216+289132974+288811462+288442118+288139033+287904230+287691816
2678+287446496+287096247+286608335+286051745+285545973+285151461+284838098
2668+284552512+284322667+284274063+284461686+284687997+284623866+284161053
2658+283537108+283052147+282759715+282513726+282220883+281921846+281644872
2648+281305449+280825995+280319880+280045891+280115529+280320086+280344482
2638+280077837+279619176+279109801+278685780+278455609+278393777+278350011
2628+278209465+277965364+277661780+277358248+277131423+277049312+277111076
2618+277190304+277108708+276848479+276604772+276523930+276499105+276335055
2608+276003335+275618756+275258660+274930388+274678429+274586539+274646055
2598+274728749+274731682+274644493+274469069+274215273+273980093+273884669
2588+273935743+274046917+274144898+274186605+274154608+274083649+274012055
2578+273901053+273698247+273472519+273377044+273466275+273639400+273775348
2568+273839616+273840234+273778779+273704080+273736489+273947221+274228158
2558+274354807+274220764+273963365+273789708+273729763+273663316+273529530
2548+273375568+273236310+273073495+272804242+272371350+271852574+271446772
2538+271230258+271014773+270598163+270071512+269708378+269604153+269588146
2528+269495724+269393369+269460159+269723236+269991786+270034454+269791604
2518+269424576+269134255+268929150+268678803+268399238+268272161+268337733
2508+268411076+268366641+268262948+268150556+268011348+267912218+267963122
2498+268101986+268147691+268065271+267975320+267934282+267898356+267847041
2488+267777369+267645968+267450539+267293591+267267960+267335951+267364550
2478+267246291+266984672+266680231+266417360+266180018+265913750+265639092
2468+265453906+265428720+265513301+265541953+265353987+264943656+264487140
2458+264199375+264152160+264211144+264152040+263883731+263573388+263468270
2448+263557381+263544977+263270096+262971248+262924308+262994255+262842163
2438+262466197+262207649+262257969+262450670+262532318+262409083+262133139
2428+261828766+261626835+261567216+261584029+261600723+261581096+261510754
2418+261411195+261349569+261380914+261500237+261654800+261763348+261758407
2408+261653890+261527310+261427631+261372456+261409085+261593980+261947163
2398+262475873+263186235+264107588+265453563+267765497+271793195+278254227
2388+287739202+300709011+317457785+338087827+362470944+390091037+419935223
2378+450775580+481705940+512198914+541495088+568260378+591105146+609431523
2368+623867711+635650415+645162497+651268201+652672765+649634016+643045529
2358+632253164+615610589+592581218+564440598+535435294+512307240+500303252
2348+501158330+513464030+532082342+549202518+560111135+565360012+566790929
2338+565891347+564407246+563934483+565102528+567153135+568183792+566588448
2328+562545841+557413902+551926756+545863119+539047550+531610505+523309325
2318+513649560+502964457+492527505+483182973+474339031+464678305+453557635
2308+441324746+428683980+416283302+404599076+393753595+383536383+373751239
2298+364391300+355470463+346932283+338756860+331017656+323829963+317278431
2288+311359321+306001912+301174260+296910814+293209963+289978101+287100519
2278+284519966+282243855+280306189+278709456+277386745+276216607+275055442
2268+273788438+272445500+271251223+270420285+269887938+269372232+268709787
2258+267984276+267299922+266600420+265803314+264975515+264252543+263675057
2248+263215350+262876665+262653871+262457533+262173748+261788225+261412242
2238+261173115+261069610+260971802+260791916+260575196+260379578+260185367
2228+259978889+259796825+259645214+259484578+259294879+259070919+258797394
2218+258494754+258226496+258041343+257973078+258042167+258172264+258210781
2208+258135001+258115562+258275100+258502166+258598636+258525721+258410516
2198+258350949+258323756+258296237+258302739+258343623+258326484+258188134
2188+257977213+257777340+257639299+257574808+257537339+257463892+257394631
2178+257456875+257678227+257905945+257958100+257810418+257614011+257529395
2168+257546157+257516202+257389176+257311302+257411599+257590077+257645012
2158+257538505+257397291+257302518+257218229+257098460+256961311+256869696
2148+256863571+256886509+256837373+256744316+256775781+257015560+257357831
2138+257681298+258006070+258423177+258970519+259643224+260458704+261417252
2128+262423614+263375231+264343472+265527953+266995635+268599540+270192001
2118+271784462+273428393+275006752+276236320+276904100+277041661+276823448
2108+276367481+275694554+274809024+273754880+272613668+271456208+270298234
2098+269133740+268000729+266978204+266134776+265474665+264903373+264303772
2088+263697137+263226948+262935545+262701943+262439724+262199637+262049449
2078+261997071+262036308+262146795+262268795+262376057+262548805+262908250
2068+263468682+264044384+264333882+264198208+263844391+263617600+263650266
2058+263806784+263896015+263839793+263700963+263632354+263761903+264084255
2048+264483554+264878856+265312605+265831691+266300216+266475589+266323995
2038+266107395+266089655+266277604+266484425+266569006+266596233+266763063
2028+267150661+267612204+267947595+268120549+268298719+268734252+269506207
2018+270290822+270575705+270250762+269767619+269590102+269746260+270001359
2008+270214287+270388769+270543605+270676722+270800506+270922797+270994288
1998+270987340+271107812+271724363+272839824+273821464+274016636+273481818
1988+272763289+272273318+272142672+272312332+272583593+272794274+272952010
1978+273087134+273143716+273108391+273086225+273263674+273886899+275041871
1968+276284221+276830207+276440499+275755562+275466098+275599147+275849734
1958+276144001+276528374+276872893+277049604+277191488+277552597+278230551
1948+279170226+280407721+282032951+283631520+284169735+283169617+281547372
1938+280510728+280326056+280556227+280814020+280975496+281050161+281083359
1928+281235039+281939294+283501971+285386367+286693105+287447233+288181546
1918+288465177+287453633+285661676+284562823+284862992+286032684+286986703
1908+287020535+286344348+285695903+285518729+285717898+286047010+286488909
1898+287217800+288158591+288855932+289246241+290045731+291523519+292573116
1888+292112568+290707970+289598772+289196659+289275681+289636722+290140607
1878+290636016+291056761+291499877+292470623+294897094+299093629+303346368
1868+304621710+302147991+298483237+296155485+295583729+295897074+296315108
1858+296608278+296869296+297216954+297681139+298375048+299593533+301595519
1848+304550442+308406628+311921709+312583261+309782918+306266190+304505252
1838+304530060+305083047+305613936+307025431+310295758+314494318+317053510
1828+317057937+316124009+315116788+313328297+310897744+309252852+309140786
1818+309933860+310750164+311570860+312993026+315036805+316674765+316966630
1808+316306073+315967576+316979600+319607934+323104863+325859056+326672169
1798+326175043+326385004+328910604+333325472+336480199+335317130+331356290
1788+328486257+328273963+329742040+331628048+333587314+335297846+336188574
1778+336768942+338817422+343653755+350348063+355240738+355247738+351734578
1768+347662016+344616712+343767674+345755042+349111495+351217963+351746588
1758+352187440+352845561+353721329+356296855+361768525+368463210+372619291
1748+372778194+371088730+370026540+370541474+372335695+374278079+375269378
1738+376245305+379873310+386697218+392036715+390926796+385882836+380955264
1728+377300804+375460741+375704946+377358999+380325417+386140354+395707199
1718+405826517+409654017+405269584+398051010+392594334+390410696+391789045
1708+396320714+402204654+407049943+411037581+416700958+424223442+429552714
1698+430320568+427938018+422647760+415995176+412031145+412407318+415762569
1688+421224186+430017928+441390181+447796192+444013024+436622233+432323480
1678+432775861+436846091+441622548+444997049+448269435+452611217+455130847
1668+452927547+449324419+449126434+452568017+455951474+456568591+456413119
1658+459346494+467931751+482760890+498764731+503450328+498360182+496841013
1648+501503826+505932488+504156761+499438190+497413832+499793431+506721959
1638+518043120+530758345+537369718+535300308+532340512+534763036+542842555
1628+553694522+564744405+575643483+586153247+594748077+601863060+610993309
1618+624197870+637847606+645709925+648786693+652471760+658643757+665768348
1608+671788202+676093715+679453702+682528205+685088427+687019420+689154368
1598+692268194+695980162+699218407+701457323+703266367+705604448+708759106
1588+712212150+715347319+717935608+720116055+722362452+725597471+731029133
1578+738930019+746508158+749519183+749788265+753222024+761565684+771125599
1568+777614990+782246269+788822952+799081271+813903822+835123669+860516786
1558+875620017+874377890+869625898+867881705+868389124+869163017+868617236
1548+867300444+868173090+873173919+881163333+889589137+894217260+888578897
1538+875345788+864880768+860351878+858075767+853674178+847759391+844130871
1528+844277044+846764385+849860369+853124623+855679835+855826077+853932211
1518+851457085+848023600+843450103+839720155+839078435+842580203+850176528
1508+858987735+860790809+851554122+840756610+835662587+836167261+839500895
1498+841822437+840040225+835430220+832720737+834630181+839613030+842945292
1488+841004898+835289880+829738260+826652639+825970980+826614072+828376656
1478+832093978+837931698+844301818+847941729+845444780+837823270+830859880
1468+828517271+830323982+832985907+833938776+834775118+838876401+846938077
1458+854439287+853285344+843601011+833925119+828382284+826763882+827618136
1448+828286482+826357205+822547308+819428266+818119916+818641540+821556352
1438+826495898+829685968+827617655+823095491+820493338+820193650+820107799
1428+819265623+818716480+819465873+821502206+824598738+828218886+830086262
1418+827649429+822482319+818244472+815858696+814150738+812416633+811270171
1408+811612476+813166850+814215795+813659720+812907376+814003467+816984845
1398+820126396+821774788+821091755+818317146+815375159+814486592+815825687
1388+817130675+815892048+812711449+810897944+812481141+816515445+820922318
1378+824925260+829092835+833396632+836449244+837411172+837437181+838080548
1368+839831672+842649652+846324014+849799910+851435399+850949048+849840056
1358+849106377+848177184+846360729+844307308+843385183+844035618+845413212
1348+846389277+846566606+846594880+847594689+849984307+852938716+855145858
1338+855829508+855089242+853874359+853611454+855179896+858122982+861145261
1328+863363178+864841789+866090984+867561840+869661240+872580306+875837560
1318+878793135+881756877+885372495+889012338+891383015+892731581+894729826
1308+898114724+901905612+904972636+907211003+908987381+910627057+912674233
1298+915411372+917943389+918917120+918214255+916996559+916337339+916398554
1288+916457984+915559192+913595328+911342687+909201837+906919686+904784532
1278+903934808+905077084+907522907+909680158+910317211+909405724+907944612
1268+907070526+907245178+908107461+909245208+911130015+914426935+918392476
1258+921340914+922881082+924262519+926333165+928489799+929953175+930901789
1248+931812522+932587032+932750293+932081809+930868643+929557753+928121347
1238+926162355+923888646+922341066+922316704+923593761+925235976+926157140
1228+925710729+924243098+922607608+921081989+919434284+917942977+917409823
1218+918045298+919164928+920091787+920800280+921476793+922217334+923493018
1208+926013369+929432099+932068153+932812193+932408948+932268060+933129176
1198+935038620+937869296+941622440+946067949+950216652+953023584+954651456
1188+955946836+956973409+957215178+956942253+957588640+960481491+964919108
1178+968168470+968532530+967465125+967473223+969466596+972732840+975728904
1168+976639431+975031735+972772025+972098463+973776775+977481812+982198943
1158+985862461+986567591+984964836+983938332+985440825+988624924+991191459
1148+991950803+991256173+989924078+988962357+989360180+991672663+995717467
1138+1000164143+1003157119+1004349629+1005399192+1007232804+1008274200
1130+1006754757+1003581844+1001547295+1002707689+1007182296+1012891274
1121+1016239869+1015683589+1014074932+1015382184+1020024924+1024799357
1113+1027267758+1027794186+1027491409+1026755535+1025533584+1024293242
1104+1024376622+1026245577+1028381005+1029481694+1030503807+1032473504
1095+1034866553+1036839613+1037574801+1036873240+1036331371+1038606452
1087+1044610316+1051919580+1056532879+1055971657+1051767024+1048445193
1078+1049033934+1052334148+1053997843+1050906388+1045729946+1043991723
1070+1046745882+1049796023+1049737760+1047549421+1046048850+1047539608
1061+1053101453+1060661200+1065138964+1063572237+1058781060+1056435293
1053+1059548364+1066211310+1071781459+1072874462+1069505142+1064193438
1044+1060261661+1060135938+1063958120+1069578571+1073647737+1073741823
1035+1070220703+1065848074+1063034760+1062177487+1062491793+1063310087
1027+1064520371+1066208359+1067730479+1067951111+1067127327+1066615722
1018+1066321660+1065097925+1063300548+1062236299+1061947728+1061707949
1010+1061891592+1063407604+1065613236+1066362767+1064256642+1060302356
1001+1056710139+1054221151+1051117275+1046130583+1041734690+1041847305
993+1046735863+1052214190+1054202759+1052691963+1050058929+1047325701
984+1044327303+1041957518+1041448040+1042041310+1041572459+1039438471
975+1037385668+1037358012+1039779610+1043686133+1047582293+1049870139
967+1049121844+1045187322+1040014722+1035991261+1033349443+1030292508
958+1025658071+1020238350+1015445800+1011729508+1009105945+1008206329
950+1009164002+1010135812+1008489411+1003890454+999015004+996583387+996679600
940+997251253+996357059+993475257+989709417+987089628+986679108+987447854
930+987542489+986494848+985581782+985894235+986712323+986641913+985826776
920+985294446+984902249+983576194+981111361+978603295+977399461+978171090
910+980138248+981229466+980248392+978583393+978025397+978337096+978688460
900+979204525+979623143+978528630+975302463+971435675+968603970+966669821
890+964918697+964014140+964788651+966100089+966269321+965660129+965493506
880+965805479+966225675+966655684+966589117+965783176+965115447+965061781
870+964397484+962068599+959102524+957484123+958128862+960144470+961697608
860+961894907+961363675+960518274+958669633+955813977+953733175+953951267
850+955709940+957065711+957677304+959196679+962130911+963891712+962400336
840+959745479+958820404+958815188+957332460+955340459+956098019+960015179
830+963969053+965541476+965453291+965322697+965404498+965338549+965040027
820+963960612+961601326+959466035+960064246+963989298+969609818+974737811
810+977128870+974934149+969425214+965377323+966191362+969688051+970444993
800+966503266+961295324+958842776+959751312+961891751+963432948+964599449
790+966605244+969807048+973745894+977696062+979755522+977919851+973893370
780+972259939+974022112+974258048+968769975+960533990+955797095+957051300
770+961922975+966127128+967015763+965421106+964089491+964655860+966870414
760+970035366+973717002+976982491+978192570+976399584+972687547+969056419
750+966873776+967168593+970424955+974984452+977582143+976894376+974701027
740+973157976+972881826+973101292+972979687+972672929+972837220+973523683
730+973908742+973606789+973027382+972844837+973848077+975784079+976503277
720+974121894+969780010+966516511+966418719+969598014+974284606+977699082
710+978043583+976006221+973700875+971948996+969944231+967703942+967136819
700+969709943+973988760+976781624+976187599+972657008+967879075+963313608
690+959141847+955001654+951908072+950378884+947857916+942089438+935604920
680+933016424+934650061+935725083+932807801+928523837+926730645+926015222
670+922740125+920002574+924633991+932315480+933959685+928516288+921860548
660+919125879+919576682+920120953+920446857+921811755+923451980+923193741
650+920996824+919829637+922308331+927457118+930656383+927843756+920391751
640+913563280+910176185+909007694+907286285+901939102+893493533+887210019
630+887434906+893252999+899243206+900333258+897219569+894530400+893973158
620+893726929+893521601+894791040+894994173+889085836+880062369+877976557
610+886928379+899806899+906449668+903765096+895030544+885581872+878808096
600+875064422
##END=
