##TITLE=<SNM>
##JCAMP-DX=4.24
##DATA TYPE=INFRARED SPECTRUM
##DATE=2/5/2025
##SAMPLING PROCEDURE=Instrument type and / or accessory
##ORIGIN=Admin
##XUNITS=1/CM
##YUNITS=ABSORBANCE
##RESOLUTION=4
##FIRSTX=4497.3318
##LASTX=599.83466
##DELTAX=-1.4281778
##MAXY=1.7447737
##MINY=0.19155273
##XFACTOR=1
##YFACTOR=1.6249472e-09
##NPOINTS=2730
##FIRSTY=0.21106255
##XYDATA=(X++(Y..Y))
4497+129888869+129193104+129324853+129892647+130190551+129959140+129327182
4487+128602366+128376439+129290611+131259022+133216998+133999797+133401750
4477+132215286+131382839+131260123+131575377+131882599+131855702+131221048
4467+129848492+128165010+127132449+127440404+128862691+130506420+131502960
4457+131535028+130962475+130408886+130188167+130298879+130666193+130955689
4447+130631209+129684519+128706072+128030620+127605781+127622828+128339822
4437+129398554+130052548+129863898+128898033+127736823+127297404+127973581
4427+129053313+129553632+129309144+128703211+127905959+126969448+126171408
4417+125794327+125811540+125984280+126080522+126006637+125823425+125508454
4407+124860292+123977583+123504123+123890777+124721244+125182278+124945832
4397+124327584+123806640+123573349+123491184+123438794+123464508+123457749
4387+123052415+122180050+121333829+120966607+120986901+121065297+121029937
4377+120823514+120533909+120506426+120916996+121304008+121047681+120257986
4367+119671613+119702773+120012425+120013919+119527200+118858533+118369374
4357+118110113+117940060+117882434+118102611+118536300+118827721+118759439
4347+118547818+118546497+118803640+119107771+119368536+119684075+120046345
4337+120262433+120207228+119937706+119594821+119338889+119249222+119197208
4327+119012190+118793259+118782420+118985605+119269507+119664808+120186421
4317+120580705+120604997+120318005+119875155+119310553+118712965+118405064
4307+118695798+119452985+120113325+120256390+120038358+119909085+120081715
4297+120363434+120348817+119889369+119497653+119935807+121232865+122550482
4287+123132224+122940649+122317402+121518004+120705805+120075580+119827406
4277+120042521+120556945+120974750+120922654+120406149+119931892+120156223
4267+121259972+122653381+123382141+122924903+121655393+120568398+120475201
4257+121316067+122342400+122992836+123287596+123396474+123365057+123313098
4247+123375749+123467186+123560474+123915445+124550769+124963448+124834643
4237+124494189+124334608+124277129+124108406+123867357+123677459+123585436
4227+123703145+124203620+124973389+125442346+125119049+124308079+123870878
4217+124145105+124613301+124805014+124885905+125053170+125014536+124475811
4207+123681888+123197590+123371879+124068818+124850627+125468078+126011387
4197+126427019+126296233+125461301+124439644+123868347+123962608+124658382
4187+125735950+126687206+126978692+126563482+125908515+125621707+126103731
4177+127263721+128552058+129491348+130056482+130423365+130671934+130874826
4167+131125513+131310522+131136939+130546063+129907438+129668526+129917049
4157+130351544+130577948+130419028+130072273+129909327+129980149+129925623
4147+129561234+129198588+129176341+129414602+129555668+129327338+128817775
4137+128499228+128791337+129583243+130423265+131080450+131623365+132032734
4127+132035971+131387992+130183114+128879353+128113702+128335136+129317159
4117+130165480+130219080+129791939+129606920+129787382+129871408+129585113
4107+129210289+129247465+129914509+130979348+131959381+132429732+132324384
4097+132057017+132123684+132488027+132662702+132376902+131814849+131354915
4087+131353228+131902929+132676256+133286756+133687000+133971782+134155196
4077+134332521+134566757+134581566+134133618+133544256+133268791+133172210
4067+132829298+132322321+132128224+132321771+132447963+132254874+132104014
4057+132392767+132863888+132881990+132299927+131626905+131334347+131443087
4047+131852548+132578785+133448519+133947490+133701031+132940551+132263622
4037+131992348+131968827+132015008+132298222+132968768+133680590+133908049
4027+133631758+133322171+133332928+133625715+134019733+134446883+134953181
4017+135541196+136026806+136106505+135611752+134692636+133775704+133336578
4007+133558598+134170859+134747704+135116824+135364384+135557491+135609074
3997+135376892+134840397+134216151+133881703+134117882+134855940+135675127
3987+136147468+136208056+136084056+135938331+135761612+135604049+135732936
3977+136414212+137545747+138575400+138871370+138258522+137175434+136262160
3967+135886382+136149926+137069499+138395535+139504713+139922096+139828890
3957+139768926+140032451+140498923+141004487+141737144+142924581+144104672
3947+144550813+144571061+145104329+145946790+145808897+144368059+142812108
3937+142352596+143472145+146063289+149164298+150923059+150191898+148148437
3927+147009695+147486162+148327440+148332878+148097744+148965735+150936677
3917+152203776+150918383+147431315+143941276+142225285+142663678+145184202
3907+150129008+157416380+165109830+170100496+170997218+168579740+163758356
3897+157879808+153693463+153550160+156844616+159640128+158919347+157286365
3887+158639397+162193747+164327534+164750008+165470789+165077752+161528098
3878+157922138+158431710+162799699+168181971+172867360+175502925+174542305
3868+171939203+171403331+172701691+172248956+168767675+164985298+163908308
3858+167250586+176068692+188849114+196379479+189774887+176335528+165617494
3848+160518637+160907125+165446506+172134273+179309328+185980625+190485617
3838+190462526+186214375+181100203+177170350+174073724+171530907+170338207
3828+170679450+171879853+174764537+181199278+189318649+192815428+190539703
3818+187748520+185343697+180095108+172851276+168218872+169027211+174888262
3808+182114157+186438862+188837834+192821957+196750159+195958822+191967565
3798+189236190+187285129+183840914+179971640+178293797+179420361+182440361
3788+186768844+192009253+197160692+201862258+207332381+213998433+219659866
3778+222623799+224924228+229827062+239076133+252667075+268317728+281943609
3768+291435197+297886793+302806849+308008376+315868852+326605006+337307230
3758+345971680+354906468+368069069+387504336+411259154+432288540+445759261
3748+456430673+469315892+481907627+487984417+489589650+494840971+507514835
3738+525794028+543517944+553729377+554404637+549516090+544796753+543697057
3728+546424618+550654631+552915976+551330735+546676946+540506950+534419669
3718+530457023+530675018+536029597+544893407+552340415+553746654+549938985
3708+544657475+541171315+542412086+548933046+556442118+559240253+556984373
3698+553859631+553875221+559471013+571173454+586712358+600068965+603466687
3688+596179351+586652678+581595509+581743957+584885609+589212423+595458606
3678+604722056+612600139+611298478+603633622+598031447+594500646+587894513
3668+577957050+568944902+563089041+559934991+558363798+558388411+561187683
3658+566516218+571354035+574324203+579235822+589746058+603137365+609452214
3648+602091847+587615737+575257110+568756251+567291433+567852175+568467132
3638+569773818+573196740+578680179+584983364+591804484+599551396+606050164
3628+607085265+603630981+600837174+601953486+607780626+616550166+623418825
3618+624991412+624082458+624737506+626940932+629248606+632522236+637334340
3608+640975807+641086290+639473501+639091652+640365875+642290820+645281786
3598+650728911+657823745+662928196+663752711+662985858+664992821+669901102
3588+672805281+670767947+667606047+667377304+669327852+670253239+668536130
3578+665128614+661620005+658981103+658039869+660097452+666208355+675181108
3568+682377035+682933045+677690233+671743294+667836697+665076454+662178877
3558+659630136+658476299+658405211+658146464+657667410+658951318+663341003
3548+668778738+671389469+669691507+665809926+662676491+661482965+661419434
3538+660560732+657845900+654577552+652949944+653614016+655451219+657012728
3528+657783029+658414015+659335734+659204196+656014199+649998959+644141228
3518+641551698+642795990+645610448+647675293+649125145+650524451+650291894
3508+647544635+645315753+646619101+649118836+647844979+642803546+638710243
3498+638100092+639330958+640315916+641226338+643106018+645745727+647524241
3488+646913796+644398288+641982186+640458311+638865624+636885071+635825725
3478+636550467+638168538+639390235+639926071+640087467+640028997+640025403
3468+640659250+642069853+643623439+644513760+644142402+642054594+638480033
3458+634817878+632523483+631652383+631410949+631650476+632701679+634186378
3448+635312338+636100612+636917277+637042799+635478796+632886111+630672928
3438+628853185+626714684+624727162+623880492+623999705+624486095+625472373
3428+626818418+627649609+627990742+629108631+631384319+633302367+633211031
3418+630984936+627673598+624401142+621854308+620389564+620172266+621027960
3408+622192360+622407678+621116507+619264558+618065898+617761812+618107494
3398+619014174+620272918+621370340+621637671+620512225+618272338+616354510
3388+615920868+616334776+615898492+613969183+611796239+611073330+612008585
3378+613335813+614077135+614338340+614490713+614657171+614838412+614741941
3368+614000435+613014047+612570831+612629741+612464419+611957708+611965301
3358+613107180+614846372+616144915+616433374+615628300+613885991+611799320
3348+610355814+610227614+611241292+612572005+613329100+613344726+613314868
3338+613997794+615530655+617324355+618568060+619099714+619577961+620349508
3328+620757914+620179749+618697764+616516860+613957042+611921248+611135284
3318+610980637+610172665+608805969+608537574+610242359+612593353+613612094
3308+612834017+611357571+610646767+611677136+614278367+617055924+618628730
3298+618849697+618448260+617859677+616889025+615415917+613910530+613135534
3288+613668766+615645247+618412606+620569154+620955038+619519858+616987477
3278+614234533+612275549+612096289+613885440+616508643+618235657+618350689
3268+617563515+616716551+616100678+616085492+616918297+617723077+617389060
3258+616435942+616417895+617784188+619375115+619666435+618130749+615836281
3248+614658969+615365664+616621474+616555889+615210651+614361376+614916396
3238+615858803+615994743+615199206+613591882+611266235+609141930+608382744
3228+608795808+609175750+608933105+608234810+607189952+605771242+603949628
3218+601578974+598812935+596601586+596007097+597234076+599597467+602198882
3208+604279133+605019869+603773523+600811461+597515455+595284445+594324871
3198+594077348+594526433+595956367+597424010+597220760+595357660+593750924
3188+593625218+594315921+594644802+594297874+593871201+594015614+594374647
3178+593844864+592179071+590135867+587998687+585568095+583219486+581589494
3168+580903743+581078821+581591621+581337935+579669942+577511633+576435670
3158+576737518+577184219+576578506+574927238+572913086+570931470+569123941
3148+567775952+567069587+566793416+566818286+567503963+569082162+570778694
3138+571168392+569821540+568006236+567042700+566659053+565826872+564533941
3128+563640943+563440225+563212729+562089338+560144586+558550944+558294177
3118+558814680+558607836+557191327+555519592+554609133+554736747+555508257
3108+555965339+555280945+553845986+552873867+552826108+553136869+553310297
3098+553187269+552358462+550536738+548424721+547174304+546959647+546823157
3088+546076846+545163012+544781274+544928401+545137226+544944247+543985663
3078+542269911+540446536+539342549+539250993+539829305+540348635+540041138
3068+538704887+537068439+536208710+536404733+536717035+536103472+534744185
3058+533578281+532978657+532676809+532294410+531349031+529736425+528403035
3048+528303080+528867050+528814559+528075474+527523792+527332171+526804699
3038+525571998+524154388+523320336+523283729+523616902+523746166+523377742
3028+522543360+521425470+520283555+519438572+518960766+518425370+517344492
3018+515828321+514441963+513483233+512804928+512182929+511501396+510729665
3008+509905224+509062368+508221971+507481932+506974597+506671649+506339173
2998+505846547+505441553+505390126+505357847+504682367+503351581+502018888
2988+501019881+500132385+499154250+497986915+496545646+495252239+494966567
2978+495824572+496817782+496970449+496224138+494911692+493328431+492025670
2968+491574311+491835773+492108532+491951648+491315050+490166128+488606453
2958+487093766+486125792+485832161+485932043+485906917+485324753+484241454
2948+483168719+482434439+481760463+480759549+479637882+478951434+478777566
2938+478607110+477997802+476946635+475728093+474689728+474057532+473757151
2928+473488977+472948262+471975813+470650713+469319047+468453889+468293227
2918+468448094+468089867+466909657+465642623+465098461+464995681+464387693
2908+463029764+461705764+461199897+461472033+461966236+462266983+462184121
2898+461531933+460249823+458626250+457097643+455921468+455136422+454639395
2888+454297968+454120432+454112436+453935340+453173990+451969313+450865363
2878+450036409+449159917+448076581+447131606+446714470+446737029+446742715
2868+446434264+445918126+445434341+445059535+444777018+444622151+444528284
2858+444179485+443306844+442056977+440783670+439619783+438577897+437792447
2848+437273851+436747149+436061545+435404259+434906351+434415670+433762015
2838+432921250+431936990+430957608+430265474+430039373+430145381+430235139
2828+429938757+429010215+427544076+426080799+425197851+424882468+424532385
2818+423697012+422603443+421727904+421051507+420161040+419046268+418213830
2808+417848268+417476690+416704262+415704082+414776310+413978022+413327081
2798+412912329+412726357+412637259+412497944+412190228+411656116+410888273
2788+409851742+408594135+407395144+406508271+405819513+405024453+404035424
2778+403008760+402105711+401406095+400956973+400740775+400568045+400101352
2768+399122227+397824381+396717129+396145530+396020044+396001043+395776922
2758+395228322+394485275+393748061+393022401+392195759+391320808+390574497
2748+390005428+389512949+388938819+388095413+386934680+385711113+384728650
2738+383972692+383216147+382370393+381504135+380681528+380021197+379714214
2728+379689601+379430487+378483677+377067755+375841877+375146552+374759972
2718+374327246+373761295+373182213+372621214+371943863+371064840+370051272
2708+368967752+367845535+366860724+366267373+366063426+365940765+365614231
2698+365039183+364345400+363735798+363395179+363308502+363199082+362802378
2688+362155545+361473023+360844457+360242779+359677599+359124523+358460781
2678+357651122+356838602+356149586+355560967+355005140+354479281+354018862
2668+353619516+353252596+352957828+352760998+352454051+351722046+350617545
2658+349634348+349137358+348950725+348659111+348145944+347681527+347517673
2648+347515949+347267142+346544343+345532939+344633558+344115439+343930053
2638+343785127+343404965+342749880+341990657+341300541+340695378+340077781
2628+339422769+338841375+338409787+338063042+337750556+337544116+337479227
2618+337411294+337135710+336592281+335915811+335303422+334806982+334282444
2608+333634181+333028321+332689242+332552349+332335968+331935082+331548684
2598+331392717+331423822+331400456+331155611+330720134+330168452+329492495
2588+328753044+328187460+327950941+327865291+327620078+327122611+326512937
2578+325955643+325522807+325179913+324825575+324394904+323916804+323439658
2568+322948096+322397698+321828263+321407899+321299653+321457748+321625270
2558+321579162+321325513+321028874+320793676+320541568+320122231+319531043
2548+318957867+318623226+318593001+318698055+318638412+318281359+317821013
2538+317489050+317229789+316868151+316437113+316102510+315913859+315804660
2528+315714131+315640072+315647702+315779754+315920755+315900801+315737130
2518+315577825+315444710+315241204+314965473+314723232+314553729+314383126
2508+314158124+313953628+313900367+314028971+314220812+314281703+314031942
2498+313432501+312702110+312166054+311886582+311592437+311066615+310428880
2488+309926827+309634370+309492818+309476532+309542888+309543181+309357942
2478+309042339+308711367+308381201+308032732+307713131+307463388+307236865
2468+306983161+306748238+306632326+306675077+306794767+306831779+306676526
2458+306382125+306124019+306015168+305989253+305894213+305653402+305288408
2448+304857168+304461216+304240029+304225412+304252721+304156085+303983813
2438+303864031+303757326+303553178+303321134+303227983+303256869+303227928
2428+303075500+302928538+302920266+303035958+303153997+303184571+303143433
2418+303080745+302975178+302782199+302572292+302488109+302534786+302540160
2408+302375939+302115211+301914346+301837902+301875225+302045755+302362495
2398+302714963+302909042+302853397+302622582+302336984+302089387+301980316
2388+302075503+302275598+302329189+302013476+301250622+300076427+298592902
2378+296976793+295481126+294341448+293596715+293028655+292393469+291688699
2368+291075540+290648133+290400151+290284533+290304671+290698936+291897854
2358+294156576+297374598+301289027+305714274+310514713+315282029+319257660
2348+321814581+323045191+323779214+324506707+324471567+322815164+319859265
2338+316480764+313170196+310085032+307306797+304817425+302585736+300699692
2328+299178862+297757291+296144869+294492996+293333309+292991937+293258699
2318+293615349+293616467+293174425+292626595+292394918+292557965+292917621
2308+293357133+293864412+294293231+294381999+294043654+293512238+293154837
2298+293168373+293468936+293841615+294140272+294338129+294448924+294471061
2288+294421945+294377873+294418423+294530521+294614868+294592933+294462092
2278+294258513+294036593+293878828+293839965+293862578+293815682+293645886
2268+293453989+293406267+293568012+293815021+293928494+293802953+293541235
2258+293334776+293280415+293336665+293438620+293580483+293739294+293827768
2248+293836535+293907384+294136163+294432968+294683022+294891003+295076480
2238+295204442+295320390+295594159+296103474+296683199+297122582+297426355
2228+297758996+298236968+298911568+299817423+300867434+301827999+302579096
2218+303316549+304345249+305723646+307243229+308727580+310205346+311781381
2208+313486606+315281956+317093409+318828089+320442749+322024799+323764138
2198+325793183+328040699+330275818+332298150+334060854+335668618+337282837
2188+338937810+340474119+341770718+342936476+344135100+345338053+346358847
2178+347076254+347571704+347993095+348301765+348317171+348000248+347482606
2168+346876929+346219900+345481072+344553593+343361645+341935635+340313016
2158+338453474+336258411+333669175+330813084+327949987+325227269+322637922
2148+320074032+317339209+314664065+313249170+314392919+318009407+322803867
2138+327743253+332556677+337190145+341676081+346235379+350968802+355722583
2128+360387559+365039880+369805693+374740861+379800231+384976063+390461813
2118+396443269+402749976+409010721+415122028+421316491+427905494+435245393
2108+443931998+454917510+469366732+488099632+510903680+536463313+562870863
2098+587874888+609197722+625701409+637965619+647249574+654543659+660184752
2088+663366240+662710751+657679735+648582120+635801368+619694019+600406760
2078+578063865+553710266+529031637+505160100+482779570+462637681+445114960
2068+430016154+416992978+405651587+395621579+386879952+379533634+373418438
2058+368353750+364266095+360833563+357699137+354952136+352824419+351313273
2048+350401421+350131926+350514362+351756856+354298811+358559196+365117717
2038+374923349+388869895+407401453+430511347+457530662+486916194+516704923
2028+545044606+570294101+591424763+608515529+622362340+633699842+642879036
2018+649975043+655033790+658046545+658785006+657036424+652801606+646059276
2008+636754120+625053256+611283549+595738702+578714512+560629288+542049972
1998+523622404+505993088+489605459+474267604+459203571+444062326+429509039
1988+416354582+404749822+394511466+385552615+377777459+370977503+364930791
1978+359480475+354599925+350354432+346714836+343603006+341137457+339429188
1968+338044444+336160986+333514711+330733083+328496240+326862506+325579993
1958+324543058+323670638+322757575+321729041+320775189+320110713+319783115
1948+319806774+320407975+321790298+323311825+323454074+321557631+318902955
1938+317075986+316330262+316047195+315804403+315575110+315434916+315399445
1928+315551598+316274103+317836052+319623516+320723028+321345284+322192285
1918+322626698+321367440+318877168+317061350+316984650+318059586+318920929
1908+318747464+317846030+316986521+316486046+316191571+316013925+316150011
1898+316854249+318016633+319121574+320054371+321458115+323394981+324435987
1888+323441345+321354675+319748525+319016299+318814407+318924634+319173954
1878+319341073+319412491+319676594+320810696+323769860+328704992+333540131
1868+334843039+331782562+327258881+324172140+323095040+323071638+323101056
1858+322780794+322249544+321913693+322109386+322957266+324442039+326624117
1848+329933474+334668914+339247470+340126640+336374250+331640533+329144393
1838+328861179+329131298+329276738+330587789+334476633+339749413+342893889
1828+342592995+341073082+339663616+337517412+334648153+332591928+332133636
1818+332622226+333272470+334202112+336010888+338539968+340451267+340588050
1808+339453397+338616998+339334954+341990253+345797518+348845157+349602216
1798+348840389+349133470+352438902+358014630+361702242+359673821+354082540
1788+349986156+349357187+350868296+352818770+354793160+356496075+357215902
1778+357499153+359570014+365209310+373400905+379533267+379438556+374590469
1768+368808117+364412012+363090030+365518494+369550246+371796662+372091027
1758+372488136+373205799+373987287+376722991+383183207+391378874+396251428
1748+395601441+392247442+389635757+389241803+390896189+393202101+394519058
1738+395713171+400117749+408567908+415095324+413201962+406313789+399983607
1728+395777032+394079730+394840017+397070440+400793376+408256303+421031846
1718+435395492+442123406+437763506+429175169+422738429+420612289+423107659
1708+429583648+437693005+444404633+450127745+458539939+470269084+479459832
1698+481718867+479030701+472814744+465454450+461858907+463970998+469905576
1688+478209378+490461190+506305610+516352895+513237984+505215451+501079561
1678+502935325+509382887+516903257+522692395+528135668+534994680+540072280
1668+539407768+536628597+537884700+543716168+549187135+550357625+549771170
1658+552695267+562618644+580283908+599050994+603187324+595371819+592082343
1648+595476287+596966415+590189495+580671222+575324237+575680482+581579150
1638+592490896+604157829+607041761+598745405+589342714+585899875+588200432
1628+592960779+597830472+602597458+606160977+606349738+604918813+606720876
1618+613013497+618506876+617483991+612917209+610551433+611779806+614755366
1608+617198172+618423097+619309383+620608989+621893410+622405330+622400488
1598+622813736+623879979+624926707+625421460+625489026+625410749+625342302
1588+625503258+626068879+626894935+627704337+628719593+631164747+636696311
1578+645326830+652838507+653582104+650278395+650408026+655568452+660757562
1568+661271316+659214247+658639750+661417233+669809840+686953867+709277174
1558+718501411+709682939+699654654+695986850+697974152+703548999+710648235
1548+718520265+728693587+742621279+759177383+775502471+786384982+783888108
1538+771664907+762922584+761602142+762600745+760089859+755892676+755839782
1528+761339140+769438739+777837655+786858974+794904285+797752196+796017846
1518+793848973+791030994+786120952+781958469+782822306+790474177+804393873
1508+820545166+826673016+814837093+798578985+789799394+789469559+794631965
1498+800334243+801142765+796915209+793851028+796910441+805160212+811978618
1488+810970992+803627901+795958423+791669023+791242203+793645834+797957242
1478+803895819+811212793+819055625+825118330+825482939+819459189+812714952
1468+810655315+813696021+817835396+818832238+818069640+820639143+828946136
1458+838777444+839772672+829873358+819227806+813796821+813258491+815191211
1448+816578412+815558681+813119836+811332006+810954852+812361934+816642677
1438+823259705+827549691+825726647+821553379+819902075+820442826+820206454
1428+818587062+817801282+818971406+821061707+823642141+827605446+831522901
1418+830854647+825009241+818815511+815191284+813096801+810759122+808588122
1408+808405524+810317997+811922349+811691993+811525461+813671225+817492209
1398+820844556+822737514+822965523+821262572+818688669+817350840+817787784
1388+818010878+815683910+811695808+809747241+812094823+817649497+824010858
1378+830401050+837554941+844820048+849411185+850141430+849366507+849285369
1368+849814602+850861477+853387623+857089466+859414160+858410935+855021907
1358+851334002+848579187+846995229+846113125+845321697+844623144+844496228
1348+845043435+845726361+846075197+846391240+847384928+849152731+850784447
1338+851316468+851002185+850864412+851317275+852026098+852704256+853310813
1328+853773653+854248158+855299582+857246608+859707461+862127598+864361616
1318+866532470+868699068+870823190+872686803+873856926+874199600+874369873
1308+875263495+877004961+878887135+880144412+880433532+879976267+879544091
1298+879821253+880672765+881452309+881875901+881983890+881400809+879396120
1288+875867777+871712190+868037196+865341658+863438283+861794902+859859687
1278+857523769+855375144+854081480+853649231+853745189+854425181+855866669
1268+857536974+858294436+857575636+856207216+855650545+856514455+858091884
1258+859199209+859167957+858257535+857460898+857677389+858861818+860261124
1248+861461398+862568137+863342545+863100671+861849043+860817134+861384735
1238+863824387+867134404+869843294+871287571+872300479+874108044+876606972
1228+878619364+879688468+880548930+882058425+884584644+887810809+890518745
1218+891654388+891846890+892627461+894433485+896634344+898951114+901630219
1208+904576508+907164204+908937289+910258318+912027735+914666564+917703382
1198+920442277+922656560+924581064+926462358+928179981+929432123+930388836
1188+931637457+933282158+934845574+936452201+939315151+944236344+950115130
1178+954774201+957087963+957703103+958172986+959927878+963070924+965645488
1168+965464137+963086036+961252354+961521006+963368333+965983246+969029014
1158+972184898+975333006+978437684+980727384+981372455+981229253+981911886
1148+983392770+984542205+985267461+986326954+987799475+989153737+990111991
1138+990500516+990152046+989588700+989988449+991947507+994495660+996158482
1128+997042274+998828931+1002587923+1007525623+1011828448+1014210803+1014946771
1118+1015340137+1015790580+1015324511+1013986683+1013896814+1016241682
1110+1019310046+1021169258+1022442748+1024706110+1027728696+1029893460
1101+1030458567+1030189329+1030115674+1030469939+1031169812+1032567797
1093+1034570064+1036143972+1037223493+1039460005+1043514573+1047564813
1084+1049724442+1050194692+1050074085+1049967050+1050202102+1050878645
1075+1051446614+1051011797+1049517194+1048191984+1048102483+1048816588
1067+1049406565+1049701846+1049668907+1049431581+1049944454+1051749085
1058+1053952144+1055815831+1057998789+1060578489+1061761303+1060624193
1050+1059138027+1059941927+1063492792+1067232784+1068095814+1066230000
1041+1064437401+1065272553+1068748222+1072513010+1073741823+1071261969
1033+1066834869+1063716106+1063406152+1064484939+1064790418+1063607237
1024+1061764972+1060700563+1061558384+1064278278+1067445460+1069540458
1015+1070302762+1070715202+1071515728+1071862290+1070088765+1066104844
1007+1062238009+1060544596+1059895416+1057136126+1051483001+1046248113
998+1045095303+1047470176+1049052667+1047027657+1043110202+1040291709
990+1039057982+1037953004+1035881556+1032776585+1029340311+1026949959
981+1026380964+1026336213+1024578094+1020722703+1016840756+1014949338
973+1014861157+1014949925+1014179478+1012376755+1009393124+1005392991
964+1001158613+997373870+994480548+992852059+991723166+988930717+984060510
954+980162570+979713521+980944388+980195143+976326987+970990713+966104807
944+962667580+960868304+960288085+959964779+958810502+956905806+955926937
934+956922679+958471203+958844909+958894795+960473544+963290716+965473527
924+966230256+966053820+965151468+963391809+961281699+959731854+958997868
914+958519402+957740224+956397481+954364401+952239399+951461835+952746477
904+954897962+956100585+955979978+955246285+954069559+952251357+950177928
894+948378800+946624275+944413953+942048177+940325345+939288888+938390204
884+938013784+939352346+942359965+945144198+946280721+946581799+947276023
874+947681714+946176034+942933803+940016345+938680717+938071153+936941159
864+935606044+935462915+937214578+940113769+942454529+942754873+941188155
854+939608305+939576246+940614024+940935570+940039894+939492687+940727956
844+943127772+944689721+944084045+941593333+938408397+935827084+935041304
834+936503848+938884150+939654817+937889802+935675151+935601129+937872195
824+940835211+943403026+945508367+946606082+945755523+943610053+942624362
814+944497512+948258193+951647881+953927824+955856363+957168955+956287071
804+953026206+949563082+948019106+948878395+951565496+954757768+956522416
794+956214956+955719690+956958259+959456087+961327624+961710133+961294611
784+961079367+961559521+962539269+963518725+964333263+964806080+964188153
774+962075329+959345164+957186929+955711473+954464320+953787263+954200070
764+954747424+953778019+951544514+950001052+950240506+951781180+953492054
754+954380687+954290012+954446566+956187079+958855546+960143929+958454770
744+954294340+950198396+949305214+952550967+957546989+960937485+962016346
734+962911508+964834031+966681138+967182127+965491648+960780930+954169405
724+949175290+948424504+951364998+955171016+957125158+956571715+954486989
714+951394856+947232593+943602277+943632648+948606735+956127509+962036520
704+963801022+961670957+957169395+951654411+946381887+942310299+939744392
694+938621881+938342592+937602296+935326755+931539445+927374761+924598084
684+924422529+925644226+925062319+921582982+918077161+917552109+919466416
674+920292838+916556661+907464915+895452630+885609730+882238969+883632112
664+886612882+890557774+894697442+896996752+896124185+892511109+887406585
654+882221142+877978547+875184411+874420199+876310077+880418712+884853075
644+887193688+885980502+882496763+880364205+881161649+881208747+876308022
634+868583009+863624989+862572172+862392288+861478272+861523536+864893124
624+870934553+875693836+875294380+869684759+862801941+857928140+855150437
614+853599125+853167977+852945250+851542790+850613954+852945690+854889708
604+848178998+834016254+824154354+824895676
##END=
