##TITLE=<SNM>
##JCAMP-DX=4.24
##DATA TYPE=INFRARED SPECTRUM
##DATE=2/5/2025
##SAMPLING PROCEDURE=Instrument type and / or accessory
##ORIGIN=Admin
##XUNITS=1/CM
##YUNITS=ABSORBANCE
##RESOLUTION=4
##FIRSTX=4497.3318
##LASTX=599.83466
##DELTAX=-1.4281778
##MAXY=1.7126374
##MINY=0.21513338
##XFACTOR=1
##YFACTOR=1.5950179e-09
##NPOINTS=2730
##FIRSTY=0.23824273
##XYDATA=(X++(Y..Y))
4497+149366807+149472301+150611278+152008011+152619923+152209263+151330693
4487+150547489+150116051+150074506+150178028+150147096+150118985+150318425
4477+150425161+150001776+149327485+149036762+149142050+149072505+148606679
4467+148259005+148646010+149763015+151110205+152278816+152953546+152675556
4457+151489064+150518603+150834205+151991447+152645082+152289747+151487812
4447+150759915+150211922+149847815+149437015+148491572+146968765+145599471
4437+145091362+145350088+145773528+146014224+146159487+146302546+146297268
4427+146013672+145580768+145218735+144958065+144645406+144163268+143559633
4417+143045348+142884081+143127205+143536968+143936511+144382523+144755963
4407+144631131+143904738+142997412+142168534+141378585+140947185+141407285
4397+142558202+143430092+143376673+142742339+142314713+142406940+142654540
4387+142661014+142535388+142526317+142432268+141819113+140687898+139557880
4377+138962559+139025751+139363401+139347024+138706057+137890388+137577290
4367+137852421+138201506+138246368+138043453+137681121+137159548+136758828
4357+136981456+137955430+139187952+139950855+139827144+139072079+138419023
4347+138260718+138235363+137984531+137838585+138151843+138481281+138168182
4337+137408502+136997431+137138575+137148216+136445235+135385928+134878351
4327+135441805+136766256+138032401+138675022+138840764+138957720+139045117
4317+138832580+138360587+137996461+137963081+138122517+138167724+138006756
4307+137900730+137998778+137984176+137672563+137612800+138391053+139621174
4297+140281386+139931890+139140082+138745117+139057935+139875752+140961890
4287+142093721+142766844+142435528+141245532+140059254+139530208+139500462
4277+139508515+139544763+139935711+140720746+141554333+142066133+142023364
4267+141379454+140453060+139804452+139699780+139935711+140257619+140588365
4257+140851772+141065244+141544262+142453465+143348095+143764725+143874011
4247+143960082+143879850+143613304+143587127+143966192+144376674+144598835
4237+144766707+144780459+144289875+143394535+142794095+143079326+144128991
4227+145282842+145926396+145753237+144735363+143221572+141918421+141381911
4217+141496364+141748335+141944384+142319039+142990275+143708260+144190613
4207+144359746+144235839+143935325+143671974+143465303+143165004+142963163
4197+143303700+144052234+144421994+143975114+143174785+142804521+143179886
4187+143959774+144574330+144783495+144707635+144440753+144046012+143841584
4177+144161343+144836643+145371014+145654105+146092755+146871362+147416374
4167+147019391+145840896+144804160+144639717+145384215+146530564+147401034
4157+147633714+147414254+147112749+146898474+146815421+146912057+147163908
4147+147429033+147487834+147186862+146647203+146172258+145904236+145794819
4137+145820716+145971090+146217148+146629406+147273764+148055221+148887827
4127+149717564+150196816+149837538+148718488+147619794+147266486+147660069
4117+148203334+148390909+148323775+148489788+149051495+149529214+149365041
4107+148697869+148269552+148529549+149129755+149427541+149263490+149063443
4097+149213005+149495124+149380372+148796122+148182809+147872709+147903614
4087+148289106+148977148+149696469+150164333+150291276+150150702+149987025
4077+150190874+150997097+152127751+152827173+152504050+151464344+150628468
4067+150402347+150391753+150303963+150373395+150708877+150950871+150832710
4057+150596667+150638371+151012587+151442072+151648089+151522042+151128787
4047+150761409+150807663+151278385+151689681+151688148+151436438+151129207
4037+150622620+149892527+149424001+149705718+150536876+151184373+151218193
4027+150971238+151131496+152046501+153474212+154835836+155610426+155655410
4017+155276485+154855791+154424036+153826903+153199399+152908208+153116738
4007+153728071+154563489+155358856+155822469+155872525+155647562+155261734
3997+154755006+154221196+153796718+153597344+153704893+154060714+154481529
3987+154979839+155803317+156875049+157519090+157189773+156295209+155851981
3977+156405439+157591549+158658460+159154873+159109899+158760870+158275201
3967+157763821+157416474+157421799+157789232+158388878+159040000+159454369
3957+159359414+158854929+158449771+158656423+159605901+160843534+161496786
3947+161170048+160587517+160661695+161208482+161319936+160778231+160179762
3937+159960517+160199194+160986098+162241555+163333130+163557439+163005981
3927+162419041+162341014+162761624+163433766+164304208+165509329+166897486
3917+167627943+166752754+164556133+162570629+161969433+162616930+163907029
3907+165880836+168792836+171935684+173878625+174110949+173249233+171681573
3897+169550105+167668320+167066152+167730091+168321348+167808529+167199915
3887+167979737+169821556+171170063+171706387+172206499+172261974+171119633
3878+169932019+170327536+172172232+174386435+176562018+178223455+178271251
3868+177063308+176345239+176542717+176421752+175307494+174054167+173800224
3858+175350226+179270822+184885667+188266987+185824551+180545544+176382683
3848+174457643+174504616+176000283+178570261+181944780+185521635+187946695
3838+187882569+185886770+183986898+183087458+182525854+181729963+181093340
3828+181015145+181403916+182660999+185528848+188999350+190417214+189802546
3818+189514037+189385897+187579094+184752071+183207637+183974548+186637257
3808+189758600+191921290+193751132+196657059+199527804+199727673+197823504
3798+196232825+195164662+193861128+192816938+192940836+194180075+196022230
3788+198422664+201454619+204546552+207146929+209780809+213149237+216721962
3778+219608589+222165618+225479038+230265462+236543891+243382485+249489557
3768+254858978+260440563+266453726+272852521+280468527+290198325+301575640
3758+313130160+324450002+336880028+352039206+369584449+385786566+397563154
3748+407335291+418557393+430606850+439521475+444775257+449927208+457102182
3738+466345619+477033415+488016279+497383819+503907857+508214553+511604693
3728+514635078+516807690+517388857+516798834+516329214+516601300+517553468
3718+519723614+524447537+532645382+543180263+552134051+556337084+557773260
3708+559893405+563496811+567874134+572286137+576094999+579018210+581300014
3698+583345010+585329019+587143969+588887843+591229252+594621223+598059755
3688+599891970+599911926+599277283+598972574+598755907+597915136+597305531
3678+598509345+600309422+599895408+598476722+598790997+600199519+599758824
3668+596349140+591712399+588019008+586541801+587311794+589585901+592784673
3658+596398280+599911029+604012791+610247404+618452237+625155798+625932854
3648+622029522+618936618+618769428+620311022+621916704+622710502+623261961
3638+625019699+628016116+630619408+632657005+636560598+643833329+651181995
3628+653036706+650374595+648526535+650068541+654426469+659175355+661471622
3618+660979917+660692772+662747483+666581719+671188303+676060284+679548704
3608+680108496+679313726+679838989+682102445+684863660+687118596+688235713
3598+688131976+688036385+689547000+692962626+697297386+701054267+702744105
3588+701989919+700039767+698077432+696274888+694961433+694801642+696108819
3578+698591782+701149335+702241489+701730053+701666226+703934018+707976251
3568+711274985+712182460+711437168+709498974+705650911+700683863+697585428
3558+698738943+703474749+708899944+712692551+714476709+714917517+714669460
3548+714051372+712958695+711331114+710153309+710891128+713377231+715458474
3538+715152271+712592775+709530065+707600540+707305174+708055847+708907941
3528+709204952+708707792+707729240+707098821+707226549+707584098+707395533
3518+706332975+704513017+702063536+699051574+696091405+694807771+696936025
3508+702122580+707127969+708569376+706413842+703518172+701897841+701190815
3498+700614730+700685657+702338798+705101284+707043589+706886638+705710926
3488+705627667+707260405+709355999+710490081+710451591+710222144+710782533
3478+711757497+711897856+710935000+709991052+710095611+710962728+711022369
3468+708490452+703768397+700526464+701825420+706235292+709671769+709907868
3458+707601811+703944855+700043279+697943201+699316522+703138949+706225576
3448+706280807+703884092+701258976+700004191+700689992+703137230+706180807
3438+707924607+707195159+704609803+702088723+701757632+704690446+709569826
3428+712948157+712403612+709158913+706155321+704674527+704184915+704055393
3418+703981701+703557036+702549561+701265105+700206583+699797165+700402248
3408+701995973+704005094+705941420+707386863+707081631+703857336+699353891
3398+697542154+700316299+705145305+708191423+708328942+706718476+704697995
3388+703798218+705249715+707832379+708322216+705348967+701012638+698204562
3378+698220855+700388422+702426541+702297319+700712563+700276090+701802774
3368+703431625+703851207+703998293+704982524+706477893+707659808+708350915
3358+708915639+709691799+710329393+709680215+707285592+704915559+705114513
3348+708013620+711236943+713339189+715313183+717499509+717611691+714238218
3338+709820947+707773635+708914817+711618259+713671028+713852792+712625062
3328+711444866+711127526+710990755+709880065+707988359+707032677+708132604
3318+710216389+711447033+711323341+710256748+708903681+708813846+711245837
3308+714680446+715953692+714320954+711745016+709785297+709089780+710488362
3298+713873494+716955637+717239493+714710865+711294044+709030438+709122142
3288+711186345+713530370+714659968+714357202+713363703+712378799+711637243
3278+711348752+711960487+713395093+714456305+714227157+713830221+715017143
3268+717169912+717643605+715283586+712000024+710730814+712846139+716821929
3258+718966252+716847639+712131115+708762650+708904279+711764597+715760044
3248+720202652+724370521+726430763+724841074+720526419+716277011+714158996
3238+714213032+715234109+716058475+715946965+714605633+712477603+710493818
3228+709177448+708539256+708508464+708807866+709032232+709457120+710882907
3218+713234555+715239042+715616023+714199429+711898828+709716313+708008314
3208+706690076+705992466+706614216+708779017+711476406+713390684+714367441
3198+714950327+714643451+712307498+708459959+705353078+704583047+706065411
3188+708989332+712118858+713401072+711428648+707433873+704116828+702723851
3178+702174299+700778706+698144024+695083182+692431011+690822712+690898871
3168+692474210+693988263+693982508+692790653+691804478+691715987+692480936
3158+693687889+694118009+692822790+690961876+690431531+690878467+690231456
3148+687922559+685857682+685941315+687599688+688542515+687679434+685993632
3138+684658054+683928831+683693180+683672477+683491311+683409622+683993106
3128+684900955+685303496+684996097+683968367+681985106+679467613+677460734
3118+676280538+675391673+674486589+673912523+674204227+675164841+675487562
3108+674032029+671472235+669594130+669140692+669564683+670487555+671766555
3098+672479785+671573879+669349586+667160793+665949955+665842854+666664903
3088+668092409+669549960+670336957+669910573+668319016+666258774+664429324
3078+663041729+662091354+661585075+661223191+660489483+659398076+658641423
3068+658672515+659041499+658969077+658246879+657143813+655679984+653831027
3058+652425345+652633492+654213614+655495529+655466306+654727441+654128636
3048+653589024+652531773+650762712+648794697+647389463+646659268+646009043
3038+645095738+644074884+642973463+641830486+641089603+640852308+640458212
3028+639489078+638359853+637688178+637629060+637860376+637874128+637328312
3018+636212615+634629130+632795719+631267989+630492054+630107898+629252291
3008+627538537+625363870+623393351+622020367+621205605+620652091+620098204
2998+619420101+618652761+618161280+618396109+619156125+619605229+619388861
2988+619055938+619011356+618960011+618688000+618419278+618215279+618032020
2978+618305563+619355826+620420178+620340506+619063561+617514381+616054177
2968+614036536+611166315+608359846+606591719+605695828+604956739+604092313
2958+603096833+601971757+600952473+600207143+599434421+598517716+597975450
2948+597886325+597181054+595097008+592716025+591812250+592559149+593454255
2938+593317409+592379777+591360007+590427270+589385265+588326445+587738589
2928+587929396+588367215+587903313+586152899+584222216+583270794+582921803
2918+581988057+580296052+578692200+577563237+576637638+576028257+576160657
2908+576648923+576395784+575004302+573198134+571727578+570672719+569800744
2898+568924734+568017446+567280935+566859708+566474543+565654251+564317104
2888+562890196+561977377+561923827+562423491+562713589+562400210+561733056
2878+560957831+560098637+559444077+559327746+559347515+558608799+556783535
2868+554385773+552132444+550473062+549557664+549244996+549164353+548974069
2858+548565884+548015360+547492228+547214911+547200860+547015695+546084528
2848+544350930+542445920+541019759+540027717+538861460+537128797+535127972
2838+533443552+532338319+531801061+531843512+532329836+532719896+532345531
2828+530936486+528836931+526800343+525457068+524830124+524452844+523917006
2818+523143350+522280120+521545814+520999475+520324698+519077686+517270172
2808+515427419+513932873+512634814+511285335+509986230+508993142+508475540
2798+508539740+508979763+509060967+508209060+506740859+505290520+503957222
2788+502653894+501664693+501190028+500849557+500108188+498855608+497384903
2778+496043645+494939570+493960346+493121929+492671779+492628132+492490987
2768+491746479+490462322+489069009+487755105+486442884+485175057+484076026
2758+483028417+481806741+480458458+479256737+478379680+477829343+477518767
2748+477317758+477092645+476692196+475930611+474740250+473349179+472180717
2738+471502988+471173989+470738675+469862552+468703769+467724208+467135941
2728+466644274+465763929+464415235+463119979+462391614+462019603+461309961
2718+459972739+458345233+456812495+455494855+454466453+453856661+453677214
2708+453710248+453569179+452945711+451898960+450749594+449665960+448624889
2698+447690359+446911210+446077053+445038748+444052349+443372079+442824918
2688+442159633+441474356+440950065+440413928+439502118+438178910+436812278
2678+435716313+434899645+434307005+433975951+433845495+433675166+433255958
2668+432550874+431653115+430739138+429987044+429403112+428788387+428000681
2658+427194364+426644102+426367382+426132516+425790064+425330273+424711214
2648+423905981+422971301+421914386+420757022+419788336+419360869+419345100
2638+419128470+418313932+417232241+416580708+416619161+416901486+416820507
2628+416182277+415152866+413954621+412830516+412032757+411579953+411190005
2618+410597665+409770123+408784546+407778640+407036748+406799005+406931703
2608+407010402+406740858+406154908+405429272+404613276+403559874+402167607
2598+400662897+399498097+398945405+398860689+398814874+398459082+397822422
2588+397200933+396780267+396544243+396445588+396375969+396107471+395578958
2578+395060534+394766812+394548127+394180787+393678095+393113259+392407540
2568+391497524+390546738+389847858+389561236+389591542+389699315+389689861
2558+389451482+388911795+388130666+387358841+386805888+386410110+385965640
2548+385377971+384725466+384171205+383813768+383583648+383361525+383155920
2538+383027818+382909283+382657937+382266195+381880581+381599976+381358010
2528+381053637+380704758+380417388+380295601+380364249+380462007+380315183
2518+379856998+379318320+378906137+378593768+378282818+378000568+377882855
2508+377956136+377940329+377456995+376527135+375642082+375249891+375321341
2498+375448658+375302507+374953142+374689502+374603665+374516108+374226833
2488+373697497+373111211+372775336+372753961+372694843+372276793+371625671
2478+371025184+370524099+370124622+370042783+370423912+370969578+371161881
2468+370844130+370355601+370053620+369888897+369537177+368838746+367999656
2458+367399880+367279476+367566808+367925590+367996629+367683774+367196628
2448+366787808+366522711+366354288+366287920+366330670+366352195+366154138
2438+365685340+365114338+364717140+364693411+364963291+365146849+364931042
2428+364427902+363965644+363650845+363384141+363142586+362989111+362919604
2418+362869865+362790904+362678049+362609925+362716165+362992885+363208991
2408+363147930+362922257+362848527+362986308+363037504+362784626+362400694
2398+362233205+362456113+362969081+363486682+363705629+363486832+362919380
2388+362189707+361301851+359890078+357427107+353661854+348711922+342750851
2378+335880400+328381398+320850557+313909739+307856610+302635283+297991573
2368+293663184+289655985+286306484+283859582+282250555+281594183+282507973
2358+285638322+291167179+299072778+309547476+322210163+334736639+343503805
2348+346008853+342757167+337318668+333387945+331277740+329080390+326017381
2338+322712929+319704703+316930185+314168335+311613267+309952241+309672140
2328+310400429+311238341+311663305+311923357+312652469+314277042+316751261
2318+319637999+322398093+324790212+327033526+329479083+332184842+334914143
2308+337437092+339699614+341733025+343480711+344786766+345600034+346101529
2298+346541066+347045738+347664872+348451196+349382588+350319697+351126611
2288+351731246+352046755+352010843+351771979+351647614+351781209+351983190
2278+352004901+351827621+351605125+351476687+351510880+351702210+351942495
2268+352051052+351900903+351568652+351366261+351612374+352287562+353002324
2258+353380090+353391525+353287489+353336518+353638088+354052550+354315069
2248+354302401+354132632+353997841+354028783+354285174+354704270+355093695
2238+355319331+355459578+355689100+356087942+356619632+357217316+357837459
2228+358469747+359130211+359838844+360608838+361461492+362410298+363401219
2218+364353014+365304062+366391545+367650851+369005226+370468270+372154520
2208+374091332+376194512+378390778+380639772+382891906+385097402+387214184
2198+389204995+391088630+392987773+395054331+397346038+399804824+402271569
2188+404514771+406410551+408115673+409833202+411441127+412669529+413572819
2178+414475810+415500961+416405932+416873160+416826673+416438145+415900438
2168+415291282+414576819+413633731+412381599+410919601+409352334+407619895
2158+405685139+403605054+401325939+398715846+395715542+392329364+388757871
2148+385346207+382112794+379046907+377082517+377565104+380518958+384577222
2138+388638701+392579738+396521560+400356020+403950121+407375089+410861342
2128+414480892+418042893+421527166+425277919+429506587+433978455+438373716
2118+442717482+447316255+452253408+457120343+461488063+465363181+468905675
2108+472225897+475669362+479671648+484273673+489327529+495084750+502067982
2098+510244265+518523163+525355236+529887269+532307788+533266310+533242991
2088+532103341+529154794+523924293+516492480+506990448+495633406+483217131
2078+470874736+459501027+449530309+440894123+433319000+426776538+421318234
2068+416728280+412773266+409416049+406598257+404221796+402210806+400375676
2058+398614388+397163863+396181649+395420138+394601602+393672378+392683587
2048+391775738+391080035+390569234+390231341+390128912+390193000+390406528
2038+391058174+392453131+394768269+398346339+403633155+410836903+419920885
2028+430575722+441980373+452944178+462407683+469800295+475138980+478746684
2018+480803712+481387457+480726507+479000981+476171979+472249813+467416547
2008+461834401+455557075+448617901+441178279+433625016+426396568+419706909
1998+413609254+408245120+403768170+400029488+396592450+393183102+389939599
1988+387092659+384686378+382700650+381105020+379742835+378471122+377375044
1978+376604490+376098659+375603928+374888829+373995106+373298356+373093722
1968+373129746+372865209+372180305+371460573+370986357+370630041+370196558
1958+369750294+369445361+369260420+369099247+368986205+368983851+369044650
1948+369118567+369334187+369854853+370476043+370620288+370008105+369059972
1938+368344537+368019724+367940725+367931569+367875590+367763333+367665874
1928+367668714+367916323+368490987+369139905+369541101+369840840+370272978
1918+370438337+369821370+368799172+368218491+368327684+368676301+368735121
1908+368409448+368037623+367918079+367931233+367793864+367556718+367558960
1898+367942332+368443192+368727796+368885644+369346743+370132507+370560348
1888+370093643+369070472+368130112+367582129+367545620+367989865+368546369
1878+368819874+368851040+368962251+369448948+370621932+372583669+374577095
1868+375208449+374081242+372324588+371084863+370600706+370595587+370777351
1858+370916738+370880640+370728958+370653621+370851903+371458742+372560239
1848+374319546+376802285+379219217+379909652+378397953+376317755+375197163
1838+375129525+375447014+375789130+376502957+378048214+380054084+381380543
1828+381589774+381382561+381157860+380604907+379749076+379161108+379117349
1818+379336706+379524898+379854681+380731589+382108160+383285068+383660367
1808+383459358+383402146+384031183+385499159+387489708+389206975+389955444
1798+390000026+390471850+392268938+394988150+396739348+396058144+394114456
1788+393070247+393610308+395026304+396520887+397895553+399105682+399982477
1778+400742717+402202772+405072657+408927857+411861157+412295948+410976739
1768+409434995+408506855+408850054+410778009+413378723+415151745+415930483
1758+416597450+417478766+418734037+421111208+424965848+429113238+431643922
1748+432200911+432052107+432287458+433321503+435245796+437681599+439830370
1738+441798497+445007694+450008075+454350234+455183756+453849374+452827960
1728+452892609+454185623+456638392+459727858+463319680+468323761+475459795
1718+483351511+488616467+489901446+489534443+489944570+492059222+495986582
1708+501463646+507626772+513363141+518971146+526137599+535094078+542924658
1698+547583484+550503256+552574448+554012791+556330731+560654841+566409670
1688+572865584+580852442+590986837+600105723+604459279+606202481+609025280
1678+614279473+621566517+629190781+635487128+641001860+647217041+653545003
1668+657949644+660790380+664367665+669450035+674600042+678449301+681727407
1658+686152078+692995062+702593283+712303985+716029850+714724019+714971777
1648+718021034+720611845+719843907+717418193+716258027+717188223+719844654
1638+723311999+725429566+723552657+718692261+714598533+712620503+711901369
1628+711411084+710833430+710038063+708249046+705144707+702414658+701929306
1618+703116827+703139771+700525567+697417790+695756203+695232659+694614422
1608+693179218+691168528+689175475+687446399+685880403+684521358+683779503
1598+683920759+684478906+684610820+684092134+683491311+683313434+683458949
1588+683481446+683069562+682307229+681525538+681061861+681411637+683230250
1578+686412093+688971140+688629959+686867026+686823902+688784070+690344087
1568+689878316+688810228+688975101+691039529+695714200+703775647+712835376
1558+715504588+710790156+705425275+702578784+702319142+703865557+706303976
1548+709486866+714076260+720360799+727717237+735167772+740768228+741320621
1538+738022858+736246249+738100362+741879067+744920925+747040435+750051053
1528+754464886+759244714+763963331+769290917+774642420+777786595+778479047
1518+778805505+779355506+779341156+779096537+780036000+783283389+789292218
1508+796961138+801513761+798805984+793263225+790348946+791079963+793863899
1498+795897459+795472048+794262554+795052391+798310393+802327663+804711748
1488+804266007+802140593+800398363+800088721+800897541+802131774+803794556
1478+806401660+810051666+814114975+817286131+817881648+815771032+813448009
1468+813374018+815913558+819255043+821143611+822007738+824412300+829575014
1458+835190119+836188103+831851250+827167835+825016860+825133153+826158192
1448+826669180+826096981+825057817+824380387+824379116+825309761+827615594
1438+831005360+833668742+834110745+833602374+833984363+835091763+835635411
1428+835416652+835545277+836615308+838104698+839527345+840837362+841250666
1418+839594610+836802678+835031225+834744080+834894155+834787428+834803273
1408+835322332+835700434+834880702+833068666+831904912+832468067+834118593
1398+835501405+836110001+836401108+836797296+837167177+837156266+836711048
1388+836081750+835543558+835654918+837548643+841892820+847673621+852953150
1378+856850391+860026479+863401298+867032021+870100336+871854225+872466633
1368+872899144+873993242+875690703+877086221+877214472+876042497+874462525
1358+873158113+872087634+870981802+869850336+868942038+868377239+867935535
1348+867281348+866436205+865850180+865872975+866310121+866580749+866296967
1338+865789418+865834111+866563036+867233889+867522604+868231275+869941367
1328+871838455+872867829+873127471+873166708+873005273+872639503+872503254
1318+872878442+873592195+874435918+875375157+876495712+877937343+879696913
1308+881653268+883844826+886229882+888287209+889479065+889811203+889496703
1298+888586836+887182275+885528909+883769265+881811789+879419408+876523141
1288+873593465+871262221+869416404+867176939+863845693+859606150+855420120
1278+852330279+850701204+850144402+850137825+850424970+850865105+851318096
1268+851780578+852273702+852532074+852210548+851540891+851329306+852043807
1258+853328413+854591643+855621166+856566833+857726326+859284475+861108843
1248+862973270+864818863+866507805+867773128+868801082+870209604+872038755
1238+873436888+873853705+874158414+875828446+879096164+882612612+885147743
1228+886875324+888485715+890032877+891360383+892856723+894893049+896967043
1218+898455461+899871607+902296872+905877520+909666838+912689712+914575963
1208+915581570+916504591+917992635+919928064+922012447+924414095+927182858
1198+929683609+931366871+932618442+934271658+936585189+939131083+941514345
1188+943725783+945879822+948212860+951156811+954563393+957104503+957645983
1178+957109585+957660483+960240681+963769012+966542633+967839197+968154146
1168+968381949+969217899+971014389+973614991+976374636+978412532+979120904
1158+978952592+979541756+982268143+986530930+990211055+992181387+993302390
1148+994566891+995803216+996563904+997154862+998452472+1000828111+1003531030
1138+1005386040+1005946579+1005572064+1004753453+1004217877+1005145158
1130+1008035521+1011644047+1013920433+1013931494+1012714975+1012421178
1121+1014295545+1017339197+1019674701+1020993687+1022266185+1023841748
1113+1025205950+1025886893+1025897880+1025717984+1026012155+1027253637
1104+1029538767+1032475319+1035266205+1037210677+1038199542+1038899917
1095+1040497005+1043361284+1045987745+1046861887+1047022874+1048404341
1087+1050568096+1051604645+1051000533+1049728035+1048588870+1047947016
1078+1048507929+1051122731+1055450540+1059017810+1058999200+1055681482
1070+1052509280+1052257336+1054756667+1058733430+1063920059+1069278588
1061+1071566259+1068746076+1063548833+1060527678+1061021251+1062981418
1053+1064301973+1065083066+1066312141+1067384788+1066863263+1065173275
1044+1063883437+1063481942+1064300180+1067193233+1071250265+1073736442
1035+1073741823+1072790476+1071941895+1071355198+1071298546+1071284121
1027+1070288903+1068910276+1068916853+1070524255+1071800938+1070714389
1018+1067476343+1064611690+1064091883+1065257132+1066201602+1065884337
1010+1064337549+1062148756+1060162131+1058920874+1058374386+1058476852
1001+1059378274+1060580368+1060810563+1058961831+1055069074+1050629232
993+1047638421+1047012411+1047929228+1048376165+1046440362+1041618980
984+1035240270+1029610815+1026450870+1026137267+1028128675+1031211864
975+1033265977+1032133016+1027430094+1020648470+1013892107+1008936270
967+1006414667+1005457116+1004446502+1002371312+999278557+995693649+992158890
957+989177944+987070617+985620465+983986083+981568815+978836673+976333829
947+973476052+969516554+965287923+962743076+962808024+964588744+966446146
937+967245475+966519016+964235081+961291280+959563101+960264298+962474541
927+964114678+964240911+963459968+962222672+960340008+958408989+957950767
917+959490231+961662581+962741581+962179398+960397856+958050394+955787012
907+954117353+953360775+953784767+955142317+956287162+956389330+956044710
897+955909658+955092542+952548741+949108676+946468014+945102243+944185276
887+943127875+942273539+942310460+943358667+944537518+944704858+943561956
877+941825033+940390203+939618453+939458064+939672937+939900292+940076525
867+940564792+941473911+942357844+942852015+942904556+942107993+939846330
857+936781602+935244530+937012096+940890129+943507846+942980490+940414418
847+937486312+934758580+932897291+933524946+937168748+941367259+942566962
837+939889380+935765382+933077262+932858801+934362167+936380032+938425999
827+940812102+943618683+945974441+946910242+946680645+946501572+947094547
817+948209273+949508153+951017946+952539623+953211074+952136259+949576988
807+947115773+946099404+946075413+945435277+944145888+944414573+947547911
797+951866154+954556218+954598669+953230207+952624152+954369147+958165267
787+962360863+965657954+967278883+966593829+964037846+961346811+959813401
777+959313923+959387092+959638363+958898526+956154950+952374152+949608602
767+948740140+949128258+949835508+950461443+950909875+951128784+951258903
757+951622581+952382149+953271238+953837308+953985141+954103676+954604349
747+955587535+957066685+958799946+959841951+959468632+958419901+957825057
737+957474010+956951363+957424832+959893221+962738816+963349654+961299277
727+958373040+956334621+955827147+956483276+957102036+956530137+954847100
717+953439998+953839999+956193291+958634251+958907420+957293741+956132379
707+956250017+956359061+955822662+955205098+954132749+951320040+946426236
697+940192968+933761867+928806104+926548328+925830091+923736291+919212592
687+914541210+911778500+909434252+905102481+899767496+896626011+896501646
677+897003516+895999553+893808593+890184821+881872028+867880228+857460108
667+862742851+877520377+887224801+888236985+885031300+881807454+879962234
657+879534057+879174939+877490183+875676353+875799149+877005877+876643918
647+874728370+874222689+876554531+878861859+877348180+872630684+868958257
637+868481873+869344879+869654147+870406839+872466782+873638832+871022086
627+864269834+856661975+853265856+856003753+860609066+860787392+855719223
617+850101950+847721229+848844848+851687005+853452777+852029532+848271230
607+844978774+843090206+840755150+837627791+836410300+838302157
##END=
