##TITLE=<SNM>
##JCAMP-DX=4.24
##DATA TYPE=INFRARED SPECTRUM
##DATE=3/5/2025
##SAMPLING PROCEDURE=Instrument type and / or accessory
##ORIGIN=Admin
##XUNITS=1/CM
##YUNITS=ABSORBANCE
##RESOLUTION=4
##FIRSTX=4497.3318
##LASTX=599.83466
##DELTAX=-1.4281778
##MAXY=1.8716611
##MINY=0.3468762
##XFACTOR=1
##YFACTOR=1.7431202e-09
##NPOINTS=2730
##FIRSTY=0.3675876
##XYDATA=(X++(Y..Y))
4497+210879086+210023615+209785846+209817202+209622072+209241183+208864516
4487+208238420+207304969+206892330+207782423+209593401+211285536+212248548
4477+212490216+212426136+212687773+213446064+213974655+213494671+212172363
4467+210751200+209640794+208822235+208262920+208059328+208371692+209311042
4457+210701875+212012026+212746672+212834962+212437197+211632453+210591239
4447+209795164+209640041+209800344+209487125+208538423+207688132+207489054
4437+207653408+207782235+208005985+208428728+208553212+207879295+206733036
4427+205962623+206000767+206582855+207200540+207457578+207086759+206071173
4417+204868049+204201142+204372780+204879692+204981420+204616619+204363531
4407+204478782+204542469+204176830+203543502+203005011+202773653+202854095
4397+202991692+202865858+202534516+202463443+202989419+203903738+204617064
4387+204743702+204485895+204261940+204080659+203628731+202729423+201433342
4377+200103358+199474851+200027446+201355088+202656999+203500588+203724099
4367+203227171+202213723+201199436+200623674+200622323+200992801+201239717
4357+200980354+200452446+200300214+200779087+201446267+201742902+201683695
4347+201718949+202034784+202283821+201966225+200962846+199724588+198997294
4337+199174471+199874068+200335382+200187492+199732795+199511182+199836831
4327+200773599+202058207+202914294+202638193+201668957+201331597+202209192
4317+203452631+203900250+203290379+202266005+201641653+201745928+202254140
4307+202633559+202764968+203031477+203808815+204979334+206019745+206428212
4297+205996527+204953005+203961629+203678056+204131557+204738915+204949346
4287+204627271+203920698+203100362+202515042+202438926+202819884+203246525
4277+203318880+203072818+202909814+203153568+203833024+204747788+205564739
4267+206007674+206143391+206319526+206702946+207039656+207001735+206633463
4257+206253685+206060077+206066369+206229441+206362662+206246555+206089621
4247+206420330+207269646+207994359+208112055+207844930+207712291+207961430
4237+208420402+208694742+208583149+208347551+208424625+208891855+209387466
4227+209576953+209520635+209429661+209273907+208953062+208641006+208558512
4217+208630440+208741691+208976229+209315077+209559292+209726502+209997388
4207+210217633+210004176+209385944+208913671+209112476+210020674+211148656
4197+211854630+211948237+211873882+212162891+212838364+213499561+213826868
4187+213763335+213324606+212542242+211576922+210721212+210270224+210408027
4177+211144587+212328460+213686552+214818312+215370361+215388740+215249416
4167+215153022+215027632+214907611+214998892+215407086+216043526+216617424
4157+216688138+216083789+215299032+215148970+215862587+216730094+216918163
4147+216376338+215595889+214916535+214535714+214675859+215243364+215792181
4137+216116753+216387896+216656731+216743994+216595626+216422141+216495077
4127+216924010+217618631+218352935+218752084+218399046+217372382+216512619
4117+216611304+217515040+218386787+218576771+218075671+217437333+217248445
4107+217474195+217627932+217697363+218273707+219550160+220848105+221386083
4097+221062246+220347963+219768200+219535867+219448980+219213826+219002643
4087+219373034+220414249+221382184+221467516+220605343+219356570+218343378
4077+218007813+218556579+219758318+220925880+221453462+221361155+221061767
4067+220775511+220566721+220657831+221166197+221753397+221957160+221733069
4057+221442589+221429509+221759347+222263934+222698354+222823762+222437487
4047+221588581+220812047+220797668+221585025+222345453+222321842+221798550
4037+221649447+222138253+222834482+223543738+224514512+225681219+226421165
4027+226287261+225625175+225242456+225531226+226095773+226328636+226146688
4017+225945729+225981616+226110494+226077872+225804455+225445860+225300142
4007+225564549+226072299+226399024+226410326+226499213+227006878+227625537
3997+227721537+227131071+226362454+226072059+226489400+227293391+228014873
3987+228555996+229117277+229624172+229688936+229273220+228904675+229036887
3977+229574146+230112996+230319957+230111491+229723780+229464246+229293463
3967+228976192+228694585+228984860+229941341+230952652+231339303+230997156
3957+230392346+230064833+230163227+230524951+231086882+231775297+232127121
3947+231774032+231217418+231333097+232252375+233249513+233632043+233389145
3937+233032550+233161685+234038835+235234744+235759574+235089965+234067114
3927+233999871+235048112+236117673+236360024+236158928+236298492+236861483
3917+237173642+236543476+235041598+233417936+232315070+231966169+232635966
3907+234783688+238402172+242368394+245063139+245854906+244995451+242559420
3897+239085031+236337661+235998711+237849268+239596764+239560929+239244051
3887+240690501+243075668+244135330+244057247+244376006+244313499+242505342
3878+240425085+240240317+241954576+244503670+247278001+249195203+249017649
3868+247951816+248092986+248871640+248063323+245440301+243091739+242724664
3858+245014788+250410705+258106919+263021518+260010221+252754788+246826620
3848+244189904+244742568+247390124+250628522+253554043+256120662+257940581
3838+257960961+256294505+254573698+253652796+252992779+252202978+251792784
3828+252081110+252798334+254337536+257606982+261538446+262934785+261539558
3818+260261566+259475406+257231889+253750438+251452501+252019766+255345752
3808+259288261+261428905+262601682+264997979+267471401+267014498+264532065
3798+262950069+262255653+261010402+259421465+258698171+259133840+260307608
3788+262065225+264383662+266867326+269280634+272018566+275166179+277866172
3778+279614950+281256700+283963412+288353917+294218466+300188743+304683403
3768+307873075+311109421+315051058+320067317+326844065+335235088+343603646
3758+350651145+357436647+366359561+379005851+394292721+407572151+415690578
3748+421921005+430153881+439660320+446442505+450283611+455238764+463843775
3738+476231009+490977919+505287450+516075420+521990132+524181058+525219093
3728+527379962+531260494+535474248+538245109+539270047+539707972+541263023
3718+545345574+552526532+562522940+574134513+584955686+592695822+597241397
3708+599584796+601366725+605082475+612001677+620372081+626995092+630632263
3698+632504671+634528900+638215038+644474291+653402950+663041140+669146040
3688+669370764+666189470+663085045+661853506+662692359+664765896+667908004
3678+672520736+675946587+674144894+670592934+671294668+674781522+674987166
3668+671553245+669608209+670980628+673090344+673642444+673987669+676838236
3658+682094709+686770701+690081454+695448238+705141959+715805975+718558815
3648+710037272+698950410+693353158+694417008+699215963+704391874+708706433
3638+712369250+715169484+717269898+720694108+727207355+734784659+738095959
3628+735267413+731140649+729783480+731472538+735000288+738821356+741643473
3618+743077511+743689245+744488638+745670596+745477398+741242443+733298920
3608+727005336+727963800+735816094+744884881+749983582+750864425+750393639
3598+750354521+751203290+752429973+752395095+750747275+750193739+753602493
3588+759488756+762251033+759639279+755661533+754767080+757545293+761199424
3578+762708005+761583562+759896829+760018698+762743088+766655523+769028808
3568+768294931+765832331+763988237+762904964+761198672+758685055+757111573
3558+757711750+759190992+759270186+757656355+756312728+756756090+758020456
3548+757608689+754470821+751096740+751292263+755368078+759493611+761014023
3538+761872503+764763762+768761204+770763686+769548423+766430594+763247727
3528+761417447+761396999+761890353+761863955+763152325+767839943+774176680
3518+778186705+778493838+775947120+770489858+762907221+756756637+755283960
3508+758288128+763082637+767000680+768332818+766774656+763566212+760215041
3498+758212148+759424539+763646979+766988233+765910431+761734769+758720411
3488+759548595+763872934+769456099+773661441+774537361+772250861+769321237
3478+767916333+767644352+766923880+765284814+763474913+762693985+763630292
3468+765333506+766406794+767351444+769586447+772426756+773445060+772246416
3458+770838161+770222323+770139710+771407905+774836765+778552515+779673538
3448+777900773+774588652+769930236+764232315+759447244+756839182+755385859
3438+754154867+754174768+756079797+758195051+759426249+761066887+763347369
3428+764547449+764616248+765502904+767829821+769763642+769184118+765951943
3418+762464747+761784077+764344130+767448898+768639951+768321876+768241657
3408+768741303+768861188+768038269+766602180+765534431+765992224+768361747
3398+771119921+771354767+767857792+762806074+759318400+758489464+759216228
3388+760101858+761344271+763988852+767273618+768854280+768088261+766758243
3378+766214965+766376430+767369704+769632062+772653601+775223639+776361349
3368+775620702+773785019+772842216+773618425+774086749+771985104+767957776
3358+763942485+760845172+759430557+760516429+763443523+765806754+764887682
3348+760661481+756424679+755454316+758609690+764141769+768727898+769746408
3338+767458404+764462579+762941005+763086193+763763512+763640824+762359429
3328+760959312+760449613+760763448+762277363+766206211+771599871+774847023
3318+774371655+772676648+772014853+771850994+771214366+770260620+769154642
3308+767712262+766107527+764820114+764324640+765144275+767849859+772683281
3298+778723623+783108211+783050423+779130260+774391830+770804103+768340204
3288+767030566+767782155+770299397+772188422+771939830+771219085+772252981
3278+774730421+776658360+776739537+774901734+771999397+769850700+770169322
3268+772824640+775821969+776998524+775607024+772680341+769967918+768499755
3258+768343966+768858452+768785140+767065922+764022089+761413685+760789572
3248+762164043+764456082+766194517+766168734+764499030+762794243+762844098
3238+765293225+769310500+773167335+775089255+774071225+770568574+766377593
3228+763539882+763342718+765916244+769891528+772786137+773239963+772443990
3218+772179327+772708106+773193117+772976531+771835059+769442763+765639818
3208+761697771+760203278+762261907+765257321+765633937+763645132+762658287
3198+764257619+766390313+766535775+764989239+763657716+763415278+764420589
3188+766822801+769569555+769908693+765801283+759025766+753518375+751072531
3178+750582254+750611456+751107683+752254899+753049846+752527564+751798269
3168+752743329+754840598+755397553+753351029+750635802+749029973+748233316
3158+747765813+748107345+749131120+749578107+748546535+746400027+744302895
3148+743241506+743310715+743773090+744079333+744129941+743607179+742462288
3138+741510321+741266106+740895030+739310880+736754999+734329807+732848377
3128+732502947+733031042+734024111+734888062+734949475+734178942+733298646
3118+732632543+731681738+730428862+730041031+731569786+734513430+736953941
3108+737080322+734881018+732068201+729817332+727412316+724171045+721523865
3098+721328889+722982249+724267336+724754330+725799442+727222332+726874098
3088+723937704+720431291+718913888+719957154+721908003+722782623+722351707
3078+721686493+721207295+720587080+720007625+719834123+719484316+718355496
3068+717131343+716824689+717258682+717429038+716854507+716000335+715512588
3058+715307013+714720582+713438777+711922332+710758497+709949667+709224749
3048+708779882+708961385+709139811+708065018+705877613+704496919+705257740
3038+707118727+708166028+707961067+707264326+706191858+703909941+700244525
3028+696456420+694019398+693238333+693380581+693886109+694941548+696574254
3018+697762503+697394778+695810833+694335489+693686825+693720951+693912233
3008+693186153+690588828+687012317+684820262+685277918+687314252+688760873
2998+688220057+685865375+682966183+680844158+679975146+679733324+679158109
2988+678100687+677353338+677593039+678352219+678375130+677218681+675785532
2978+674903800+674389998+673857525+673357264+672833613+672080588+671328794
2968+670727454+669775419+668439177+667880990+668979582+670918874+672026425
2958+671509818+669839225+667717063+665221158+662306853+659749740+658628101
2948+658920667+659434743+659158112+658089747+656777920+655613196+654782619
2938+654631002+655365220+656195866+655781979+653875104+651423857+649123611
2928+647059032+645493347+644867046+645051489+645274436+644843999+643654655
2918+642017778+640299039+638716120+637366337+636396042+635957056+635757225
2908+634940462+633018131+630627408+628798290+627906778+627761590+628088213
2898+628448689+628306304+627614965+626819949+626098861+625215830+624188772
2888+623389653+622808556+621808991+619987054+618027109+617173416+617785151
2878+618777399+618829853+617930271+616994307+616258174+615149255+613549718
2868+612055088+611042939+610313097+609517671+608530005+607579543+606958712
2858+606494628+605765334+604911367+604491530+604457473+604154786+603364694
2848+602532612+601840657+600756700+598903305+596877981+595574908+595028963
2838+594689824+594526923+594753425+594757597+593767332+592328645+591556129
2828+591269444+590334232+588510654+586693915+585547041+584846196+584024372
2818+582820393+581495572+580644888+580654463+581150210+581151510+580141549
2808+578758803+577819146+577034799+575606506+573688552+572123209+571114582
2798+570222694+569211741+568158012+567215175+566623820+566426758+566137475
2788+565167317+563422488+561191178+558932000+557426325+557380163+558433687
2778+559195261+558715208+557375137+555967360+554652456+553240781+551779252
2768+550481615+549546300+549023163+548490759+547282814+545508817+544252282
2758+544217438+544735754+544616929+543549625+542044874+540446773+538815879
2748+537440314+536636681+536174820+535522189+534516742+533357763+532178335
2738+530973981+529752358+528533812+527293998+525973349+524549672+523175475
2728+522180559+521802576+521925573+522087996+521762638+520763927+519419718
2718+518241966+517427049+516773632+516063828+515292372+514399424+513126271
2708+511466312+509882401+508704239+507821652+507237033+507143615+507162832
2698+506393496+504593341+502543500+501025892+500137218+499647796+499364497
2688+499061297+498570986+498058961+497860601+497947420+497760001+496721283
2678+494917435+493131642+492056815+491582678+491098488+490332674+489481511
2668+488687863+487945164+487387593+487145874+486995146+486524463+485575676
2658+484286759+482833777+481364075+480161430+479619828+479787858+480044520
2648+479634532+478486187+477098859+475782381+474492165+473298478+472525894
2638+472353487+472550343+472690061+472528801+472129515+471643854+471073631
2628+470326795+469408920+468417013+467429724+466565465+466049337+465986932
2618+466089105+465873305+465169861+464240702+463409098+462789978+462360977
2608+462012948+461518226+460733810+459843427+459192095+458919773+458849025
2598+458647758+458117747+457398027+456777744+456304427+455786556+455137720
2588+454502084+454091309+453970774+453909430+453525052+452733764+451926883
2578+451581076+451775505+452083697+451912316+451070317+450020281+449449682
2568+449617815+450161948+450473081+450261453+449781332+449449306+449323437
2558+449110338+448626661+448082836+447855752+448019337+448206414+448032502
2548+447544722+447102454+446940886+447018062+447182536+447325947+447392626
2538+447333880+447119072+446815290+446559825+446384341+446145665+445718579
2528+445225362+444928556+444857979+444741342+444446485+444280165+444600189
2518+445248956+445603208+445211308+444279925+443469009+443234334+443425925
2508+443531790+443244832+442700426+442204507+441887697+441685165+441537036
2498+441476443+441526470+441580667+441426554+440940346+440272396+439753909
2488+439565910+439574732+439551274+439476013+439518380+439728674+439906587
2478+439854133+439617132+439351443+439073684+438678706+438112074+437454587
2468+436912369+436712299+436907548+437283787+437510495+437392114+436998265
2458+436577163+436318792+436187759+436005060+435686540+435355643+435206864
2448+435302129+435532803+435735814+435800544+435698337+435459286+435099665
2438+434591710+433977000+433451298+433194773+433139618+433042951+432782528
2428+432442842+432113244+431766036+431382240+431046042+430861257+430872028
2418+431058660+431343327+431632268+431872482+432037572+432114407+432132769
2408+432102268+431931570+431556596+431117747+430866967+430921644+431171843
2398+431375469+431352491+431155464+431007950+431036057+431115354+431021115
2388+430678899+430169234+429478100+428392946+426762087+424756049+422716944
2378+420742775+418509926+415618668+412151818+408688114+405669892+403137878
2368+401273301+400609489+401222967+402193912+402517014+402381639+403051469
2358+405488458+409424692+413967942+418884216+424595917+430812803+436099436
2348+438968058+439087532+437761207+436734833+435999862+434063819+430331451
2338+425714718+421220605+417085874+413331519+410367939+408565699+407590548
2328+406764176+405882854+405223247+405051592+405406289+406076598+406733811
2318+407248434+407757381+408374348+409053548+409746391+410497296+411368873
2308+412352983+413366157+414322160+415166381+415818362+416187318+416302894
2298+416312298+416306998+416261382+416167998+416148986+416345398+416688571
2288+416923280+416942805+416909260+416944139+416955081+416854345+416678073
2278+416447433+416165160+415931237+415849342+415865208+415822329+415604135
2268+415187992+414669470+414225834+413978405+413934397+414078868+414383743
2258+414700997+414828918+414754887+414694261+414820369+415050907+415160568
2248+415042974+414781149+414503047+414317988+414361996+414658733+414951436
2238+414987819+414941349+415193497+415758796+416278035+416502589+416487680
2228+416400792+416395800+416619259+417122017+417722775+418124763+418255008
2218+418321550+418457062+418565560+418607175+418697106+418832378+418882336
2208+418908357+419147512+419648389+420191940+420591500+420888135+421210449
2198+421562718+421862226+422139848+422523439+423001372+423392109+423596181
2188+423722220+423936652+424314841+424826694+425356533+425762145+426004617
2178+426202499+426541705+427182266+428186208+429393469+430437932+431100548
2168+431607853+432367683+433505154+434861058+436298173+437802479+439415968
2158+441237563+443410845+446018462+448988846+452067865+454921921+457402951
2148+459626465+461675930+463485180+465161347+467020932+469092384+471035163
2138+472757423+474675480+477169778+480118927+483094885+485805153+488272335
2128+490687063+493171752+495679351+497978708+499671048+500428108+500308052
2118+499608302+498417932+496633062+494356684+491900889+489412712+486809916
2108+484039842+481152618+478187295+475193625+472266941+469390079+466399862
2098+463298582+460384140+457871959+455633058+453474240+451393897+449418941
2088+447499038+445707637+444285226+443339242+442653648+441889578+440903041
2078+439820725+438857371+438112245+437536995+437052463+436631259+436264628
2068+435942040+435696867+435564399+435460790+435221157+434790173+434298973
2058+433956860+433863202+433846686+433572688+432953635+432331642+432102062
2048+432286745+432586321+432741973+432772338+432877519+433152406+433489869
2038+433787325+434091756+434488477+434992740+435565219+436119439+436531548
2028+436725703+436748203+436716539+436657827+436444695+435999349+435454464
2018+434908793+434191740+433147517+431971304+430990545+430284810+429709663
2008+429172233+428740702+428494503+428368805+428240885+428082805+427879418
1998+427550777+427156176+426938632+426958054+426938734+426621925+425995350
1988+425135331+424147186+423247399+422635391+422316769+422173906+422115263
1978+422108492+422145525+422173735+422067152+421802830+421651076+421921005
1968+422451871+422651531+422207792+421458050+420891520+420640158+420571257
1958+420547150+420449252+420169646+419701971+419168781+418745832+418572673
1948+418735437+419328878+420352380+421362580+421552734+420618718+419191759
1938+418069744+417542264+417519183+417765347+417970923+417929650+417677707
1928+417438997+417537203+418132696+418908050+419432931+419846818+420452808
1918+420806240+420202404+418938995+418025975+417965965+418474638+418952263
1908+418962213+418506473+417935258+417530877+417293945+417158434+417210683
1898+417551052+418010280+418251384+418303291+418624101+419288187+419583728
1888+418969086+417936797+417277908+417126907+417120034+417005654+416844599
1878+416785238+416820732+416944993+417570919+419345428+422175342+424601833
1868+424847792+422905697+420461083+418831044+418173079+418114333+418331330
1858+418607756+418787173+418822120+418784164+418848210+419230125+420116645
1848+421720183+424049938+426177092+426438199+424606141+422457855+421375915
1838+421290737+421522643+421815277+422719509+424833601+427479037+428862331
1828+428426354+427439440+426632799+425564127+424218003+423371012+423424526
1818+424001861+424601593+425231519+426270066+427726569+428916597+429215899
1808+428889994+428757012+429454164+431190855+433602608+435697004+436588140
1798+436603664+437139692+439266847+442505348+444691487+444125436+442017841
1788+440730291+441142981+442750486+444885984+447213516+449289892+450649899
1778+451675897+453638304+457522255+462750312+466792685+467488059+465797496
1768+463853999+462794560+463358354+465869373+469177801+471411231+472480792
1758+473609236+474976286+476323231+478479485+482278805+486738177+489628580
1748+490218773+489825437+489824000+490789440+492717447+495006819+496834740
1738+498644435+502150950+507674036+512051956+512180424+509979444+508191463
1728+507446234+507869079+509536527+512110565+515693128+521357128+529629258
1718+538291647+542809354+541871236+538948313+537167512+537688906+540773635
1708+546007745+551854103+556533446+560488316+565970676+573367776+579564009
1698+582406370+583174987+582568860+581248553+581477928+584658128+590160184
1688+597101953+605968721+616429350+623780493+624375267+622339890+622379350
1678+625788104+631730855+638121893+643516989+648870027+655147198+660582164
1668+663070136+664483384+668123632+674410036+680699037+684625082+687245590
1658+691265121+698516212+709496525+721501570+727492672+727664122+729542479
1648+735154572+740741908+742092102+740720913+740332330+742203575+746388880
1638+752858495+760007756+763308661+760724535+756571441+754671405+755276711
1628+756958588+758498012+759100309+757554730+753704392+750280524+749893788
1618+751479989+750753772+745509404+739013937+734464054+731997693+730308019
1608+728183601+725212122+721700170+718240672+715308449+713075224+711625662
1598+711097704+711291858+711473772+710993685+709859257+708438556+706926282
1588+705288378+703586942+702197631+701513336+701623920+702699465+705312041
1578+709505962+713291810+714060702+713321012+714760794+718894466+722813945
1568+724279441+724968796+727175281+731514939+738788256+750800003+766589870
1558+777470473+779238861+779209933+781757813+786681098+792881263+799515148
1548+806277261+813719908+822420286+831954047+841311365+848430739+849396726
1538+845045101+841858404+842690486+845388479+846692920+846972697+848942627
1528+853058380+857559503+861606937+866153538+871166753+874775064+876393956
1518+877380117+878257199+878854299+879923347+882852288+888626324+897196560
1508+905915403+908261196+901927468+894704006+891957868+893474860+897385517
1498+901204944+902563685+901663351+901372017+903674177+907834794+911061771
1488+911186512+909126446+907136342+906155378+905796613+905742107+906607494
1478+909259462+913653009+918638801+922378487+923104225+921083688+918959132
1468+918864073+920887003+923449586+924917203+925890234+928644373+934328753
1458+940362803+940437278+933558357+926374697+922660589+922107258+923475642
1448+925305512+925880659+924595093+922747579+921996605+922807624+924533954
1438+926085961+926524947+926272320+926898963+928731910+930308538+930408727
1428+930167384+931662834+934649905+936720434+936726862+936019520+935603377
1418+934336891+931365823+927982099+925609157+924154466+922684935+921284887
1408+921126431+922128869+922314270+920812870+919702857+921216704+924872545
1398+927920413+927989280+924796087+919724331+914949586+912347953+912338378
1388+913560959+913949610+912889042+911653810+911431958+912341934+914092816
1378+916536677+919602805+922981809+926018667+928187675+929546964+930638375
1368+932292623+935214110+939240069+942972985+944661564+943985339+942226456
1358+940552102+939369939+938974380+939581601+940711926+941532450+941995372
1348+942790182+944238308+945977084+947562670+948899117+950217373+951809319
1338+953599729+954953820+955243103+954686011+954315824+954883654+955986760
1328+956695879+956775347+956625029+956569976+957024281+958471107+960452867
1318+961546057+961180589+960507920+960817514+961950301+962655317+962188293
1308+961249182+961122527+961919800+962231241+961020149+959186313+958373174
1298+958819546+959216062+958308684+956076280+953567039+951965929+951589861
1288+951539253+950490038+947963290+944596731+941173137+937978508+935211306
1278+933155822+931640950+930125393+928571061+927479923+926952853+926490752
1268+925663321+924319214+922422118+920180482+918050865+916313388+914743121
1258+912749530+909890345+906401440+903228558+901263894+900420665+899910077
1248+899649654+900565854+902976341+905617845+906915653+906354457+904382408
1238+902197123+901586893+903543076+906909361+909460934+910463440+911351328
1228+913697667+917023603+919120256+918738580+917101702+916249445+917039742
1218+919199655+922083596+924761345+926366217+926881798+926976174+927320373
1208+928545005+931072232+934500681+937592865+939479702+940633142+942050629
1198+943809580+945149652+945851591+946689828+948285468+950265040+951959364
1188+953258265+954604424+956584543+959407687+962648889+965655519+968074623
1178+969895739+971444191+973023143+974318352+974673904+973842505+972382890
1168+971722874+973288490+976967652+981017548+983786049+984864125+984743487
1158+984490792+985320754+987515340+990244039+992648235+994287506+994819842
1148+994388994+994071877+995074247+997617750+1000895950+1003437744+1003813812
1138+1002290733+1000988685+1001334115+1002116821+1001271608+999358988+999329581
1128+1002863281+1008216660+1012033625+1013119223+1013532700+1015889503
1120+1020770044+1026594005+1030496797+1030101990+1026261500+1022556351
1111+1021311818+1022351322+1025281152+1029949894+1034934728+1038167792
1103+1038598024+1036550269+1033887906+1032692682+1032472676+1031231767
1094+1029723529+1030933662+1035771256+1041776856+1045466071+1045216385
1085+1042660025+1041199384+1042567016+1045603327+1048705017+1051996758
1077+1055931009+1058879029+1058537498+1056059989+1055398263+1058193640
1068+1061768578+1062530289+1060231958+1057501002+1056529886+1057940808
1060+1061625578+1066989626+1072049756+1073741823+1070824987+1065461691
1051+1061456727+1061481552+1065049925+1069078141+1070810831+1070038999
1043+1068835499+1069286384+1071202081+1072306760+1071141421+1068988073
1034+1067879633+1067640137+1066092848+1062433451+1058851606+1058261003
1025+1061684050+1067020469+1069804153+1067347366+1062752073+1061638367
1017+1065086581+1068800894+1068798432+1065096497+1059986307+1056127557
1008+1055549948+1057704731+1059367665+1058054402+1055013851+1053738201
1000+1055778024+1059038443+1060426523+1059332240+1057488282+1056381141
991+1056175019+1056230618+1055473832+1053179331+1050137686+1047627078
983+1045611875+1043182307+1040102844+1037127536+1034819836+1032606033
974+1029612329+1025932210+1022079136+1017828657+1012777828+1007835053
965+1004680225+1003408200+1001952552+998838279+995447306+994064423+994682586
955+995227916+994209475+991794473+988638210+984685152+979680622+974491170
945+970942561+969979447+970758665+971876816+972606999+972790007+972697135
935+972711907+972283112+970504533+968282798+967653898+968425730+967977785
925+965051991+961460571+959663254+960638268+963627528+966485960+967316059
915+966685517+966877005+968595743+970042364+969805603+968873947+968294629
905+966889315+963271087+958706089+956004540+956143711+957372583+957531244
895+956635561+956444689+957479543+958278456+958078352+957697702+957230951
885+955866875+954103752+953307847+953819461+955441430+958087242+960736679
875+961564590+959728018+955893341+951687520+949079458+948873335+949703365
865+949522615+947820016+945867662+945276991+946499298+948556560+950269143
855+951379088+952090191+952290979+952093884+952113511+952817228+954441317
845+957122281+960259054+961689946+958829189+952047585+945562924+943037475
835+943794330+944923492+945458494+946542520+948738678+951422104+954313089
825+957809175+961167253+962264067+961006403+960567008+963312735+967973614
815+971653870+972888486+972185658+970963420+970915479+973087155+976685618
805+979179198+978544143+975643652+972909482+971097666+969280927+967276051
795+965896109+965494122+965943639+967008105+968046789+968391809+968295928
785+968637939+969568501+970372475+970669213+970823907+971255849+972048403
776+972368939+970723171+967481148+966166038+969245570+973877383+975100579
766+971939049+966921526+962397493+960330178+962098020+966260825+969007989
756+968678835+968189311+971346942+977499783+981355797+979193423+973481004
746+969330372+969351709+972895872+977205986+979209494+978386986+977363963
736+978891214+982891460+986729762+988144924+986970694+983909422+979492554
726+974995261+972420983+972415785+973369120+972816610+970285006+968657566
716+971161541+976858025+980929053+981285494+981892304+986686266+994071809
706+999360082+1000240994+997890962+994407801+990887916+987083125+982773284
696+979140558+976898443+974042883+968285602+961142702+956980512+958738232
686+965181040+970787593+970413713+965739773+963381671+966280931+969972403
676+969284278+965999171+964123891+961579088+952671424+939564573+934669806
666+941253015+951047130+957525294+957672535+951826895+944397037+940571866
656+942075454+945920390+947818785+947001133+946152364+946970631+947665390
646+945890504+942970933+942689720+946645102+952579100+957017032+959066702
636+959733831+957690658+950569642+941004833+935488484+937678419+945923673
626+954788457+958558234+956874852+955991136+960131783+964896680+962410829
616+951411230+939684047+935247688+938992503+946915237+957800079+973075118
606+986730172+993149591+997662544+1002473672+1002762339
##END=
