##TITLE=<SNM>
##JCAMP-DX=4.24
##DATA TYPE=INFRARED SPECTRUM
##DATE=2/5/2025
##SAMPLING PROCEDURE=Instrument type and / or accessory
##ORIGIN=Admin
##XUNITS=1/CM
##YUNITS=ABSORBANCE
##RESOLUTION=4
##FIRSTX=4497.3318
##LASTX=599.83466
##DELTAX=-1.4281778
##MAXY=1.847013
##MINY=0.3939333
##XFACTOR=1
##YFACTOR=1.7201649e-09
##NPOINTS=2730
##FIRSTY=0.40631083
##XYDATA=(X++(Y..Y))
4497+236204579+236796896+237359932+237967685+238780241+239373354+239061066
4487+237776068+236389786+236094806+237378903+239554299+241417632+242340410
4477+242384434+241671256+240365451+239017597+238159355+237721632+237378332
4467+237248098+237660283+238313792+238400540+237698520+236863373+236446804
4457+236320468+236362586+236940002+238165245+239344784+239729925+239449724
4447+239319905+239966277+241227452+242146558+241725814+239994240+238033192
4437+236825534+236601484+237133837+237863959+238060202+237701448+237680865
4427+238423340+239047067+238542642+237061678+235515189+234534510+234251432
4417+234727617+236065630+237987384+239583735+239908947+238892976+237342642
4407+236168560+235921796+236783694+238508979+240361674+241335337+240677444
4397+238585019+236328334+235095658+234779073+234521377+234103700+233897997
4387+233931538+233898239+233631898+233093654+232417916+232058919+232282328
4377+232711112+232882736+232833878+232786095+232756538+232683824+232551442
4367+232339831+232060080+231776916+231513589+231150434+230502209+229671497
4357+229155360+229234952+229551745+229753099+230099778+230936917+232073853
4347+233014460+233349721+232894794+231932375+231106722+230701605+230462811
4337+230224208+230068627+229891355+229508761+229154026+229182335+229410942
4327+229426916+229310074+229452835+229877373+230190267+230050054+229497984
4317+229009030+229135644+229836607+230353991+230128122+229587157+229516505
4307+229872851+229893537+229367282+229044357+229529308+230453629+231124255
4297+231359810+231251163+230735424+230000989+229791041+230564303+231665272
4287+231995422+231336940+230434346+229998581+230201667+230805609+231297040
4277+231261333+230873784+230602834+230488054+230281710+230147127+230584989
4267+231643979+232661977+232992855+232712723+232352894+232240852+232415993
4257+232824107+233180384+232989841+232188980+231493873+231627069+232325954
4247+232575091+231920646+231096985+230997712+231510384+231893099+231874128
4237+231744847+231730207+231861706+232231825+232927574+233676978+233880654
4227+233327718+232600888+232302790+232350417+232630462+233440817+234502683
4217+234749274+233956556+233213562+233174077+233270908+232979740+232531968
4207+232234545+232115815+232133712+232086778+231655119+230928826+230490047
4197+230709107+231312339+231774022+231876917+231783776+231707251+231700338
4187+231781611+232021549+232393383+232742644+232985977+233176312+233396135
4177+233676112+233870883+233664608+232970090+232230526+232047017+232556380
4167+233343259+233907491+234103596+234130138+234237191+234595789+235250269
4157+235883265+235879418+235020414+233827379+232919483+232491999+232591307
4147+233245198+234053768+234276380+233681327+232852399+232403345+232301854
4137+232261417+232418488+233074423+233948205+234349632+234100546+233700298
4127+233617778+233894705+234264080+234340034+233947252+233354832+232915862
4117+232687930+232694566+233104413+233859067+234584510+235042833+235254409
4107+235180136+234748858+234231023+234174595+234715749+235203733+234919477
4097+233985229+233093636+232583511+232355268+232348892+232552429+232880553
4087+233322694+233840737+234170939+234151136+234033965+234150980+234516076
4077+234922804+235234520+235464617+235580228+235363732+234743626+234107806
4067+233833893+233729370+233416337+232987762+232840271+233086377+233410741
4057+233424428+233043220+232500696+232140608+232268936+232919517+233686871
4047+234192994+234597712+235061337+235110904+234359091+233346083+232927036
4037+233274685+233886839+234264270+234387245+234581271+234946972+235167350
4027+235071888+235045709+235538024+236396838+237047471+237228572+237220706
4017+237334585+237501982+237471542+237155494+236773940+236826712+237663211
4007+238847740+239468955+239305075+239020161+239099147+239256876+239059073
3997+238645138+238505895+238706729+238744013+238324187+237860494+237907064
3987+238434116+238930520+239062365+239050601+239311520+239848170+240330436
3977+240638514+240866809+241009760+241099817+241330953+241690903+241834062
3967+241608175+241477872+242145796+243661930+245098230+245477584+244846840
3957+243961034+243380135+243466345+244719257+247300202+250242917+251817784
3947+251363654+250195896+249727022+249549941+248486412+246783545+245737983
3937+246021632+247719872+250879620+254662870+256713004+255389614+252396101
3927+250934628+251877365+253196806+253165430+252893493+254391280+257354074
3917+258995973+257133194+252732801+248452731+245900667+245314778+247078266
3907+252308020+261257960+271393728+278325569+279871157+277022068+271148299
3897+263979379+258531465+257237250+259660986+262213379+261828776+260590677
3887+262490272+267374716+271252493+272447018+272534026+271012902+266834757
3878+263077304+263359966+267344085+272616563+277868407+281542959+281163119
3868+277858341+275613350+275446109+274720527+271656293+268098375+267004579
3858+270303345+279189199+292747315+302148041+296846439+283009664+271262230
3848+265533906+265737443+269952699+275832203+282056670+288070393+292307911
3838+292673821+289691051+285979250+282614249+279186150+276056288+274505538
3828+274977391+276968862+281047646+288544811+297137816+300159135+296599554
3818+292284696+288766106+283188478+276229956+272057494+273189077+279195973
3808+286573334+291042682+293340290+297254242+301829395+302248771+298898930
3798+295803666+292998982+288811845+284772077+283707318+285926876+289780154
3788+294163067+298799448+303134577+307176043+312354462+319187064+325304028
3778+328540492+330634736+335048280+343778068+356733108+371432873+383983611
3768+392943652+400041919+406736403+413801683+422252188+431432191+438122482
3758+440714828+442356397+447293164+457097881+469402080+478151481+480626950
3748+482691221+490269260+501901100+509497954+511181901+514407797+524395088
3738+540517015+557199968+567440416+569278246+566631395+564162509+564801881
3728+569621667+576839341+582541503+585018116+585935038+586558402+586518969
3718+585979322+586684114+590535036+596847603+600757362+597873189+590576063
3708+583254126+577585783+574662767+575096349+576793221+576433063+573764625
3698+571374327+571755725+576233996+584745762+595661168+605646414+610066507
3688+606888498+599873634+594085677+592167839+594459210+599792760+607273743
3678+616282190+622032725+618244935+610117582+607333757+609175711+607164108
3668+599183188+591467205+587497916+585721175+583631262+581418202+581649529
3658+585428863+589890120+591843787+593520666+599440433+609114934+614580294
3648+609498307+598535985+588327312+581026443+576249069+572986859+571057239
3638+571367812+573925611+576866957+579443155+584338064+593330642+600622433
3628+597665494+588110746+581311547+580623734+584880553+591085980+595847449
3618+598733146+602781646+608895596+613904054+615576636+615494376+614693463
3608+611670480+606831463+603556710+604286104+608691781+614455622+619174471
3598+622432315+625206992+627146174+626955596+626072216+628151525+633680227
3588+637317494+634260138+627885478+624155001+624496309+626721913+628412374
3578+629253482+630899590+634188828+637628518+640141305+643183900+647384239
3568+649358627+646004593+640219616+636697180+636105973+635776515+633508499
3558+630450589+629507609+631232721+633102810+633631647+635233541+640645471
3548+648230128+652679396+650356424+642593594+633683484+627666695+626240271
3538+627880766+629783081+630703676+630886492+630686559+630589121+631340622
3528+633152915+635116284+635359877+632402176+627395797+623730324+623356722
3518+624805461+625145868+623187142+620573036+619760273+620990298+622044575
3508+621594187+620989120+621459466+621891905+620833816+619219031+619313489
3498+621356831+622812639+621570972+618774326+617076935+617278740+617997669
3488+617908202+617473337+618198296+620430206+622510625+622326769+619490276
3478+615458270+611980048+609914807+609012091+608674387+608894140+609932617
3468+611368189+612176309+611456825+608786377+604656033+600586742+597896752
3458+596642125+596207053+596133386+596133247+596207399+596898262+598485949
3448+599895464+599537178+597522595+595690136+595073703+594428510+592095627
3438+588663075+586617377+587654329+590703646+592861404+592539986+590962901
3428+589818117+588795856+586965545+585080972+584355736+584050603+582797293
3418+581444259+581836711+583736947+585292964+585722284+585580563+585123800
3408+584172573+582979001+581972402+581131122+580225565+579176520+577957756
3398+576530916+574826941+572943996+571574745+571802469+574010124+576740621
3388+577626705+576183371+574398972+573870863+573743592+572364396+569942566
3378+568282563+568484714+569993953+571491133+572049527+571668475+570952179
3368+570198149+569148653+567835397+566729733+565743856+564320239+562660097
3358+561612264+561477474+561941964+562818657+564051004+565301715+565968877
3348+565588483+564073180+561586415+558702485+556648990+556555641+558327116
3338+560765786+562703340+563637658+563578717+562824098+561679174+560369280
3328+559252043+558665651+558575040+558802036+559535034+561127226+563167450
3318+564197922+563200749+561149056+559861026+559605894+559289049+558566586
3308+558064465+557957394+557831232+557531158+557349728+557683794+558618943
3298+559773568+560718731+561371374+561732952+561645979+561022616+559804753
3288+557885113+555713703+554551523+555418237+558049496+561198467+563607234
3278+564477899+563638039+561894216+560692466+560743402+561391159+561769682
3268+561951077+562340029+562695094+562455589+561414375+559682056+557584970
3258+555775311+554869130+554836524+555084241+555099556+555064109+555847523
3248+557917061+560244469+561217456+560686402+559788121+559025740+558133107
3238+557309776+556990055+556806754+556112080+555159536+554701110+554700937
3228+554327958+553128252+551618632+550673608+550677420+551331171+551987661
3218+552045527+551230373+549657897+547732124+546066541+545277826+545523775
3208+546223959+546400365+545347404+543039089+540205194+538085413+537573521
3198+538303954+538977526+538766677+537821341+536399803+534567967+532966696
3188+532703283+533901291+535155952+534994619+533392448+531401601+529823858
3178+528778451+528189426+527934364+527445202+526045736+524087703+522879681
3168+522997389+523543863+523523558+522952274+522131472+520920436+519322076
3158+517873648+516976095+516515382+516307998+516308275+516332981+516079513
3148+515414673+514405822+513185603+511929313+510847662+510083722+509590263
3138+509075841+508208122+506981632+505682271+504510286+503555421+503008116
3128+503033133+503484665+503918385+503815993+502918995+501566237+500440615
3118+499869608+499759281+500004745+500440303+500744846+500752573+500299136
3108+498904764+496503897+494181202+493256864+493914012+495233920+496123469
3098+495916744+494568699+492675498+491012583+489837376+488892837+488171412
3088+488192757+489078460+489914265+489760348+488794637+487785856+487111626
3078+486874096+487120046+487371123+486795820+485328959+483868370+483109696
3068+482853247+482612495+482308887+482038197+481592868+480746702+479830299
3058+479435145+479531993+479437951+478744109+477739624+476833651+476085650
3048+475377532+474612448+473772692+473104144+472982902+473328264+473515065
3038+473059099+472082646+471000371+470038334+469192133+468462947+467994887
3028+467891386+467905108+467548588+466575151+465154617+463657644+462483060
3018+461933919+462044350+462544323+462990206+462909990+462003324+460420591
3008+458808890+457873880+457749519+457799866+457198056+455810648+454386095
2998+453704242+453669557+453507808+452759183+451686783+450788260+450388913
2988+450503745+450597266+449878510+448339264+446981344+446606113+446913775
2978+447044338+446546272+445588080+444522611+443520309+442597357+441771184
2968+441026267+440303803+439719838+439484353+439418136+438978905+438030139
2958+437206218+437162559+437645656+437655601+436649488+435253383+434424473
2948+434248448+434034030+433362572+432527425+431960265+431648271+431243207
2938+430534153+429645124+428829103+428244237+427905944+427652579+427197375
2928+426435097+425602930+424930848+424274671+423279854+421851212+420389202
2918+419518399+419484788+419889402+420137673+419960782+419382396+418579993
2908+417961931+417902332+418217306+418301611+417842179+417036346+416195585
2898+415505173+415039713+414629693+413855357+412576787+411311488+410702089
2888+410767994+411018344+411119939+411082101+410923194+410517609+409776122
2878+408809788+407868818+407099922+406438859+405841796+405442552+405333646
2868+405442864+405703921+406009747+406015083+405427860+404463744+403608153
2858+403025261+402546460+402094963+401751126+401464081+401062481+400578794
2848+400226502+400031489+399837827+399618004+399372089+398847134+397778996
2838+396310229+394893056+393914802+393531637+393633960+393869653+393897927
2828+393675402+393361121+392975530+392352583+391483201+390680070+390239315
2818+390090006+389908992+389458916+388743625+387976947+387412628+387101674
2808+386869862+386560086+386170580+385760560+385311454+384687883+383794280
2798+382799290+382035973+381576056+381104774+380353620+379482817+378892476
2788+378735925+378746770+378560350+378051819+377253575+376200787+375049038
2778+374065274+373331722+372713661+372157104+371741332+371473067+371248359
2768+370972367+370630262+370295088+369996123+369534785+368671294+367552567
2758+366650959+366231549+366135637+366081235+365949979+365735977+365324953
2748+364473727+363149903+361800715+360995367+360790860+360706105+360319266
2738+359645694+358958262+358492351+358310054+358257455+358068748+357620613
2728+357040874+356525170+356150494+355895639+355709566+355503222+355168775
2718+354655497+353992181+353258699+352580553+352074239+351723541+351372635
2708+350899170+350323520+349710899+349067681+348432952+348009003+348014339
2698+348342203+348560847+348382501+347926743+347393159+346763489+346018572
2688+345363989+344981793+344698282+344151358+343318325+342628016+342349738
2678+342153027+341651703+341081597+340898054+341002282+340963162+340727677
2668+340547078+340461249+340327498+340139137+339966855+339764634+339447894
2658+339025469+338559107+338087825+337604901+337081470+336571171+336220369
2648+336032840+335759240+335232240+334633998+334191268+333834333+333373723
2638+332776694+332131605+331575083+331294483+331380381+331674738+331897056
2628+331870028+331582394+331117384+330560169+329971040+329435100+329042198
2618+328779027+328564990+328370150+328150570+327803718+327374987+327097575
2608+327058662+327055751+326880731+326519292+326052653+325566610+325152986
2598+324881569+324764692+324721656+324573144+324189944+323643817+323108258
2588+322703401+322500245+322492587+322535692+322504680+322458352+322460986
2578+322382710+322057238+321511838+320948178+320581956+320490513+320528941
2568+320438641+320084409+319554082+319050437+318746482+318700120+318795790
2558+318768797+318423782+317878174+317451488+317270404+317147394+316890980
2548+316554177+316309926+316219661+316195856+316122847+315966123+315777139
2538+315614143+315452810+315190089+314795732+314435054+314321920+314451444
2528+314589422+314526982+314286992+314095271+314139970+314353972+314509553
2518+314491465+314346453+314134565+313893813+313674717+313483446+313269098
2508+313045463+312961436+313154509+313528353+313784074+313744053+313487223
2498+313078763+312440222+311650502+311096578+311102850+311553515+312021228
2488+312206539+312150163+312037341+311942502+311832937+311706012+311622054
2478+311618277+311615678+311469903+311165498+310851842+310637493+310510049
2468+310460914+310508663+310648755+310878834+311133758+311198486+310925093
2458+310501386+310270440+310321550+310426541+310367323+310220266+310213128
2448+310344558+310371724+310202906+310005190+309875389+309701340+309386574
2438+308990449+308660230+308558981+308760751+309097970+309230889+308997483
2428+308622218+308475611+308674090+309003235+309197867+309209787+309174444
2418+309176349+309158608+309099876+309141664+309412077+309804252+310058067
2408+310031040+309810073+309567069+309396380+309349221+309505911+309843442
2398+310135303+310191402+310110043+310115275+310258624+310415175+310471067
2388+310404642+310186447+309641637+308510193+306680575+304229222+301214140
2378+297656742+293772728+289958761+286482740+283398356+280728705+278444195
2368+276303381+274077811+271951810+270438361+269959231+270677987+272595652
2358+275660405+279886680+285509562+292834357+301390892+309345479+314517557
2348+315872462+314065645+311117126+308969312+307823904+306667927+305001721
2338+303229346+301887608+300982328+300068108+298893455+297801512+297342774
2328+297594614+298032181+298073346+297706362+297508195+297976290+298976062
2318+299984670+300694763+301194459+301707668+302362563+303154362+303998172
2308+304818559+305589221+306245121+306653270+306783002+306801678+306889344
2298+307052029+307178988+307196625+307136576+307080338+307028258+306891493
2288+306687020+306611828+306802857+307136992+307352172+307269669+306887820
2278+306374507+305953780+305688911+305410459+304969808+304514673+304355870
2268+304551646+304794996+304793749+304608542+304477389+304448699+304375413
2258+304187953+303999316+303957354+304085908+304268239+304368829+304381026
2248+304402198+304447555+304418726+304293326+304184003+304159679+304158362
2238+304119900+304084071+304115846+304213664+304341247+304499566+304688792
2228+304818801+304759479+304491804+304150566+303933688+303980743+304265259
2218+304604973+304835226+304924936+304910556+304837131+304770810+304746382
2208+304730616+304708058+304714226+304745273+304743228+304694544+304661245
2198+304703346+304798912+304841116+304744407+304575832+304523683+304696416
2188+304995138+305217871+305257928+305154808+304985540+304800644+304668418
2178+304654766+304720359+304750228+304719874+304714018+304755668+304751475
2168+304656048+304578846+304663116+304911734+305186305+305376432+305529345
2158+305755856+306039367+306243077+306295573+306242696+306145432+306067364
2148+306099000+306244948+306369655+306386530+306400772+306548799+306794783
2138+306984841+307051232+307085328+307203348+307391950+307543858+307625426
2128+307720022+307905610+308172766+308479562+308807806+309130472+309377773
2118+309489625+309500470+309542744+309746351+310112572+310492654+310739089
2108+310879978+311064180+311336915+311604521+311845827+312190392+312695909
2098+313174745+313385039+313370035+313472774+313956184+314691884+315297402
2088+315525922+315446573+315300036+315268538+315369337+315509741+315599763
2078+315597892+315515111+315439885+315494841+315697443+315961653+316304797
2068+316877987+317635794+318161200+318070138+317493068+316917661+316656500
2058+316656847+316730722+316784984+316838970+316927745+317037136+317131005
2048+317227160+317422624+317820966+318392804+318910206+319125940+319055427
2038+318955460+318992328+319076494+319059619+318956569+318894232+318918210
2028+318961177+319004248+319138761+319426846+319880525+320597965+321596732
2018+322436869+322478103+321721370+320901885+320567853+320580328+320599974
2008+320560300+320535490+320550389+320632788+320810823+321033626+321199117
1998+321302722+321644446+322722528+324533712+326136888+326514960+325731685
1988+324601038+323671918+323104412+322949905+323078250+323191246+323133622
1978+323008776+322999628+323178945+323446967+323737650+324293549+325379878
1968+326616071+327086071+326430482+325356142+324758005+324835275+325254027
1958+325695510+325969110+325944301+325676383+325432685+325463767+325852373
1948+326646806+328070285+330287503+332621980+333482699+332049206+329513826
1938+327621768+326917219+326948924+327239053+327582613+327907427+328218346
1928+328704979+329841100+331862578+334007689+335261173+335954218+336986007
1918+337683973+336572245+334122695+332396509+332456211+333622791+334539333
1908+334414937+333552243+332815226+332622707+332687642+332693602+332877770
1898+333716798+335090588+336202974+336802048+337769214+339527936+340794552
1888+340261142+338599371+337254965+336624741+336387697+336387454+336595530
1878+336890961+337185179+337665574+339111541+342664122+348387837+353743737
1868+354922132+351382580+346582509+343541093+342619181+342709515+342831692
1858+342680893+342459476+342460412+342746764+343392199+344751471+347152338
1848+350764206+355574394+360172971+361278670+357728653+352898333+350163054
1838+349820117+350389357+351077170+352807826+356715783+361733459+364757203
1828+364654880+363461446+362257098+360059664+356968282+354823794+354581206
1818+355306996+355805201+356330296+358049829+360985839+363330433+363444329
1808+361926878+360832406+361850681+365427276+370233999+373530859+373618525
1798+371932776+371538488+374392168+379847965+383964137+382539099+377094182
1788+372822394+372209391+373973312+375980964+377622187+378875116+379293279
1778+379416947+381332706+386733997+394736471+401118546+401859444+397933052
1768+392552689+387851928+385826881+387651093+391400802+393477790+393451247
1758+393364413+393521553+393846922+396519795+403387740+412030174+416712052
1748+415218787+410995128+407785414+406824069+407688670+409145482+409895077
1738+410805416+415016462+423398289+430036259+428103278+420779575+413685535
1728+408484246+405779910+405834207+407696639+410981614+417520310+428955335
1718+442155459+448386666+443677657+434164559+426263023+422515324+423518492
1708+428754466+435903670+441793742+446495231+453401535+463113873+470165432
1698+470670533+466571963+458946280+450005539+444678954+445030276+449357123
1688+456193883+466769090+480482457+488334963+483355126+473368216+466928933
1678+466474110+470888797+476525643+480348256+483691790+488149305+490318395
1668+486596511+481105959+479820667+482971683+485860914+485122996+483340330
1658+485252485+493881267+510006174+527938626+532823382+525875151+522640281
1648+526034440+528263856+522599948+513690878+508410897+508594788+514136969
1638+524429600+535459110+538402708+531029038+522636954+519765984+522138506
1628+526569756+530903014+535177713+538443596+538393248+536490934+537546978
1618+543068992+548045365+546708200+541765959+538899666+539532627+541801406
1608+543474057+544016026+544371298+545278969+546457434+547331875+547998344
1598+549089177+550923404+553127871+555074435+556481940+557469168+558213393
1588+558772860+559194488+559684551+560555769+562109014+564974926+570343092
1578+578495151+585777309+586364913+582261665+580952290+584620882+588945477
1568+589395449+587504361+586920500+589652348+598165571+615484812+637506478
1558+645238261+634035395+621105684+613836902+611502702+611940062+613162463
1548+615403938+621386700+632849099+648267342+664336531+675589571+673706176
1538+661887985+653683915+654039360+658835688+661561161+661758184+664417128
1528+671704969+681178011+690271352+699573637+709100664+715604779+718031495
1518+719090346+719150361+717059478+714916272+716729258+724786479+738971718
1508+755211110+761489025+750550404+735671323+728062757+728460545+734047460
1498+740498767+743020772+740944512+739346429+742899634+751226020+758678936
1488+759460652+754512624+749035205+746531426+747394918+750305217+754589687
1478+760979455+769788523+779544383+787113516+788621369+783721991+777967367
1468+776590424+780056726+784581809+786221889+786610876+790972686+801665150
1458+814128049+817477855+809560969+800510455+795965829+795572407+797244364
1448+798202175+796506724+793102655+790480925+790164635+792722954+798382843
1438+805676574+809962430+807967598+803546536+801791624+802949437+803818681
1428+802550887+800980109+801355097+803691167+807177843+811560582+815007756
1418+813562205+807047834+800197145+796343728+795323477+795488414+796187939
1408+798149159+801281499+803549862+803744182+803945502+806732306+811928155
1398+817466490+821626495+822963313+820549903+816474306+814718840+816733631
1388+819965209+820675338+818730819+817620892+819756960+824510390+829971385
1378+835301678+840983257+846722981+850414580+851018054+850725881+851779742
1368+853887673+856229080+859334739+863289128+866167964+866168102+863998563
1358+861637267+860171549+859457401+858999876+858702228+858631956+858586772
1348+858295638+857720578+857172060+857456055+859389556+862531805+864876607
1338+864745906+862587593+860000861+857934718+856640105+856415500+857346144
1328+858636807+859260725+859373616+860115277+861916204+864019700+865796995
1318+867575815+869841406+872262232+873847910+873907578+872777624+871613366
1308+871535263+872935769+875275027+877378939+878353312+878551166+879139047
1298+880466648+881555784+881408103+880185355+878757961+877542004+876238381
1288+874593867+873029603+872165141+871801587+870935601+869008199+866647597
1278+864816177+863741802+863053227+862463890+861998811+861933529+862587593
1268+863812628+864764409+864714443+863955665+863356280+863421978+864313536
1258+866134977+868599323+870993121+872822254+874076881+874968993+875903172
1248+877375473+879362543+881177885+882492596+883874321+885736025+887664189
1238+889353888+891233611+893640645+896166254+898183955+899503864+900349475
1228+901037774+901895167+903296920+905499655+908215010+910673812+912565939
1218+914318148+916215334+918043705+919734721+921526500+923377047+924958775
1208+926316383+928062978+930653037+933611847+936082361+938064441+940202241
1198+942484949+944303271+945651108+947114123+948969659+951086669+953194808
1188+954995666+956639279+958950124+962421900+966211630+968788175+969455337
1178+968784641+967919555+967686426+968299187+969747718+971801941+973569118
1168+974186729+974154227+974680707+975879200+977079980+978430589+980465130
1158+982751512+984637333+986536945+989361033+993248477+997101271+999112042
1148+998477937+996519835+995111290+994784605+995323352+997053661+1000290091
1138+1004229026+1007430112+1009272135+1010122528+1010265289+1009636173
1130+1008329779+1007536836+1009100892+1013173301+1017389856+1019352047
1121+1019226542+1018739356+1018856267+1019781852+1021689711+1024065283
1113+1025731419+1026413688+1026895608+1027513912+1027783771+1027571640
1104+1027737685+1029255587+1031821252+1033942281+1034801683+1035252279
1095+1036417092+1037964723+1038573533+1037872761+1036925069+1037150297
1087+1039504593+1043877561+1048647693+1051216546+1050198998+1047014405
1078+1044172922+1042636725+1042073030+1042457720+1043972711+1046348422
1070+1049440290+1053732729+1059197674+1064029346+1065829233+1064134960
1061+1060641909+1057419131+1055411271+1054309037+1053886508+1054754920
1053+1057233058+1060563529+1064434064+1069152151+1073190533+1073741823
1044+1070795695+1067371806+1065399289+1064722772+1064870591+1065693265
1035+1067137846+1068587624+1068730870+1067041101+1065010649+1064433302
1027+1064851534+1064568439+1063733153+1064123526+1066270612+1068561775
1018+1069104195+1067884634+1066177887+1064280216+1061364511+1057172766
1010+1052859813+1050193731+1049991788+1052157862+1056372477+1060981276
1001+1062962525+1061230483+1058437996+1057586008+1059014858+1060894927
993+1061105325+1059029065+1056046277+1053679160+1051647044+1049007435
984+1046293466+1044976607+1044975082+1044457265+1042500410+1040255886
975+1038865083+1037460974+1034481235+1030347841+1027244747+1026602880
967+1028182737+1030791507+1032643301+1031667403+1026843286+1019505826
958+1012526375+1007761579+1004996189+1003737057+1003968384+1004294515
950+1001999402+996768972+991900640+990166312+990840542+991258497+989513773
940+985513229+981034993+978563509+978886659+980443716+981499657+981878664
930+982107982+982322469+982463843+982335913+981271310+978861018+975984469
920+974047434+973302170+973031342+973039173+973449574+973530032+972388297
910+970414533+968726358+967838542+967605275+967830226+968415474+968964824
900+968530929+966193335+962395913+959245069+958566958+960054575+961797567
890+962363133+962308801+963400501+965836988+967239504+965777875+962936253
880+961081202+960213414+959014713+957147949+955315767+954083456+953152673
870+951807469+949995177+948509223+947879761+947583638+946852373+945705232
860+944672438+944182202+944543261+945919649+947957171+949659482+949821231
850+947902561+945030309+943711093+945300860+948098268+949469736+949070978
840+948062508+946552784+944071320+941718964+941770109+944821643+948621006
830+950550972+950550140+950330040+950260115+949111865+946485354+943265141
820+940504186+939630992+941971220+946705593+951327629+954989359+958997665
810+963607919+966978308+967060430+963028909+956218275+949957477+947199779
800+948501323+952360007+956438999+958711451+958944372+958902029+960069267
790+961756402+962439849+961913438+960619934+958647070+957012050+957651630
780+960791177+964316869+966709766+968306533+969088595+968130438+965621116
770+963188024+961724316+960738161+959580417+958023153+956043706+953551639
760+950892626+949848952+952926266+960161923+967638470+971110385+969581049
750+964993802+960801433+959894906+962633199+967388501+972193630+974561925
740+971919683+965062549+958686780+956693404+958998773+962400140+963825455
730+963090517+961792716+960342521+958416783+957540540+959724702+963543123
720+964940510+962927729+961019108+961802626+963620878+963334873+959962128
710+954986033+950410290+947127637+944807367+942902072+941208562+940011455
700+940577991+944051777+948425230+949480963+946470870+943028478+941678007
690+941321315+939926630+937109403+933993418+931947928+931509113+931776615
680+931399756+930296691+929043796+927360473+924661057+920851230+915074916
670+906182270+897713609+897179713+903066979+907692895+909068799+909623069
660+910709294+911412215+911183521+910910198+911734742+913277384+913110785
650+909925568+906179498+904949750+905872009+906548596+906524410+907506960
640+909731317+910085307+905868752+899384596+894221319+889697622+883308131
630+875712109+869106122+863796758+858992530+854735711+852269216+852525214
620+854663568+857367211+860997757+863973199+860751946+849943887+837685288
610+831485336+834479282+844649978+858290302+872399240+883400717+886602428
600+880493884
##END=
