##TITLE=<SNM>
##JCAMP-DX=4.24
##DATA TYPE=INFRARED SPECTRUM
##DATE=3/5/2025
##SAMPLING PROCEDURE=Instrument type and / or accessory
##ORIGIN=Admin
##XUNITS=1/CM
##YUNITS=ABSORBANCE
##RESOLUTION=4
##FIRSTX=4497.3318
##LASTX=599.83466
##DELTAX=-1.4281778
##MAXY=1.7748749
##MINY=0.20678937
##XFACTOR=1
##YFACTOR=1.6529811e-09
##NPOINTS=2730
##FIRSTY=0.22637044
##XYDATA=(X++(Y..Y))
4497+136946781+137299707+138046397+138977076+139779954+139870210+138971099
4487+137683924+136951847+137118340+137760576+138257431+138306787+137986151
4477+137528276+137128103+136936757+137153678+137911419+138900893+139326676
4467+138659001+137389963+136551161+136505655+136821296+137209885+137694768
4457+137943313+137479506+136540785+135776247+135364770+135221409+135531001
4447+136330391+137075457+137177702+136621160+135878771+135423519+135325105
4437+135358820+135400657+135387604+135148426+134778939+134775351+135314468
4427+135899072+135973714+135367438+134172149+132755468+131687161+131228843
4417+131177568+131375152+131918497+132708727+133266179+133223224+132732111
4407+132239502+132025817+132020642+131910221+131508624+131095948+131116998
4397+131508669+131736309+131507020+130989989+130444076+130127957+130325109
4387+130972690+131492686+131326563+130457607+129262418+128134865+127365576
4377+127156309+127565523+128423210+129359948+129969199+130016535+129630948
4367+129223546+129039862+128897249+128541528+128061296+127731069+127633530
4357+127637451+127611723+127516519+127384399+127307837+127363007+127453731
4347+127351081+127023702+126809810+127086012+127827950+128618649+129048453
4337+128977471+128433577+127482425+126334653+125426438+125100871+125254275
4327+125530810+125708725+125742359+125691209+125723130+125938997+126197197
4317+126318336+126330777+126321762+126257893+126130605+126077382+126212918
4307+126492347+126848780+127342436+128066065+128953068+129679222+129760274
4297+128956981+127687780+126798055+126824396+127573870+128330954+128486232
4287+128163045+128065759+128478209+128814034+128457196+127565225+126800011
4277+126734149+127524380+128745694+129684586+130022593+129971786+129769460
4267+129441288+128999909+128536210+128104720+127709939+127481253+127659240
4257+128191893+128631991+128733758+128769060+129051861+129661364+130609307
4247+131670078+132216316+131821282+130813851+129914885+129592266+129826694
4237+130204294+130340154+130338739+130599580+131225256+131898709+132255485
4227+132220616+132046686+132022562+132155683+132298161+132435392+132561390
4217+132504363+132266158+132216370+132541837+132805698+132463031+131590090
4207+130822307+130779180+131599412+132761517+133460293+133460158+133361149
4197+133720052+134203728+134035441+133093115+132094969+131723643+131988108
4187+132541080+133187165+133818078+134195299+134127157+133718934+133323378
4177+133309955+133790998+134523354+135186747+135661823+135933752+135979393
4167+135845543+135607924+135300946+135067942+135122310+135353465+135334724
4157+134946658+134618459+134728511+135047127+134996392+134393587+133733673
4147+133624073+134074484+134588215+134909382+135278084+135849699+136299560
4137+136281801+135982125+135914208+136335421+137020449+137554598+137814367
4127+138041393+138321634+138242214+137397337+136077528+135093454+134995446
4117+135684107+136653965+137414456+137769600+137844773+137843926+137793993
4107+137619532+137415006+137450361+137848478+138365986+138592535+138374000
4097+137947866+137633279+137495814+137400852+137260259+137076521+136860393
4087+136613471+136330237+136053341+135964754+136245183+136782740+137242040
4077+137482499+137651290+137828051+137878966+137721353+137469121+137200536
4067+136788086+136119509+135372027+134927574+135031054+135536401+135965439
4057+135926531+135509177+135122157+135024086+135227250+135669666+136185506
4047+136554298+136800346+137081632+137225904+136931717+136389734+136067882
4037+136000785+135904121+135805788+136012243+136621323+137384572+137861631
4027+137695904+137075854+136800688+137455833+138664473+139486732+139396360
4017+138639168+137783149+137173402+136824803+136653199+136657363+136874267
4007+137256112+137621749+137800475+137864119+138053500+138366789+138450986
3997+138106498+137656050+137557195+137859909+138285764+138636248+138899991
3987+139113649+139307357+139504176+139643066+139569397+139244831+138965970
3977+139216228+140184075+141428963+142143506+141906247+141123499+140569211
3967+140654391+141326393+142353494+143379306+144001611+144093957+143814907
3957+143293315+142650746+142218247+142406267+143370842+144750553+145690717
3947+145616598+145038078+144859442+145099603+145084233+144612060+144133739
3937+144121191+144912287+146687240+148976825+150496788+150278389+148933239
3927+147974929+148096989+148721952+149188924+149753155+150868663+152096099
3917+152360338+151166582+149147618+147321362+146265567+146193359+147483339
3907+150666626+155606016+160818435+164275309+165188032+163910628+160662534
3897+156236181+152852235+152609433+155341885+158166791+158500931+157794339
3887+158887410+161434266+162814456+162735505+162788818+162351550+160138148
3878+157915118+158160138+160760272+164308051+168179927+171283190+171604854
3868+169719461+168367397+168077394+166871026+163907996+161039350+160530090
3858+163682952+171067594+181186419+186985985+182014096+171867182+163838961
3848+160106561+160487072+163994231+169148288+174548304+179310384+182409193
3838+182544378+180072091+177119176+174807657+172660838+170450140+168988854
3828+168764063+169513691+171792919+176748004+182870405+185667239+184325074
3818+182416910+180561807+176726494+171836910+169076928+170132281+174569921
3808+179943758+183425206+185676218+189375787+193644834+194649849+192508402
3798+190486653+189031911+187038000+185285664+185404334+187520269+190728788
3788+194673954+199459418+204751617+210415313+217343035+226006650+235016952
3778+243060408+251305469+261620670+274180663+287518986+299289921+307667083
3768+312934745+316212677+318071043+319822748+323243545+328178491+332602483
3758+335779451+339872242+347782406+360970328+377955466+393353364+403305110
3748+411587366+423181702+437149974+447079543+451742786+457489093+468671420
3738+485158981+503362838+517929615+525530610+528050657+530788860+537680650
3728+548822158+560823022+569212444+572172914+571042469+567464743+562777485
3718+558657470+556860043+558468269+562164340+563494011+559674150+553821614
3708+549167819+545597160+542924584+541948290+542733689+544360557+546171831
3698+547892272+549491122+551922104+556867399+564867674+573372918+577497982
3688+575515428+571093744+567932535+567541765+570520516+576518983+584091203
3678+590836594+592409590+586507941+579347189+577370910+578734152+576847840
3668+570205290+563160430+558754180+557225139+557695888+559397326+561514667
3658+562596397+561881566+561634058+565397307+573822031+582903857+584977747
3648+577118462+566175818+558845445+556331636+556378296+556360736+555767747
3638+555973860+557819570+560741384+564474380+569940870+576881519+581379395
3628+580055169+576387007+575100571+576979563+581289176+587039017+591843718
3618+593641361+593562140+593599930+594196380+596060479+600696137+606949395
3608+610547639+609832952+608113809+608607527+610921497+612510179+612554315
3598+613314509+616567092+620457917+622039531+622171363+624428793+629686538
3588+634408809+635208595+633370169+631643814+630275307+628139972+625348366
3578+623362892+623020693+623838869+625292763+627730632+631397604+634939379
3568+635842149+633300863+629629493+627294897+626335370+625133672+622802826
3558+620427772+619586879+620268536+620914566+620469023+619761620+620376784
3548+622764603+625595658+626540401+624262201+619721162+615195556+612422124
3538+611525916+611143764+609888555+608131261+607620018+609023069+610757285
3528+611062920+610189863+609048383+607240030+604223452+600902105+598596897
3518+597762170+598195778+599184585+599447923+598176919+596050563+594395389
3508+593720583+593689788+593798578+593567945+592887262+592059386+591051036
3498+589414467+587170956+584917565+582869601+580804004+579020676+578430248
3488+579557593+581809181+583743992+584205149+583330109+582184554+581372652
3478+580556387+579286754+577481250+575329797+573343278+571984182+571031831
3468+570052003+569430276+569884690+571064825+571501787+570185674+567742937
3458+565673193+564810268+564665853+564254060+563567211+563490369+563928665
3448+563472232+561819256+560750940+561447742+562577322+562224630+560353788
3438+558303119+556956356+556126858+555175949+553949731+552868830+552248220
3428+551835058+550990270+549481026+547867788+546736188+545969973+545266140
3418+544737300+544420775+544172474+544375053+545429414+546548357+546463258
3408+545183781+543798760+542958732+542371910+541598158+540921658+540956815
3398+541458899+541377947+540256335+538610500+536931346+535202900+533140188
3388+530447058+527431635+525405630+525547630+527212180+528176791+527147491
3378+525529204+525748803+528158798+530612713+530998182+529342106+527276581
3368+526334507+526907951+528194136+529063587+529089730+528584545+527936242
3358+527403076+527222493+527474581+528006305+528671952+529384764+529785234
3348+529284340+527732113+525698248+523952530+522995996+523014350+523788750
3338+524614499+524735332+523981377+522788008+521652911+520852800+520533174
3328+520601470+520595989+520118533+519360107+518875944+518894226+519053787
3318+518732069+517663248+516380057+515810687+516434939+517927127+519325418
3308+519601521+518622450+517371929+516642205+516034108+514838756+513355222
3298+512635018+513214123+514580394+515752416+516068977+515436288+514250311
3288+513384934+513728756+515255777+516988767+518220646+519161062+519889451
3278+519586449+517860815+516055852+515762188+516544197+516575965+515291908
3268+514105391+514282187+515265621+515728942+515448728+514966657+513901622
3258+511428488+508378051+506798780+507299097+508447212+508825361+508466828
3248+508212505+508461419+508692592+508157515+506903171+505573968+504427079
3238+503300203+502347275+502014452+502295567+502557463+502164421+501015837
3228+499603808+498715497+498735149+498996504+498340882+496484643+494193317
3218+492329326+491455042+491737635+492486326+492544741+491650625+490591288
3208+489922215+489416706+488724303+487891776+487304268+487211633+487130465
3198+486085623+483821413+481383364+480104176+480229300+480761277+480556751
3188+479392482+477938263+476997703+476820366+476833455+476109104+474403628
3178+472466653+471159158+470742606+470971724+471288177+470987914+469695348
3168+467737314+465931738+464909253+464484731+463760741+462026417+459486286
3158+457053718+455508703+454815904+454348797+453894780+453883457+454200920
3148+453689100+451675356+449153686+447518524+446956330+446739003+446364604
3138+445857039+445352251+444849013+444273009+443605487+442812119+441713225
3128+440269463+438959336+438374786+438454584+438620239+438535392+438254205
3118+437864769+437375666+436726354+435778583+434587666+433564387+433009369
3108+432685055+432199667+431620741+431320623+431295635+430973557+429891466
3098+428394157+427294037+426947691+427058644+427183408+426976718+426158506
3088+424730286+423161364+422119660+421993706+422569819+423081566+422785559
3078+421626086+420144895+418817676+417737172+416917012+416605247+417005140
3068+417721991+417868534+416904067+415088178+413084206+411498805+410718275
3058+410707457+410916166+410690906+409849364+408714627+407619807+406611673
3048+405699672+405084075+404893900+404887662+404687355+404197676+403634941
3038+403197042+402789685+402167741+401341452+400554935+399771412+398627480
3028+397118560+395884914+395508099+395752686+395765667+395012902+393789857
3018+392703115+391952152+391360462+390806309+390271376+389645718+388810955
3008+387878040+387131549+386712545+386477585+386216375+385844175+385321393
2998+384613990+383783915+382900256+381901173+380811726+379974439+379720836
2988+379874411+379878414+379459013+378879943+378398593+377828539+376937704
2978+375924450+375101910+374420073+373710398+373130824+372922404+372869794
2968+372439359+371549750+370756094+370380181+369971093+369017588+367727293
2958+366683929+366101578+365713693+365193652+364533738+363953407+363510531
2948+363089075+362737826+362571883+362360758+361720857+360683010+359678554
2938+359041142+358727574+358397779+357725533+356772894+355966257+355559080
2928+355280922+354722983+353932139+353297106+352907851+352450480+351766191
2918+351079053+350602318+350305806+350083251+349838591+349437544+348789422
2908+347985165+347286704+346911548+346747804+346381374+345561828+344497442
2898+343531965+342751471+342078324+341507440+341069324+340729397+340443378
2888+340189848+339879489+339350434+338562078+337767341+337351906+337413855
2878+337604102+337511503+337103352+336632423+336231160+335831520+335425857
2868+335151233+335035844+334867269+334503579+334113134+333835156+333434794
2858+332647160+331635276+330764814+330148352+329716475+329533584+329699347
2848+330014213+330033865+329523596+328686958+327868457+327206092+326684320
2838+326345150+326237658+326203691+325918573+325245751+324429269+323769464
2828+323225011+322576781+321843487+321223275+320755735+320329880+319889529
2818+319433744+318968116+318542405+318182790+317793715+317266281+316633268
2808+316016048+315481475+315021905+314614728+314219486+313746754+313136602
2798+312471965+311890696+311376929+310761115+309934033+308969169+308035821
2788+307267262+306734456+306488751+306500579+306509918+306136456+305288856
2778+304281335+303410837+302654647+301904442+301224642+300686842+300159156
2768+299480906+298743719+298188358+297846249+297486237+296932391+296240529
2758+295552003+294972970+294574771+294328147+294061239+293603562+292961209
2748+292309030+291807415+291406115+290890636+290186586+289471989+288882625
2738+288312949+287651340+287021518+286628584+286441854+286144927+285467885
2728+284538558+283743982+283236454+282808038+282295191+281827453+281550647
2718+281338476+280947616+280314044+279561982+278831844+278202364+277669413
2708+277135436+276525409+275930943+275528922+275374374+275342732+275220367
2698+274823358+274122824+273292316+272590448+272187725+272094044+272176835
2688+272187400+271844408+271097647+270335452+270034901+270118846+270005513
2678+269389429+268578447+267969539+267577200+267171610+266639742+266129653
2668+265871201+265859500+265834330+265627443+265324548+265015217+264645073
2658+264205569+263824823+263569166+263344934+263066902+262765918+262491005
2648+262241514+262006699+261759677+261429071+260969717+260442933+259968110
2638+259613020+259356119+259129254+258868080+258540575+258174559+257833478
2628+257497157+257040363+256434358+255859002+255503372+255371775+255342098
2618+255300775+255233327+255231866+255323239+255339322+255128900+254790578
2608+254531567+254437922+254454942+254437778+254260692+254002439+253895146
2598+254023137+254252633+254445458+254530611+254416449+254043600+253511840
2588+253023350+252694980+252489859+252333922+252205102+252062561+251820137
2578+251493750+251231134+251079344+250893082+250604070+250408144+250522414
2568+250877576+251212726+251410472+251591091+251893265+252287821+252633860
2558+252844552+252940613+252947771+252809395+252469269+252002109+251553788
2548+251187935+250890125+250641084+250378684+250000570+249508367+249029901
2538+248634588+248268067+247920911+247725580+247802385+248068157+248271060
2528+248233974+248025157+247847909+247798382+247790179+247693054+247470697
2518+247175465+246877565+246636277+246499812+246485244+246562248+246664727
2508+246705221+246610206+246391996+246166935+246046516+246005535+245892689
2498+245622265+245348236+245321732+245527809+245648714+245489568+245221381
2488+245063136+244943060+244645178+244138929+243610973+243239458+243028009
2478+242850077+242618074+242366076+242154555+241967896+241758394+241513536
2468+241231448+240913534+240607809+240348167+240056036+239645722+239216261
2458+238994896+239076623+239295591+239366969+239150922+238772142+238448856
2448+238250027+238098742+237943040+237798354+237672022+237552198+237432825
2438+237275861+237015245+236684044+236452673+236414378+236423393+236302704
2428+236114242+236044342+236113737+236165806+236087612+235936796+235845171
2418+235838968+235828097+235791299+235830350+235982537+236138816+236198818
2408+236176137+236156323+236218128+236336184+236376606+236292950+236236914
2398+236362850+236647913+236994800+237366314+237754777+238154580+238610364
2388+239196230+239927595+240769083+241728231+242858893+244167686+245619128
2378+247262331+249251086+251657548+254333405+257062017+259783362+262525351
2368+265189724+267550499+269313435+270109075+269835370+269120935+268883145
2358+269277268+269626462+269557338+269761323+271282322+274226782+277707672
2348+280910367+283777175+286738456+289725916+291746529+291977613+290659931
2338+288536874+286038355+283252356+280272143+277325376+274700884+272582028
2328+270833768+269027056+266857772+264521679+262481089+260872124+259389563
2318+257744864+255969216+254274377+252837809+251710266+250791774+249916427
2308+249008230+248086132+247140092+246160985+245267500+244596084+244071914
2298+243489797+242801073+242137481+241589620+241120386+240666982+240234077
2288+239902047+239745101+239704138+239592788+239295681+238907471+238605009
2278+238432179+238287799+238077432+237785787+237440668+237088661+236767917
2268+236466844+236168186+235919362+235776190+235719614+235691037+235651607
2258+235579759+235461558+235285393+235045276+234777395+234544509+234364196
2248+234223999+234144742+234146833+234199552+234250701+234273472+234310739
2238+234470516+234786933+235130069+235361206+235496986+235653355+235926736
2228+236344983+236860625+237411911+237983516+238563812+239133001+239744073
2218+240487066+241334161+242154861+242933391+243870290+245178669+246805988
2208+248454744+249883631+251093443+252238601+253452577+254750084+256062915
2198+257363144+258698621+260133386+261727459+263481038+265226630+266716781
2188+267854096+268728182+269483435+270209480+270874623+271381989+271743335
2178+272088617+272488221+272866461+273050271+272882615+272369353+271685551
2168+270991958+270306497+269544519+268625216+267542620+266332971+265043271
2158+263782490+262656804+261632317+260630367+259649602+258694078+257833983
2148+257261566+257063261+257395543+259032580+262888717+268871029+276041409
2138+283773244+291939012+300341091+308732839+317097886+325582036+334379537
2128+343598206+353114144+362725782+372302047+381659362+390594716+398962900
2118+406450742+412592074+417212912+420620403+423444319+426515201+430723020
2108+436775394+444979835+455145698+466581736+478015032+487735533+494494950
2098+498244568+499621296+499242029+497581698+494742458+490440237+484445016
2088+476491509+466131288+453266021+438193626+421250749+403163543+385057190
2078+367748531+351770806+337683323+325658769+315420139+306814796+299789516
2068+294084136+289423598+285508650+281887365+278468785+275661493+273616558
2058+272065972+270856882+269948450+269296325+269143526+269866705+271565835
2048+274270107+278211919+283712124+291169082+300998913+313372932+328354351
2038+346069212+366161616+387438158+408401311+427624516+443762523+456034622
2028+464599615+470258659+474025118+476581187+477974178+478097535+476973832
2018+474366775+469875534+463489038+455577972+446548576+436637649+425842558
2008+414176069+401935197+389491278+377074007+364930314+353357505+342500754
1998+332421143+323388899+315786028+309547013+303953992+298323434+292713052
1988+287600191+283234038+279602638+276596716+274001540+271639954+269551190
1978+267841151+266471888+265287444+264137021+263039641+262260823+261993339
1968+261939359+261506201+260494569+259299362+258363886+257761992+257396228
1958+257271392+257359935+257459277+257416259+257323371+257372988+257658448
1948+258196068+259058074+260264225+261354393+261432641+260205594+258537907
1938+257412238+256987627+256911218+256921603+256966280+257078225+257258537
1928+257536732+258191940+259473436+260974513+262033040+262795703+263748433
1918+264385034+263788242+262378988+261571919+262039025+263226588+264150543
1908+264334281+264080084+263936263+264069681+264296527+264535327+264955143
1898+265677673+266461232+266889539+267071817+267714008+268979296+269845700
1888+269384147+268094014+267051985+266630511+266605540+266726481+266859286
1878+266965498+267064046+267239797+267932200+269932458+273398852+276755880
1868+277529379+275242813+272000146+269786113+268962132+268924757+269093783
1858+269242237+269374321+269541724+269774484+270199781+271059082+272561150
1848+274952593+278335259+281601454+282337560+279872214+276707399+275149925
1838+275246347+275813769+276294542+277511440+280422076+284235429+286614017
1828+286682384+285896679+285102284+283704678+281760618+280414882+280258207
1818+280804174+281470632+282377189+283965366+286039166+287568495+287774265
1808+287090787+286637888+287315488+289473576+292607814+295285582+296265500
1798+295978309+296230613+298496283+302430451+305328809+304588196+301524291
1788+299465473+299689777+301229095+302943875+304644159+306236483+307324524
1778+308239806+310336991+314729972+320738896+325302399+325711163+323032276
1768+319788816+317363821+316801338+318714766+321882647+324066084+324995646
1758+325944536+327098059+328381575+331128973+336434568+342718369+346581537
1748+346904120+345739995+345239786+346233929+348547972+351102563+352609824
1738+353779394+357207836+363461888+368073602+366556281+361650398+357257633
1728+354198687+352627349+352736715+354093106+356687651+361841402+370376034
1718+379597876+383518341+380215997+374300682+369938279+368462425+370010577
1708+374238877+379714238+384405931+388479214+394272433+401917276+407321240
1698+408027345+405714312+401086660+395519385+392442661+393286331+396792336
1688+402078459+410205842+420575871+426595648+423622017+417421296+414093566
1678+415289495+419978664+425259162+428875435+432021031+436141479+439000119
1668+437967465+435711802+436437559+440384996+444198006+445430246+445954903
1658+449288005+457661779+471544771+486561131+491800378+488199791+487469202
1648+492261066+496951172+495997595+492271307+491120632+494193822+501343432
1638+512114436+523878970+530210332+528568427+525461990+526508419+532051570
1628+539637493+547426535+555740775+564650275+572447936+578771545+586259243
1618+596827163+607751561+613732792+614887109+615299406+616862774+619036332
1608+620874974+622363484+624236022+626929981+630254032+634193826+639401305
1598+646413891+654731232+662953522+669901419+675625405+681017578+686572160
1588+692042652+697044596+701441327+705306190+708922823+712982043+718705236
1578+726940579+735875032+741410503+743999891+748717113+757931527+769244495
1568+778964960+787310138+796891703+809180786+825579138+848695115+876494203
1558+893062825+891555131+886589102+885600295+886844759+886929498+884250612
1548+880412937+878908056+881377512+886250004+890693179+890984607+882987758
1538+870102766+860207561+855240955+852323936+848206228+843386527+840930628
1528+841922752+844471394+846545645+848371522+850159682+850379064+848712567
1518+846572256+844029601+840750623+838100656+838014980+841697096+849589519
1508+859451478+862918395+854502181+843271571+837150360+836093835+837288321
1498+837782544+835885414+832742162+831445196+833808856+838728585+842448924
1488+841612574+836954127+831778813+828512888+827716420+828807778+831151316
1478+834364234+838030918+841707120+844345116+843555066+838621778+833222610
1468+831120161+832498764+834446160+834426616+833984318+836366368+842213748
1458+848088460+848100143+841637094+834122928+828944297+826829011+827309964
1448+828390865+827574203+824464414+820732175+817901193+816857216+818312336
1438+821793460+824197289+822633921+819148109+817210809+816990922+816413692
1428+814714381+813304479+813219236+814138665+815780570+818070886+819287512
1418+816627016+810618669+804864105+801601930+800602595+800211644+799140912
1408+797899837+797675840+798179654+798175039+797827143+798493727+800658486
1398+803429467+805452153+805537973+803290568+800015989+797768367+797230440
1388+797194814+796226633+795087966+796108288+800023850+805189212+809782897
1378+813739349+818078530+822948931+827020772+829181420+830126018+831181678
1368+832758821+834857231+837727951+841013348+843292485+843586870+842517724
1358+841236696+840250125+839386804+838287585+836998624+836102128+836065997
1348+836585389+836903429+836911578+837533305+839646139+842941560+846134718
1338+848031631+848373181+848046632+848605905+851089929+855124846+859588574
1328+863908139+868131860+872272862+876315927+880410774+884545357+888523084
1318+892434607+896587508+900960080+905087307+908601894+911834212+915448537
1308+919299914+922327490+923953745+924684947+925027939+925198930+925962369
1298+928039793+930717958+932382219+932251686+930748969+928647241+926463731
1288+924233273+921767207+919266235+917068735+915010638+912956364+911434679
1278+910886296+910929062+910978751+910875550+910610878+910341662+910695544
1268+912131769+914117027+915781072+917219245+919280586+922167100+925089383
1258+927325755+928791909+929601791+930030964+930827361+932431187+933753683
1248+932883943+929419910+924971182+921049202+917811403+915131724+913381859
1238+912388869+910810716+907647055+903623821+900150269+897587565+895283403
1228+892925152+891121343+890513678+890877224+891399284+891690640+892235129
1218+893632266+895503217+896660635+896677655+896590176+897643673+900097263
1208+903249458+905940676+907297572+907602991+908166302+909999175+912787753
1198+915192159+916263756+916702881+918138458+920994321+924149617+926828503
1188+929436065+931990692+933225348+932355320+930836159+931322954+935018268
1178+940432076+944959412+947671112+949785028+952410980+955141502+957134693
1168+958373748+959121970+959396450+959834132+961547434+964240744+966178476
1158+966914582+968343235+972043380+976753607+979249892+978002254+975496379
1148+975506547+978835359+983315602+987095150+989906733+991658184+992129618
1138+991728643+991031048+990303020+990169241+991528733+994185551+996505868
1128+997533474+998747937+1001981841+1006372515+1009391797+1010310072+1010639290
1118+1011671295+1013481162+1015710899+1017736470+1018825953+1019280079
1110+1020620532+1023656617+1027071826+1028659787+1027711294+1025719690
1101+1024324716+1023621207+1023031140+1022860870+1024360414+1027919498
1093+1032100669+1035616193+1039006593+1042720225+1045160546+1044684352
1084+1042160087+1039826356+1039093784+1040399043+1043540709+1047075561
1075+1048912617+1048748044+1048211920+1048274158+1048484598+1048753308
1067+1049959045+1052633893+1056343125+1060172434+1063093708+1064007368
1058+1062420994+1059458540+1057755119+1059321445+1063270829+1066936070
1050+1068702883+1068276379+1065811177+1062911539+1062054708+1063098540
1041+1063103083+1060969840+1059293030+1060137385+1062250579+1064136675
1033+1066868856+1071042960+1073741823+1072047272+1067392720+1063554180
1024+1062239762+1062037255+1060521917+1057535809+1055941862+1057735503
1015+1060878034+1061920785+1060675456+1059602632+1059673596+1059610204
1007+1058698347+1057985247+1058357230+1059170863+1059257981+1058333864
998+1056772587+1055031664+1053547769+1052042744+1049511338+1045605008
990+1041452179+1039013949+1039289295+1040710520+1040440655+1037704363
981+1034331848+1031916264+1030392848+1029109874+1027661244+1025961933
973+1024223607+1022672715+1021042781+1018826242+1016048338+1013288896
964+1010894082+1008611988+1006072216+1003033318+999179273+994508783+989881780
954+986339500+983775569+980809582+976286717+970893895+966930376+966036476
944+967203774+967856872+966775899+964889010+963601564+963596660+964745063
934+966036764+966475024+966484327+967211130+968504923+968969722+967791534
924+965654324+963863568+963201022+963593271+964355555+964782709+964499358
914+963213426+960930539+958753159+958335309+959935746+961774605+961747417
904+959523954+956732276+955244414+955517380+956493494+956932907+956519889
894+955497836+953574383+950040036+945554816+942686765+943262193+945521859
884+945914323+943966062+942595753+943628840+945749534+946854883+946583360
874+945927160+945586765+945548831+945589794+945395797+944380018+942191893
864+939526060+937717275+937341109+937805403+938475593+939422427+940700065
854+941721758+941726662+940702517+939753159+940002398+941440498+943180483
844+944333214+944222946+942378318+939225257+936158522+934255118+933849960
834+935225029+938010650+940293898+940026630+937196801+933765582+932005116
824+932848749+934929491+935920966+935784591+937047301+940794828+944960494
814+947615581+949316262+951213681+953333005+955062533+955847030+955395573
804+953997787+952577499+951517513+950654407+950517384+951526383+952718345
794+952517353+950555967+948772999+950055830+954404963+957258591+954640644
784+949207004+946846878+949431795+954206856+958202685+960646827+961969107
774+962539197+962434122+962067764+962343037+963399634+963965687+962716463
764+959999066+957197579+954742114+952407013+950904367+951630521+954646414
754+958045179+959841561+959932862+959919015+961360433+964370556+967540925
744+968809043+966949775+963009189+959506069+957727861+956706674+955410573
734+954974333+957578001+963294775+968769306+969849414+965726442+959536502
724+954705839+952302803+951786079+951877092+950854173+948094155+945611429
714+946460255+950785950+954573430+954110579+950998121+949860968+952072026
704+954468715+953949540+951159087+948593426+947338649+946742307+945829801
694+944463458+942745686+939494978+932998898+924259669+917127655+914468457
684+915641524+917626133+918142712+917425862+917562453+920070276+924077427
674+926902496+925617862+918221754+905011944+891857232+887269461+889781972
664+892432804+893843211+895698008+897464532+895994123+889726946+881454101
654+876058323+876218785+879839024+882004720+879870107+875106729+871754624
644+871926624+874227614+876294364+877580296+878713410+879474613+879363119
634+878594488+877889609+878593190+881797598+885835832+885766094+878248972
624+866018016+854451698+847324517+845547463+846262366+846314652+847935282
614+855586111+867263707+874765324+873835221+868408864+864048336+862395686
604+861710495+860129169+858214010+857379247
##END=
