##TITLE=<SNM>
##JCAMP-DX=4.24
##DATA TYPE=INFRARED SPECTRUM
##DATE=3/5/2025
##SAMPLING PROCEDURE=Instrument type and / or accessory
##ORIGIN=Admin
##XUNITS=1/CM
##YUNITS=ABSORBANCE
##RESOLUTION=4
##FIRSTX=4497.3318
##LASTX=599.83466
##DELTAX=-1.4281778
##MAXY=1.71781
##MINY=0.18015666
##XFACTOR=1
##YFACTOR=1.5998353e-09
##NPOINTS=2730
##FIRSTY=0.19633843
##XYDATA=(X++(Y..Y))
4497+122724154+123132386+123963481+124634568+124693955+123981411+122857403
4487+122069227+122013603+122481464+123278274+124404415+125504215+125976900
4477+125810903+125684593+126132457+126950251+127324784+126505117+124648092
4467+122861296+122118173+122397403+123123425+123975543+124829393+125363617
4457+125289141+124759900+124176403+123709809+123290736+122873023+122490406
4447+122275602+122459231+123037688+123477970+123144056+122065576+120950016
4437+120382736+120316065+120407931+120482463+120447768+120125692+119555562
4427+119203784+119421000+119913553+120074539+119588059+118593034+117598698
4417+117254213+117795078+118732924+119356797+119374028+118872050+118011317
4407+117058047+116428222+116358664+116637335+116865169+116841874+116529085
4397+115948746+115387390+115337074+115939916+116769345+117285518+117284372
4387+116974508+116773555+116816838+116687016+115965242+114893309+114093575
4377+113876526+114092327+114359476+114374025+114255316+114408273+114874690
4367+115221485+115209014+115057388+114891856+114447989+113612162+112837510
4357+112609509+112830134+113201527+113832936+114838495+115751174+116047579
4347+115888856+115708319+115457321+114828119+113946588+113348095+113284899
4337+113396566+113243199+112920183+112830031+113042478+113277820+113444143
4327+113795391+114456474+115067867+115169987+114842501+114578620+114520835
4317+114370840+114106736+114067933+114251059+114253919+113983565+113811476
4307+114014665+114480691+114923478+115163654+115252474+115360854+115513765
4297+115586601+115610902+115805746+116240699+116746730+117183174+117568278
4287+117942522+118256866+118397306+118242457+117706920+116857950+116087900
4277+115995503+116830977+118124195+119092740+119357347+119080641+118578988
4267+118127474+118046301+118482931+119019083+119005885+118481180+118266516
4257+118959612+120252104+121323236+121624978+121348934+121232804+121717207
4247+122442037+122870741+123015260+123108756+123072803+122783914+122398828
4237+122044219+121625379+121204918+121127675+121498501+121924876+122045942
4227+121974782+121993745+122135880+122240972+122194801+122049873+122008285
4217+122234377+122741851+123472027+124220515+124554066+124209338+123510458
4207+123125866+123530250+124656056+125807168+126199007+125840382+125379414
4197+125062974+124637921+124183491+124082572+124289301+124464472+124654128
4187+125161257+125916219+126487737+126640629+126550580+126500628+126618415
4177+126925569+127404402+127871806+127983530+127632422+127262696+127466658
4167+128253809+129000415+129185535+128895100+128505748+128236503+128137521
4157+128152461+128086004+127844134+127735419+128166265+128997891+129539884
4147+129302484+128537649+127931501+127908793+128304916+128687868+128900167
4137+129088863+129276693+129282169+129093967+128975388+129164969+129689022
4127+130358582+130812052+130781166+130386012+129988436+129802348+129788284
4117+129819104+129833597+129899728+130126090+130456856+130690334+130726445
4107+130624306+130488645+130494457+130836073+131436382+131935436+132110934
4097+132081445+132070156+132173823+132345893+132491912+132597535+132708048
4087+132761027+132674367+132602490+132747046+132963601+132942001+132727728
4077+132748229+133291022+134091856+134514403+134193110+133441074+132928952
4067+133057805+133687043+134325772+134623528+134755678+135145775+135805303
4057+136256696+136094825+135393076+134633327+134311792+134476243+134743374
4047+134909129+135201492+135707550+136029113+135878345+135584603+135622260
4037+135973014+136323870+136622166+136987776+137273162+137184370+136770448
4027+136452741+136600296+137214334+137939341+138371640+138445380+138406717
4017+138352565+138070000+137463926+136843946+136626581+136955316+137656870
4007+138372963+138741422+138711887+138686189+139064932+139677051+139989560
3997+139858733+139653859+139630741+139664142+139651986+139707313+139893000
3987+140152019+140482989+140864610+141105176+141094241+141091028+141432495
3977+142008596+142300568+142001471+141427130+141168261+141387200+141642567
3967+141525274+141261189+141388886+142031723+142854166+143558169+144041268
3957+144206334+143982766+143544440+143358846+143865668+144871935+145489261
3947+145287329+145103597+145780878+146720633+146714737+145756410+144911502
3937+144943431+146024798+148072447+150431358+151643878+150767106+148848915
3927+147848357+148389828+149362508+149678073+149666412+150199295+151280457
3917+151926526+151136674+149018824+146868673+145948161+146454415+148014327
3907+150797675+155182430+160319045+164156545+165329480+163693462+159610049
3897+154586676+151245911+151338289+154213755+156997364+157424513+156914487
3887+157930552+159958083+160786654+160677697+161215796+161303629+159265610
3878+156919591+157003046+159550923+163093871+166718821+169091926+168482033
3868+166092889+164945139+165392351+165094017+162914927+160580438+160259527
3858+163154227+169831044+178942571+184000490+179269201+169888941+162419468
3848+158998778+159637749+163114716+167456449+171530641+175461860+178587924
3838+178908071+176234155+173010534+170794410+169169886+167699269+166851399
3828+166851474+167469600+169462854+173991094+179385851+181383446+179839843
3818+178465685+177359383+173970100+169267573+166692648+167824415+172006689
3808+176825419+179732376+181555833+184738490+188158584+188229893+185400374
3798+182695628+180304286+177354689+174947642+174644168+176292331+178739354
3788+181378696+184095792+186539946+188730941+191537528+195123415+197969178
3778+199130843+200160060+203195776+208971446+216679661+224303396+230028080
3768+234223151+238296654+242628327+247636863+254665998+264076715+273956681
3758+282410086+290452791+300780434+315024430+331884073+346556224+356160937
3748+364512557+375624453+387886131+395843946+399523683+404698085+414759826
3738+429478473+446322506+461207616+470554773+474276125+475485628+477109053
3728+479967837+483421500+486823934+490031590+492539900+493652312+494350429
3718+497181643+503876232+514381105+527161023+538691797+544964864+546513701
3708+547407005+550723191+557670268+567131394+575739899+580944218+583324998
3698+584497319+585837406+589327431+596920690+608220771+618448863+620562885
3688+614275363+607186263+604135495+604471103+606137076+608597101+613111910
3678+620193745+626083924+625654056+621718962+620156079+621609911+623181326
3668+623163890+622438799+621819070+621528766+622071597+623928994+626908714
3658+630041111+632557059+635487152+641025814+649988146+659844192+665000674
3648+662954534+657813551+653779764+652109470+652618620+654377660+656536017
3638+659572144+664276850+669935106+675608040+682031400+689288268+693168259
3628+689927295+684336549+682718414+686567482+694059217+701537389+705187730
3618+704446917+702384756+701833580+703868692+708623993+715216797+721400447
3608+724563395+723371552+718669603+713066860+709007142+707250561+707711501
3598+710628033+715248093+718897390+720051380+720951205+724173913+728146599
3588+727832450+721434425+714007965+710816031+711943494+714242384+715897329
3578+717434244+718777349+718721985+717862249+719037848+723627133+729026976
3568+730843913+727746164+722240512+716580319+711792977+709303556+710456056
3558+714734993+719615253+722587447+723055242+722682824+723887781+727147821
3548+729962940+729165645+724835593+720810449+720144448+721705133+722491026
3538+722161230+722955767+725309051+726577345+724397454+719330015+714141046
3528+711790295+713530557+717749138+721393666+722970595+723288991+723633914
3518+724337545+724989016+725536765+726670785+728417158+729475025+729663247
3508+731248968+735059065+737599304+735090138+728816103+723288768+720902324
3498+720894426+721360955+721131900+720490712+720296008+720787872+721495005
3488+722234551+723364548+724446036+724034051+721905127+720286247+721498730
3478+725627448+730987127+735078663+735545638+731953791+726209100+720779079
3468+717386480+716601853+717775068+720023661+723001891+726268785+728904848
3458+730388710+731023863+731105529+730641608+729716449+728290410+726172812
3448+723634734+721599771+720975348+721820703+723190633+723919524+723606717
3438+722645716+721541054+720637354+720106669+719870164+719773520+719718603
3428+719602809+719669424+720816410+723682571+727522325+730532819+731510361
3418+730839665+729340007+726956619+724035318+722997196+726025424+731493074
3408+735211967+735530363+734383973+733286613+731829130+730005412+728753139
3398+727793033+725388930+721123331+717189765+715996879+717614864+720618055
3388+724327411+728022013+729333971+726819365+723313282+723248903+727174273
3378+731282350+732145961+729943045+726612367+723564840+721926214+722606001
3368+725196387+727933565+729245449+729047765+728468199+728390482+728366563
3358+727211008+724649160+721966973+720821030+721317141+721840747+721253059
3348+720355619+720692792+722559206+725139682+728115751+731535547+734364972
3338+735016369+733789207+732726794+732881186+733190938+731877564+728678998
3328+725548836+724860480+726890600+729118926+728748370+726120876+724344698
3318+725206744+727226730+728239219+728050402+727501238+726777563+725791452
3308+725013009+725065392+725889437+726816087+727400272+727542816+726572800
3298+723238843+717959862+714249463+715921694+723136611+731793587+736667737
3288+735633639+731079897+727259218+726189652+726422357+726065661+725670442
3278+726607896+728497707+730082608+731094948+731906251+732555413+733307105
3268+734722488+736193980+736220358+734844541+733754185+733695916+733755899
3258+732981630+731358577+729786045+729532475+730765077+731938665+731559615
3248+729730607+727269352+725168892+724877022+726924131+729879857+731719893
3238+731624739+730488260+730071878+730894209+731198671+729403940+726652157
3228+725094974+725259947+726488376+728148686+729570552+730253542+730303839
3218+729801245+728640102+727193274+726139057+725802629+726073411+726331451
3208+725424994+722730065+719357809+717267110+717316363+719017506+721390909
3198+723135270+723170217+721959298+720806127+719559964+717240956+714898475
3188+714907566+717370535+719901459+721116327+721792388+722252285+721259020
3178+718311714+715246751+714128230+714680151+715044596+714033001+711601850
3168+708282200+705100773+703216401+703051950+703999464+705005694+705309858
3158+704653692+703101278+701169293+700142050+700871537+701937676+700875411
3148+697647786+695026625+695364395+698362817+701660113+702807918+701039267
3138+697720734+695177440+694686918+695466702+695784278+695092122+694266439
3128+693883514+693625101+693061779+692035952+690742771+689756287+689291099
3118+688613697+687041090+685069389+683636793+682926605+682700307+682978094
3108+683505128+683454682+682479524+681170695+680155598+679758292+680430850
3098+682003457+682756267+681041936+677574898+674665966+673881712+675254623
3088+677798438+680102470+680990521+680131306+678161543+676291031+675457895
3078+675504839+675302311+673894901+671422171+668862484+667029229+666019050
3068+665705646+666114949+667006651+667594786+667067082+665470556+663923135
3058+663552654+664113144+664076856+662463043+660056258+658371657+657948048
3048+658105271+658203480+658337232+658468972+658087537+657353579+657098520
3038+656982130+655504751+652660870+650440666+649952826+650075997+649418565
3028+648019872+646630345+645554743+644668926+643856431+643182532+642857578
3018+643000644+643403911+643587363+643074040+641735480+640070774+638815297
3008+637919496+636513799+634359167+632360716+631278035+631092496+631524451
2998+631953351+631341148+629466612+627578366+626894258+627166530+627278375
2988+626695903+625874690+625353543+624935112+624113042+622969745+622026106
2978+621332795+620322952+618618381+616682856+615452117+615222020+615285356
2968+614945500+614374541+614234232+614799752+615443735+615118856+613634137
2958+612010153+611122214+610571485+609395960+607334284+604970753+603081203
2948+602002770+601487137+601158122+600863608+600469096+599706302+598533571
2938+597309538+596387956+595742222+595061169+594174682+593266549+592562769
2928+592088156+591844534+591790921+591556055+590676051+589219051+587759295
2918+586708171+585919669+584941195+583561317+582024291+580682042+579602714
2908+578581582+577391378+575927263+574214123+572434965+570996333+570388154
2898+570697534+571299007+571287681+570263456+568610300+567062580+566054488
2888+565452791+564974340+564691375+564768497+564899044+564550470+563631756
2878+562446769+561177581+559767450+558150843+556402086+554763796+553507163
2868+552584239+551664333+550762720+550310982+550220411+549626687+548144093
2858+546557850+545648003+545214074+544724185+544164440+543766053+543334360
2848+542375036+540816549+539219986+538125718+537453421+536736079+535687563
2838+534309101+532671481+530903127+529337077+528431403+528399660+528851436
2828+528875988+527759366+525717920+523664403+522220221+521332504+520815194
2818+520650035+520676860+520529472+519929862+518757020+517076183+515320757
2808+514041360+513333296+512842588+512214476+511241256+509881236+508442865
2798+507440547+506999501+506624252+505746483+504345182+502905321+501898011
2788+501339234+500754415+499695541+498366742+497372472+496782213+496060401
2778+495031296+494157662+493692139+493226728+492230334+490610411+488731218
2768+487092891+485959541+485252147+484740761+484186306+483347433+482080704
2758+480518678+479088765+478183947+477678187+476985175+475810171+474499964
2748+473401263+472381955+471297300+470404703+469934337+469613444+468944686
2738+467740548+466202851+464677672+463416643+462412536+461491326+460614452
2728+459836196+458933726+457571023+455918538+454560492+453704258+452978087
2718+452037503+450933884+449857313+448864645+447931140+447049385+446193486
2708+445343287+444601058+444079091+443593375+442751708+441466164+440095042
2698+438961915+437995401+436957242+435831232+434801269+433901072+432928559
2688+431789509+430720129+430012586+429636181+429247668+428553277+427591345
2678+426602775+425687712+424759870+423814778+423019831+422496374+422130997
2668+421644164+420872465+419942462+419078068+418322576+417566265+416717966
2658+415729768+414586769+413348913+412122980+411026813+410212306+409793018
2648+409714966+409770329+409711613+409370937+408772743+408074551+407330721
2638+406429182+405321837+404216281+403432474+403031554+402691362+402098720
2628+401351759+400736799+400238006+399562206+398576318+397507572+396735910
2618+396431783+396371353+396165286+395637544+394821547+393740654+392480632
2608+391335695+390595217+390260391+390090016+389857832+389557282+389379008
2598+389411869+389429677+389123352+388432985+387528242+386662284+386108761
2588+385961671+385942707+385665554+385114527+384624899+384382805+384178563
2578+383748360+383157729+382635538+382195126+381720103+381265869+380910440
2568+380507582+379987367+379647175+379719006+379910431+379779735+379330679
2558+378881028+378573175+378308131+377978632+377596974+377318815+377321982
2548+377537326+377667688+377592764+377463781+377314717+376951278+376318845
2538+375676240+375331355+375352777+375543606+375652210+375607725+375500090
2528+375389810+375286870+375228526+375224465+375202707+375096004+374890235
2518+374575639+374165554+373731886+373337560+372986974+372669100+372390978
2508+372173362+372058164+372080704+372198435+372282226+372197318+371894570
2498+371473643+371133563+370958010+370812522+370570316+370294840+370049318
2488+369726302+369226801+368627228+368085590+367730198+367631132+367765964
2478+368033132+368283982+368325672+368060851+367656466+367348130+367095529
2468+366703551+366238997+366033749+366229869+366519912+366478967+366081997
2458+365687001+365526759+365480040+365334738+365011424+364563598+364175160
2448+364050126+364141852+364147888+363880421+363455769+363060885+362756199
2438+362573492+362594766+362821101+363074335+363123923+362872925+362394884
2428+361849780+361380010+361037099+360788596+360598513+360467741+360373333
2418+360233546+359998642+359733486+359549661+359504543+359594965+359754387
2408+359841083+359778231+359713292+359866790+360236563+360609541+360827679
2398+360919554+360981661+361012994+360936357+360776823+360671275+360596203
2388+360245840+359366693+358081224+356643337+354954415+352610929+349493843
2378+346030271+342695159+339495103+336184656+332771454+329482765+326394405
2368+323456450+320856749+319033851+318234694+318315132+319128223+320880109
2358+323909306+328308246+334053980+341303918+349839661+358197651+364236484
2348+366581423+365424415+362499165+359831881+357895462+355748840+352670316
2338+348728851+344333003+339918116+335953254+332875289+330871398+329827948
2328+329522555+329683169+329920010+329956745+329937111+330233376+330984137
2318+332014844+333129603+334282513+335467724+336626558+337769371+339020155
2308+340376784+341610541+342574373+343403373+344233043+344914655+345228804
2298+345284912+345467210+345965705+346550040+346877265+346861618+346694931
2288+346676675+347013066+347584361+347979767+347938002+347617035+347301806
2278+347058520+346809533+346552275+346341737+346163613+345955422+345714110
2268+345489452+345301380+345154700+345091550+345128360+345191920+345189312
2258+345090097+344953626+344911227+345018788+345149521+345200377+345290613
2248+345543251+345853264+346073116+346207464+346283617+346250272+346098525
2238+345950169+345996442+346345873+346882146+347343049+347595464+347725229
2228+347844003+347961846+348063147+348200290+348473903+348903995+349343997
2218+349635270+349829489+350106382+350497875+350853789+351065817+351205381
2208+351432610+351807450+352204569+352459331+352601391+352860586+353401517
2198+354101682+354666606+354984853+355271022+355762849+356409179+357019034
2188+357556276+358085844+358609487+359127915+359688405+360285295+360883117
2178+361507204+362149846+362709703+363152015+363579201+364095356+364744442
2168+365562228+366564658+367733253+369072819+370629591+372443324+374547287
2158+377015024+379950333+383369980+387084850+390748789+394059460+396918282
2148+399462693+401984192+404730498+407733652+410853941+413946362+416940128
2138+419823166+422639403+425517449+428632894+432034248+435550577+439048612
2128+442697388+446711019+450898229+454726024+457756562+459822895+460908482
2118+461088022+460540087+459421603+457717517+455367399+452555856+449731199
2108+447296322+445363964+443812817+442485472+441287779+440128722+438855697
2098+437284803+435190490+432270419+428339460+423600068+418527414+413485720
2088+408589700+403826277+399173507+394705977+390632250+387130527+384167498
2078+381599317+379415699+377726926+376502259+375518495+374641732+373968466
2068+373583976+373359765+373087530+372666566+372098364+371414442+370675194
2058+370002821+369551195+369365433+369288014+369099904+368765339+368485392
2048+368522462+368984148+369761509+370675231+371660225+372810936+374345057
2038+376536871+379555077+383324602+387605811+392172444+396818881+401209438
2028+404831539+407215746+408205136+407928878+406603991+404490304+401852751
2018+398808353+395410539+391920216+388675526+385728891+382961423+380435602
2008+378263646+376266760+374137015+371854630+369705848+367954297+366604522
1998+365471880+364507117+363932767+363814589+363664109+362900606+361584326
1988+360226579+359129479+358315233+357783356+357491375+357270145+356951488
1978+356503736+356008371+355556707+355185183+354945175+354985226+355373292
1968+355822087+355853420+355349709+354685756+354203729+353848970+353434750
1958+352985694+352628029+352364140+352142872+351989635+351939786+351971640
1948+352119549+352590475+353534449+354533898+354650810+353482028+351803165
1938+350648318+350309095+350465723+350740230+350910680+350901738+350760871
1928+350689673+351064774+352057778+353173617+353804299+354207641+354902404
1918+355345536+354566833+352917738+351720530+351607120+352147716+352588724
1908+352525834+352070147+351572583+351249977+351121926+351173266+351410926
1898+351794671+352146263+352249017+352276326+352793487+353826728+354396234
1888+353717826+352313918+351124608+350429248+350107686+350099228+350313156
1878+350579542+350793247+351003338+351605965+353332741+356395245+359402720
1868+360019096+357725496+354543100+352460523+351842508+351983376+352131695
1858+351990567+351716841+351594006+351699666+352035908+352807272+354310954
1848+356749556+359988061+362799156+363022212+360327395+357184193+355643255
1838+355601527+355906287+356120774+357131624+359855427+363467729+365696576
1828+365715614+364868731+363855050+362136396+360017494+358773678+358819242
1818+359349443+359654911+360047783+361271481+363302905+365070774+365574336
1808+365028413+364509464+365008891+366979996+369978977+372562844+373429808
1798+373022853+373244418+375590401+379651646+382741161+382345010+379723440
1788+378085969+378724959+380747181+382976549+385101785+386992751+388324568
1778+389510636+391945811+396730657+403101634+407918818+408576996+406352657
1768+403819571+402230720+402442078+404929673+408440487+410852079+412072982
1758+413406810+414898309+416315332+418978183+424131349+430396628+434409701
1748+434846238+433639939+433041373+433992574+436374509+439244098+441435130
1738+443432538+447443971+454029882+459264901+459063752+455809040+453079537
1728+451708787+451890786+453799002+456927897+461147931+467731979+477612019
1718+488318004+494034641+492671044+488470011+485443982+485020522+487536842
1708+492784081+499320925+505080891+510342660+517720165+527563992+535427101
1698+538157834+537656097+535345732+532515524+531987857+535071635+540724562
1688+548131314+558318722+570874541+579568885+579765936+576872131+576687710
1678+580619116+587625879+595189705+601407668+607455554+614757167+620996889
1668+622985169+622991242+625582225+631515882+637620846+641318502+644251800
1658+649662000+659473190+674003467+689340353+695795679+694181791+694984227
1648+700527955+705440256+704592442+700974887+699720453+702249664+708224303
1638+716798495+724774641+726296355+720771553+714881039+712878042+714309968
1628+716591049+717728870+717676934+716583300+714104162+711515042+710977949
1618+712042970+710890246+705289962+698381594+693242102+689855911+687022238
1608+684062637+681149309+678707950+676908747+675654686+674822594+674431621
1598+674438253+674402114+673788645+672682119+671648021+670901769+670165054
1588+669182147+667938666+666521196+665050300+663927307+664169253+666907846
1578+671853902+676001918+676152957+674593167+675905572+680610428+685115289
1568+686470019+686631862+688848191+694299150+703687699+718362681+736208361
1558+746712824+746592187+745575376+748652336+755468531+764448075+773850111
1548+782747468+792079908+803121464+815381167+827189616+835568805+835384385
1538+828051066+822122923+821346865+823636813+825351294+825992706+827856362
1528+831786725+836480478+840999720+845918578+850991456+854278618+855392595
1518+856042501+856834281+857595511+859193155+862818235+869037279+878033366
1508+888035086+892012020+885296642+875964276+871322533+871755233+875159232
1498+878695716+879441372+877264163+875763238+877954307+883249309+887877714
1488+888451244+885635752+882453878+881111443+882119834+884701204+887911916
1478+891588858+896216219+901951894+907047945+907663874+902819976+897170439
1468+894864172+895883293+897437719+897390104+897339584+900450746+907309860
1458+913952513+913998190+908012895+902645764+900618103+901129116+902517749
1448+902789351+900846785+897755221+895312669+894348688+895268929+898576359
1438+903557585+907188478+907186019+905629209+905188163+905440839+904529464
1428+902464100+901298187+902202855+904246835+906079643+907498752+908582848
1418+908812201+908054548+906804212+905354850+903760038+901916724+899845622
1408+898326888+898115195+898439925+898063930+897632497+898699157+901177401
1398+903443058+904216955+903025559+899772524+895348957+891489755+889011213
1388+886718135+882871302+878322553+876312403+878621277+883803466+889121269
1378+893519427+898080919+903479495+908053132+909801069+909461660+909295793
1368+910276316+912014939+914018160+915891876+917199885+917932576+918600664
1358+919614047+920856187+921776577+921872849+921221825+920424158+920070442
1348+920356052+921018403+921851911+923392477+926373090+930325881+933551421
1338+935007638+935585117+936724205+938523780+939913009+940293996+940233342
1328+940462173+941105225+942050354+943201661+944252897+944907275+945274775
1318+945704345+946328843+946918394+947145436+946981655+946712587+946553576
1308+946580624+946898498+947490210+948156584+948778473+949206255+948945235
1298+947661665+945881538+944378080+943214478+942009446+940555092+938841654
1288+937189243+936284575+936177127+935611718+933348893+929743260+926192172
1278+923462072+921092320+918170796+914511141+911049319+908804899+907738164
1268+907178642+906771128+906200057+904679907+901603022+897222524+892340550
1258+887829280+884420140+882381898+881393775+880891926+880423684+879738309
1248+878775520+877597536+876330062+875252523+874663717+874525718+874592780
1238+874968626+876060025+877770855+879254493+880007079+880845504+882899841
1228+885727404+887507680+887512374+887226913+888262203+890393065+892483839
1218+894212924+895902368+897449939+898578893+899715447+901583127+904145794
1208+906731114+908929709+910680477+911874630+912674607+913905495+916319732
1198+919682749+923092038+925959988+928359173+930596514+932574847+933559543
1188+933008516+931799907+931854451+934155502+937758824+941011934+943416484
1178+945941447+949359232+952686705+954014983+953296002+953305987+956683757
1168+962609814+967502518+969163126+968770812+968307785+968328277+968960747
1158+970982298+974471540+977691044+978813590+978177841+977865033+979624892
1148+983617846+988495647+992337786+993782081+992741947+990552815+989400912
1138+991112039+995935148+1002094506+1006655476+1007636595+1005640304+1003005657
1128+1001681254+1002019173+1003028160+1003785291+1004688469+1006685207
1120+1009279245+1010734642+1010542621+1009927139+1009606657+1009160917
1111+1008876872+1009847410+1012173646+1015045545+1018167734+1021629779
1103+1024918133+1027160915+1028145908+1028498879+1029046702+1030324459
1094+1032352120+1034622322+1036505128+1037610908+1037885341+1037760829
1085+1038020583+1039001777+1039905402+1039608317+1038080492+1036887829
1077+1038181383+1042168376+1046437700+1049066610+1050809406+1052546166
1068+1053021339+1051220646+1048846125+1048369686+1050265979+1053247413
1060+1056128402+1058660444+1060324926+1059369365+1054989761+1050205027
1051+1049809435+1054731721+1060834151+1064332708+1065942274+1068179913
1043+1071437047+1073741823+1073180811+1070125535+1067165338+1066338089
1034+1067150510+1068021498+1068188110+1067405495+1065039617+1061060225
1025+1057116376+1055140800+1055505096+1057315923+1059596706+1061617139
1017+1062502657+1061129746+1057361376+1053508582+1052780288+1055596226
1008+1058847398+1059951763+1060280516+1062288282+1065066666+1065553015
1000+1062955177+1059258415+1055659786+1051356186+1046385541+1042732145
991+1041633220+1041928890+1041713099+1040214707+1037701740+1035000552
983+1033172886+1032614780+1032345115+1030755966+1027321044+1022826689
974+1017799190+1012128640+1006482754+1002427507+1000780163+1000746781
965+1000359534+997551494+991955234+985732688+981268064+978296988+974862214
955+970688938+967459151+965738635+963960147+961048533+958075595+956580482
945+956497325+956403065+955088051+952326582+949264078+947874699+948918037
935+950755465+951024086+949276447+947112054+946031907+946016631+946142708
925+945822449+945135361+944609742+945038195+946595825+948038629+947971120
915+946670785+945441611+944989910+945219784+945471044+944554826+941887169
905+938935765+937962619+939341640+941341805+942112572+941026613+938593226
895+935919608+934105428+933394942+933173935+933159554+933807524+935118514
885+935990992+935584074+934513315+933726527+933170880+932506295+932005490
875+931462659+929672622+926390377+923433459+922615301+923765044+925491372
865+926746403+927313003+927626556+928128702+928456338+927786760+925923029
855+923388751+921231139+920958047+923059252+925404713+925155466+922755834
845+921610412+923490089+926503712+927942791+927553011+926932761+926796029
835+926463624+925581385+924784538+924758458+925574306+926919721+928325045
825+929173977+929403479+929883942+931339041+933516176+935502258+936158126
815+935142805+934109080+935065833+937618813+939761598+940732881+941626223
805+943406201+945770215+947539463+947116897+943881820+939285978+935568799
795+933926447+934245290+935849193+938089888+940475586+942674106+944607209
785+946378916+947874401+948598076+948175883+946810647+945423653+945099669
776+945729084+945649280+943618639+940882802+939881862+940841149+941649396
766+941184581+940808214+942228962+945080593+947335445+947423222+945125748
756+941386960+938063808+936966299+938258661+940141989+941055226+941529132
746+942726340+944185537+944608625+944379347+945628863+949423909+953741593
736+954918682+951422733+945600101+941180781+939779183+939982977+939458253
726+938152404+938119022+939578816+940639143+940950535+941800212+942866276
716+942495795+941302536+941572126+943190410+943635479+941477419+937690793
706+934222713+932615680+933045176+933935314+933199121+930231398+926250963
696+922601740+919837439+918180110+917158456+915020664+910687780+906184036
686+904461955+905154632+904993907+902318277+898842894+896765383+896113167
676+895342847+893280239+889100480+881331556+870140600+862315716+866271413
666+876617014+882563562+882210815+879346815+876407407+872172285+864969812
656+856276101+850025463+849146800+853507255+860562191+866814691+868856807
646+865469723+859461850+854814966+852838943+852377481+852065717+851295993
636+849361027+845941380+843045413+843798745+847778360+849976284+846845079
626+840546604+834623304+829197009+823353289+819773960+823178630+833624525
616+842688419+840138046+827093121+815696657+814949063+822376120+829143359
606+831769140+833135419+832402504+824946313+813347545
##END=
