##TITLE=<SNM>
##JCAMP-DX=4.24
##DATA TYPE=INFRARED SPECTRUM
##DATE=2/5/2025
##SAMPLING PROCEDURE=Instrument type and / or accessory
##ORIGIN=Admin
##XUNITS=1/CM
##YUNITS=ABSORBANCE
##RESOLUTION=4
##FIRSTX=4497.3318
##LASTX=599.83466
##DELTAX=-1.4281778
##MAXY=1.717715
##MINY=0.21842992
##XFACTOR=1
##YFACTOR=1.5997468e-09
##NPOINTS=2730
##FIRSTY=0.23728049
##XYDATA=(X++(Y..Y))
4497+148323779+148428979+148873076+149512251+150289078+150790163+150669528
4487+150294425+150354775+151017180+151832664+152226517+151913953+151095647
4477+150343010+150205069+150908515+152138419+152921245+152283980+150379785
4467+148414448+147434123+147721854+148987181+150479610+151205552+150675107
4457+149423910+148474612+148317044+148606275+148776744+148596234+148122628
4447+147590954+147360322+147466296+147344757+146556948+145531018+145028266
4437+145218435+145722118+146147306+146222057+145840135+145336014+145322387
4427+145908263+146454160+146411005+145961087+145539895+145169542+144517131
4417+143421685+142261987+141724985+142146279+143232057+144340674+144762071
4407+144041448+142493792+141091948+140495789+140527012+140623773+140414323
4397+140004057+139892988+140312588+140748208+140575886+139894888+139206886
4387+138666997+138185324+137855593+137742122+137583036+137229841+137028904
4377+137258754+137561919+137450590+137044218+136858240+137128376+137643395
4367+138056940+138165186+137953742+137509524+136985088+136655338+136755201
4357+137106384+137241559+137107967+137217601+137828273+138440314+138501568
4347+138188203+138009295+138092243+138291624+138498009+138544266+138278639
4337+137773354+137164955+136611410+136540311+137259480+138233509+138533862
4327+138035367+137427070+137155491+137129745+137330207+137885894+138490492
4317+138517282+137942425+137442701+137364243+137373874+137303297+137506068
4307+138131541+138743862+138893866+138617517+138312172+138419924+139115788
4297+140008174+140340392+139837193+139121163+138920934+139214943+139564021
4287+139827981+140102774+140352259+140479796+140419232+140017116+139289852
4277+138738524+138800951+139163601+139271102+139273589+139688698+140371335
4267+140696800+140566767+140407076+140314674+139970645+139411595+139196295
4257+139587289+140130671+140358984+140437749+140812191+141631186+142651648
4247+143342790+143230958+142506730+141889436+141673251+141562648+141483948
4237+141706383+142174773+142462038+142320688+141867034+141412206+141251332
4227+141457346+141909257+142469555+142940106+143064839+142805546+142376641
4217+141946405+141643183+141710286+142261791+142992576+143362882+143048017
4207+142248024+141620744+141748849+142632134+143763172+144526036+144510574
4197+143778941+142845394+142171438+141815878+141653867+141627339+141674751
4187+141756049+142013256+142557877+143102480+143233184+143038665+143001071
4177+143308530+143749730+144217468+144861934+145800492+146970521+148122097
4167+148863612+148954822+148494601+147644803+146532106+145625432+145593063
4157+146446783+147392821+147724061+147376809+146636617+145838170+145315205
4147+145228048+145432301+145672583+145814799+145804889+145595550+145269442
4137+145131017+145474906+146192194+146764414+146836193+146684131+146822380
4127+147230010+147345763+146824662+145965744+145313929+145120910+145343336
4117+145894915+146592381+147039869+147030554+146979528+147418362+148093222
4107+148163482+147379902+146493077+146354465+147082204+148151392+148903321
4097+148942834+148375988+147750469+147587415+147910570+148329535+148613354
4087+148991466+149702522+150422893+150495362+149727299+148663235+148036970
4077+148195879+148970312+149788124+149998637+149407749+148476233+147852874
4067+147871988+148475171+149276840+149764744+149755057+149532259+149387378
4057+149344381+149390834+149538462+149690981+149845661+150215790+150847616
4047+151501293+152034150+152373177+152194763+151297860+150152990+149481158
4037+149448911+149687954+149963744+150501137+151539838+152693677+153150563
4027+152679966+151975626+151731283+151866895+151935610+151810867+151686237
4017+151740681+152017039+152403385+152597177+152329445+151766660+151452559
4007+151674835+152144660+152520172+152913458+153613765+154586844+155442715
3997+155721439+155166199+153944986+152686896+152112971+152456777+153301909
3987+154123176+154791702+155304476+155422065+155063765+154676451+154721944
3977+155162557+155753482+156372574+156814277+156761984+156261263+155840891
3967+155964516+156649928+157686580+158852892+159797012+160120269+159830172
3957+159380831+159106327+159005709+159194164+159982020+161160255+161785681
3947+161297703+160393599+160110302+160502190+160745434+160324838+159653025
3937+159542664+160464745+162202347+163892201+164497861+163756392+162646993
3927+162395198+163087988+163646088+163353681+162938729+163548824+165186068
3917+166538693+166267412+164398958+162217716+160969155+160997509+162120731
3907+164512448+168545713+173591523+177714321+179328428+178284139+175143688
3897+171104890+168177540+167897335+169739932+171061315+170100336+168878620
3887+170035618+172746289+174099435+173896654+174126783+174422767+173119305
3878+171249957+171120240+173031933+175970106+179285506+181902862+182254809
3868+180964760+180136683+179954805+178872027+176541451+174490858+174254432
3858+176661294+182109034+189433518+193502756+189950167+182725220+176749859
3848+173569112+173280375+175316382+178519745+181959067+185439654+188426189
3838+189473273+188316164+186621242+185338049+183923426+182235360+181261881
3828+181449311+182152012+183450313+186422765+190410518+192530413+192334413
3818+192089139+191590281+188835998+184699247+182043719+182365617+185297921
3808+188858987+191137735+193133838+196776929+200670567+201445475+199479347
3798+197455915+195666636+193473042+191735590+191633687+193068076+195245332
3788+197770379+200550370+203225738+205628986+208370023+211871084+215313853
3778+217739643+219685167+222624104+227738973+235216143+243637899+250914580
3768+256744557+262312438+268171589+274723363+283109499+293760690+305152140
3758+315586616+325772426+337941858+353611419+372285902+390552103+404855160
3748+416405015+428531674+440995860+449102295+452123723+455595013+463719071
3738+476696907+491164461+502408161+508034836+509513638+510281244+512737940
3728+516829366+520650405+522627059+523235830+523485837+523384977+523271599
3718+524521892+528262042+534513361+541821749+547075873+548411080+548496290
3708+550525256+554870302+560875713+567423537+572407088+574912519+576515504
3698+578350127+579890667+581181386+583916815+589435738+595992541+598921642
3688+596394713+592194268+589895549+590437590+593440463+597864200+603041683
3678+608465185+610866217+606709513+600373953+598120168+598958379+597704285
3668+593011651+588266445+586026856+586644532+589632241+594244396+599456678
3658+603866071+606375973+607913904+610725826+615623122+621366007+625514439
3648+626500605+625222032+623145860+621023674+619434288+619227911+620964469
3638+623965442+626748898+628866688+632091884+638755248+647830150+653237371
3628+651436057+648059292+648013091+651045734+656289090+663344417+669363203
3618+670846029+669553521+669718056+672120056+674827877+676625539+677572956
3608+678017677+678576932+679783595+681334604+682688217+684276708+686804718
3598+689740711+691644114+691789796+691201033+691921990+695298383+700535107
3588+704429471+704078419+700656049+697701799+697087774+698121929+699535230
3578+701080278+702834199+704401825+705313623+705755586+706140470+706023626
3568+704437668+701666359+699329263+698144135+697282041+695831854+694204986
3558+694169367+696789033+700796142+703800394+704194517+702261084+699903719
3548+698774629+699205042+700439650+701741621+703191361+705221966+708031056
3538+711192763+713047655+711924675+708916474+706807179+705775930+703588317
3528+700376683+698974410+700254176+702294691+704012247+706284214+709223859
3518+711105279+710520391+707826580+704647733+703122209+704169479+705736659
3508+705177330+703439952+703455824+705391344+706843543+706712094+705600664
3498+704081996+703109765+703542116+704361958+703901365+702571673+701802502
3488+701356887+700161401+698612851+697701799+696934715+695498761+694538750
3478+695690494+698342054+700592933+701710101+702202960+702875332+704228646
3468+705817585+706522373+706103062+705346261+704563156+703946374+704444971
3458+706286748+708041637+708283894+706927599+704829705+703275566+703370949
3448+704868305+706216627+706408137+705829135+705200058+704466507+703052684
3438+701414266+701531035+704224250+706469465+704146379+698064551+693648116
3428+694023089+696941272+698742512+698709873+698348835+698693628+699725250
3418+700849869+701456964+701636999+702037829+702969821+704111132+705180460
3408+706095014+706172214+704387071+701056283+698046964+696704083+696493198
3398+696370542+696486715+697188671+697804112+697836452+698067084+699546333
3388+702068381+704398696+705623020+705714155+704664127+701789313+696936727
3378+692117823+690690289+694342695+701248539+707641031+711221900+712306652
3368+711792928+709931478+707224850+704710552+703318563+703436524+704572992
3358+705815573+706744435+707111211+706398375+704726797+703825059+705432851
3348+708725560+711199172+711539941+710303321+708805741+707972112+707616142
3338+706982817+706054626+705520558+705565790+705673468+705496116+705452672
3328+706313500+707844389+708441722+707495423+706865973+708183892+710580899
3318+712080640+711717889+709958826+708096631+707434021+708472424+710470613
3308+711881455+711399475+709204857+707472025+708474659+712190256+715912484
3298+716301541+712479235+706833931+702912889+702624133+705267720+708469890
3288+709833413+708649403+706389210+705322490+706553894+709321924+711856044
3278+712856518+712190330+710401759+708290377+706762543+706152914+706090841
3268+706373635+706994963+707334614+706470732+704493109+702890087+703044711
3258+704565466+705931150+706679530+707572251+708526971+708309081+706718876
3248+705342312+705646195+707492517+709440929+710044521+709324830+708288961
3238+707282303+706368792+706600243+708910215+711854181+712679836+710506158
3228+706743764+703396136+702090140+703201272+705056239+705547384+704811299
3218+704939023+707136323+710340356+712665231+713246841+712122072+709400615
3208+705718700+702466231+700552172+699862586+700203504+701317393+702058694
3198+701469781+700233162+699428819+698898402+698153376+697620277+697861639
3188+698768295+699855059+700464241+699717276+697131069+693512643+690624639
3178+689839820+691304538+693968914+696105483+696411974+695342721+694617366
3168+694685550+693889851+691005424+687158602+684379692+683621400+684642068
3158+686657918+688504762+689011705+687882764+686022357+684808913+684900197
3148+685490972+685003851+683007226+680867528+679740002+678904585+677345752
3138+675998474+676537906+678508375+679471962+678110228+675836025+674841215
3128+675622607+676966308+677612003+677249922+676352134+675617912+675188318
3118+674359906+672640338+670607572+669129292+668378602+667978293+667544154
3108+666929831+666400905+666399638+666856207+667240569+667383568+667596540
3098+667938277+667972854+667392138+666388684+665154449+663420052+660939883
3088+658237651+656336931+655760388+656166062+656927706+657626309+657837864
3078+657129947+655726110+654547465+654187843+654433751+654915805+655534301
3068+656064494+655885279+654458193+651991511+649513950+648060633+647858393
3058+648519215+649476244+649832513+648674211+646105441+643211401+640970209
3048+640100961+641280575+644072600+646321467+646127423+644094062+642342749
3038+641714491+641149126+639599383+637441503+635689669+634728690+634293805
3028+634058702+633783657+633266505+632542418+631997396+631921835+631806184
3018+630639238+628380312+626354178+625562578+625445138+624940356+624034147
3008+623434243+623231183+622747750+621650292+620482862+619752515+619107863
2998+618003103+616639654+615464623+614353492+613141314+612301426+612300010
2988+612848124+613277867+613138631+612242445+610864838+609848381+609725911
2978+609925507+609423929+608052507+606822408+606948082+608499314+610061874
2968+610027186+608071248+605115098+602426167+600952954+600769865+601026354
2958+600832534+600024502+598847795+597438481+595955022+594772763+594392574
2948+595068039+596296312+597008775+596549486+595087227+593208601+591681624
2938+591043157+590802912+589849981+587943299+585843431+584145882+582972715
2928+582373519+582228358+582116247+581607291+580524737+579139567+578102915
2918+577655586+577058253+575503592+573388634+571920972+571605018+571738665
2908+571344877+570101513+568341259+566608911+565294271+564376214+563545678
2898+562732431+562220942+562105067+561976189+561381240+560365416+559368520
2888+558708331+558248260+557685913+557062610+556595832+556145820+555326089
2878+553985182+552302240+550731409+549926544+550213101+551052579+551438730
2868+550820196+549341953+547459974+545709071+544502333+543802986+543247643
2858+542755380+542658954+543057288+543495936+543514230+542938693+541557994
2848+539322876+536903550+535208126+534330495+533617920+532639728+531503744
2838+530417985+529494824+528811125+528239314+527430389+526235611+524881291
2828+523571234+522316246+521254556+520619033+520287094+519813423+518952559
2818+517796455+516509909+515294788+514433290+513990171+513625258+513019169
2808+512284389+511670960+511121392+510438215+509691437+509118322+508740294
2798+508303137+507500694+506220817+504709451+503350250+502175368+500981485
2788+499933544+499357373+498955463+498086029+496797433+495740140+495142434
2778+494627555+493865799+492835034+491635301+490370626+489068281+487695406
2768+486383226+485465579+485092730+484961244+484575355+483681255+482430403
2758+481187598+480149344+479160570+478009125+476765985+475609472+474514361
2748+473393132+472291426+471207978+470029445+468828892+467905171+467387386
2738+467036892+466459791+465380590+463881072+462532154+462027149+462426265
2728+462923446+462608423+461388309+459951237+458877215+458019779+456884279
2718+455471686+454395913+454002870+453760613+452964765+451728816+450702784
2708+450084921+449492581+448633914+447718168+447259474+447492603+447912174
2698+447648158+446423387+444809112+443515040+442756525+442219290+441419828
2688+440244090+439112279+438381075+437822789+437010957+435940065+434946559
2678+434247360+433795523+433431169+433001948+432401597+431615324+430740078
2668+429900749+429115706+428279842+427317298+426291191+425304950+424381007
2658+423540783+422903472+422502865+422095738+421456116+420787395+420448750
2648+420329000+419899257+418878702+417530939+416332920+415597729+415354317
2638+415371605+415315233+415026701+414627547+414257269+413804426+413073632
2628+412117273+411159498+410281569+409429982+408624707+407940524+407412828
2618+407081858+406943180+406808862+406447378+405866029+405265864+404797185
2608+404498258+404312597+404044520+403473119+402586658+401563494+400576136
2598+399755362+399165965+398636145+397868502+396887925+396065176+395566765
2588+395159787+394673150+394278356+394193294+394343708+394366212+393889150
2578+392910734+391873784+391187515+390778152+390321769+389770861+389383667
2568+389307175+389358927+389220585+388722733+387943875+387108794+386396853
2558+385815168+385252635+384646471+384084646+383771374+383854089+384183792
2548+384339906+384079393+383624463+383289581+383057570+382760804+382385235
2538+381960708+381430665+380816789+380286931+379952533+379768326+379623762
2528+379402929+379024454+378540723+378135496+377919023+377767156+377456790
2518+376935167+376378185+376003771+375880966+375886481+375800897+375480471
2508+374991003+374572214+374408610+374418558+374326119+373927823+373213683
2498+372343988+371659768+371502573+371783467+371958658+371642368+370993022
2488+370389392+370052982+370046611+370328064+370707917+370900918+370694951
2478+370095979+369315891+368589680+368021819+367611003+367318857+367092510
2468+366905769+366780691+366750325+366831475+366969965+366973431+366659860
2458+366124787+365656965+365360572+365077479+364701724+364384875+364362073
2448+364662789+365044431+365187691+364948191+364453134+363972346+363658962
2438+363442340+363227952+363084804+363085400+363081302+362846720+362397081
2428+361984105+361765135+361628618+361440350+361327940+361520903+361967077
2418+362319024+362295626+361917784+361422391+361041718+360837391+360720137
2408+360628145+360603517+360645806+360618681+360405040+360085135+359856888
2398+359786469+359732220+359580689+359443129+359478152+359625809+359693620
2388+359599616+359271217+358373951+356435971+353262937+349050122+344143027
2378+338860250+333447180+328016077+322616084+317447171+312801893+308737852
2368+305123469+302064820+299886484+298632576+298030921+298048638+299166774
2358+302020389+306911892+313828075+322767914+333221541+343224076+350105850
2348+352360008+350634478+347385921+344880974+343073103+340547068+336886167
2338+332914566+329395323+326324453+323424712+320898752+319274007+318595115
2328+318303565+317940440+317598889+317791442+319037265+321362512+324162846
2318+326677703+328522647+329814298+331005835+332513326+334313485+336039424
2308+337493821+338792849+340051265+341281066+342535570+343823681+344974345
2298+345860694+346603374+347318072+347884779+348202969+348452677+348881526
2288+349499352+350118071+350553925+350723676+350660112+350487008+350335737
2278+350266995+350247769+350177052+349995043+349799769+349749172+349816834
2268+349795894+349603192+349430199+349508033+349833339+350206300+350467745
2258+350619351+350731947+350845177+351004011+351256477+351516692+351614198
2248+351576492+351605629+351730893+351818786+351899265+352107877+352402967
2238+352680769+353013974+353524457+354173841+354792076+355221111+355479389
2228+355796312+356338987+357011620+357712197+358561772+359648500+360789886
2218+361780672+362697462+363802036+365246709+366951113+368722172+370456346
2208+372191824+373976967+375813453+377768646+379963823+382358222+384717934
2198+386882782+388925011+391000550+393150345+395289038+397358727+399417946
2188+401493336+403464811+405254649+406932450+408476827+409717769+410635192
2178+411430705+412252746+413042260+413601253+413732404+413414140+412851047
2168+412294699+411824158+411285470+410437907+409168909+407507763+405498284
2158+403195802+400669805+397945441+395087766+392216006+389323904+386319839
2148+383138757+379693883+376336194+374374183+375057398+378041492+381866034
2138+385692699+389608189+393728826+397913063+401967789+405789164+409529165
2128+413417605+417363386+421153985+424873829+428749899+432894866+437325347
2118+441935602+446563815+451178243+455750047+460096025+464103172+467861541
2108+471503179+475167545+479073608+483531326+488965782+495783398+503989387
2098+512908622+521338351+528176235+533046557+536181102+537823470+537981485
2088+536457227+532976585+527477186+520053146+510649435+499344407+486761999
2078+473834947+461496807+450501251+441072874+433006530+426198752+420584223
2068+415839203+411734029+408346421+405642401+403388505+401422991+399603346
2058+397809447+396120095+394621397+393271399+392152257+391397170+390868058
2048+390318304+389681663+389029336+388493182+388155766+387960493+388018430
2038+388769679+390501617+393164876+396909162+402300920+409879994+419733344
2028+431315987+443543952+455202976+465246570+472967785+478389611+482153235
2018+484606577+485511966+484784078+482830525+480045765+476383411+471501130
2008+465318666+458316470+451045900+443627226+436072483+428693675+421815552
1998+415477681+409716353+404744613+400551135+396665639+392703128+388903178
1988+385757901+383393085+381597807+380134058+378797362+377449934+376128551
1978+374937499+373865824+372856111+371960260+371326227+371071563+371120633
1968+371133599+370758589+370029882+369332062+368936932+368775900+368661068
1958+368508791+368286915+367955871+367568640+367274966+367150447+367137928
1948+367233832+367625683+368417954+369179189+369136267+368124914+366884680
1938+366117782+365836329+365732154+365669224+365666653+365680215+365603313
1928+365536321+365899222+366905545+368031022+368608235+368801161+369108919
1918+369220360+368442247+367039714+366054517+366064614+366753715+367355221
1908+367312933+366669473+365882977+365316047+365024348+364986046+365313514
1898+366087379+367015906+367549973+367618865+367853260+368576975+369095729
1888+368688043+367765478+367174405+367070415+367099701+367059573+366974064
1878+366904874+366941351+367244637+368103713+369883194+372536952+374964996
1868+375482074+373736052+371236545+369523497+368965100+369106236+369375133
1858+369442050+369319468+369248974+369412354+369842917+370577437+371767148
1848+373696557+376420287+378888049+379135411+376822124+374037140+372519701
1838+372321633+372733678+373429933+374826170+377363345+380355599+382155870
1828+382234933+381664165+380977374+379733638+378112508+377077793+377050445
1818+377559289+378056061+378605479+379650886+381209757+382564040+383011108
1808+382720676+382488554+383028024+384640696+386977978+388972106+389666461
1798+389425583+389758565+391850349+395279090+397714548+397084986+394572365
1788+392923216+393170614+394519979+396064766+397651357+399099831+399942252
1778+400451803+401891297+405274992+410004438+413540186+413791795+411738127
1768+409367499+407686792+407540327+409525625+412670417+414967086+415950234
1758+416627897+417343378+418226710+420380343+424635149+429763077+433132540
1748+433765865+433082837+432713192+433461647+435436289+437925549+439872135
1738+441750128+445656713+452164186+457633144+458010128+455210651+452699296
1728+451593120+452181548+454423783+457606243+461506941+467323264+476071704
1718+485913914+492013664+492272389+490011302+488786530+490036489+494065096
1708+500561131+508123214+514744811+520514112+527928129+537845043+546662077
1698+551140175+552576576+552316994+551427440+552383017+556605780+563233524
1688+571143344+580922102+592550797+601437542+603670388+603141723+604588892
1678+609458132+617107848+625374495+632287121+638522753+645387314+651422793
1668+654369815+655887589+659318603+665118681+670698707+673985381+676356531
1658+680588162+688327932+699480012+710268298+713830463+712534527+714016682
1648+718673883+721458606+718742290+713843727+711188963+711968044+715832974
1638+721705632+726431761+725120848+717931539+710907361+707609808+707526348
1628+708374731+708513483+707968983+706630200+703832734+700825130+700129061
1618+701878510+702552895+699116143+693784185+689988482+688470335+688061159
1608+687346461+685919449+684375891+683390396+683071237+682999775+682754239
1598+682327924+681903025+681470301+680968946+680495164+680142919+679875699
1588+679582994+679173892+678724476+678421115+678377448+678978358+681112020
1578+684963090+688233295+687915552+685785093+685992550+689057608+691795608
1568+691695829+690370087+690352724+692767989+698786552+709667611+722213916
1558+725730849+718598918+710461075+705534120+703773120+704306145+705977574
1548+708441573+712791389+720133534+730224111+741525897+750155557+750113380
1538+743279892+738540051+739282545+743070200+746169089+748299174+751956424
1528+757830720+764058678+769190481+774046644+779166897+782873775+784036846
1518+783609562+782110939+779856334+778592963+780208579+785247757+793237981
1508+801960713+805321681+800076387+793463471+791250373+793001164+796187909
1498+798311810+797889742+795905115+795408902+798387893+803858229+808222576
1488+808540096+805819980+802898815+801303245+801072165+801820993+803568207
1478+806667767+811179956+816448276+820659042+821184615+817942056+814725802
1468+814630866+817436230+820549874+821829192+822408194+825110649+831171985
1458+838309206+840583707+835816443+829230205+825109606+824296768+825550750
1448+826379236+825215197+823147557+822072417+822425556+823795786+826360160
1438+830247072+833669666+834167294+832619266+831687945+831882659+831891005
1428+831473334+832106212+834466780+837554343+840644960+844009355+846675446
1418+846004415+841768835+836864310+833429570+831722968+831070492+830824956
1408+830945004+831546063+832078268+831973273+831938994+833124197+835399443
1398+837633406+839205876+840106570+840183175+839585394+839088287+838962725
1388+838218667+835901691+833375321+833618174+837816570+844112413+849830968
1378+854168936+857912029+861409289+864271436+866622764+869077746+871452846
1368+872941111+873730178+875081331+877312165+878811682+877854951+874792352
1358+871376689+868915447+867707293+867342977+867077768+866163736+864365477
1348+862354172+861160177+861199597+862201635+863803242+865577431+866753319
1338+866829401+866322011+866057622+866106655+866014030+865629966+865219747
1328+865034123+865218480+865977442+867474053+869580517+871913439+874123035
1318+876034933+877580502+878764364+879600302+880104115+880513068+881225680
1308+882249850+883151364+883848252+884670181+885421766+885535405+885178466
1298+884904241+884481279+883306137+881516895+879715208+878030291+876016080
1288+873178152+869467026+865419528+861726362+858654075+856054231+853807153
1278+851922677+850241486+848571025+847280305+847151166+848232566+849421121
1268+849658385+848997340+848223251+848048135+848715663+849812339+850584192
1258+850757818+850742840+850946646+851399564+852245785+854118860+857414922
1248+861254069+863941025+864776889+864729197+865135169+866514862+868591817
1238+870794632+872672699+874045462+874969257+875941562+877864191+881002500
1228+884325239+886767405+888441368+889724039+890470780+891010437+892437374
1218+895172394+898382463+901159361+903359866+905250750+907100128+909036393
1208+910927277+912544309+913941290+915584478+918033797+921324271+924657219
1198+927012348+928165806+928906585+930438071+933508643+937484157+940525146
1188+941708411+942340693+943991630+946458014+948694808+950427492+952001452
1178+953863945+956550752+960158968+963926653+966877773+968502033+968606060
1168+967441797+966311141+966934705+969781203+973562673+976802623+979349337
1158+981793514+984328007+986808623+988924401+989911834+989296617+988049714
1148+987886669+989446770+991648690+992944030+993153126+993592556+995429117
1138+998702675+1002633031+1005805693+1006821144+1006015013+1005608445
1130+1007463113+1011282066+1014932087+1016359248+1015689111+1015148486
1121+1016457164+1019320353+1022558590+1024945091+1025469248+1024806488
1113+1025249793+1027655594+1030072945+1030545610+1029634931+1029132458
1104+1029853118+1031563446+1034080874+1037280436+1040333050+1042056344
1095+1041928844+1040252124+1038159073+1037585958+1039789220+1043713392
1087+1047121305+1049183430+1050607536+1052047365+1053181672+1053136067
1078+1052118381+1051001883+1049437237+1046848123+1044534948+1044799113
1070+1048054042+1052299682+1055995606+1059548307+1063004284+1065005305
1061+1065122968+1064682420+1064713643+1065156203+1066219271+1068306584
1053+1070627658+1072103703+1073041656+1073741823+1072915497+1069757143
1044+1066134768+1064882277+1066875697+1070432571+1072758936+1072043641
1035+1069008689+1066293416+1065818814+1067371686+1069286565+1070086958
1027+1069661612+1068769934+1068120513+1067993088+1068158592+1068005533
1018+1067129802+1065893704+1065184594+1065515974+1066757810+1068540495
1010+1070217066+1070929454+1070419754+1068682003+1064843080+1058687480
1001+1052722867+1050023393+1050808287+1052809308+1053951737+1053432349
993+1051287286+1048092642+1044667068+1041967146+1041034558+1041974672
984+1043222693+1042950555+1041177110+1039582508+1039275868+1039403666
975+1037792670+1033110878+1026559440+1020973228+1018053554+1016656796
967+1014060082+1009218152+1004098792+1000716588+997994832+993314606+986594534
957+980595122+977510913+977134823+977699070+977383861+975452215+972531051
947+969653405+967303865+965841308+965961877+967786292+970077037+971136529
937+970201482+967719077+964723768+962098065+960143767+958880917+958761913
927+960343847+962940934+964571677+964121740+962695324+961736879+960978364
917+959559847+958066589+957824183+958859531+959893760+959814101+958467344
907+956386291+953936153+951164545+948404115+946395568+945811499+946928443
897+949280815+951365221+951678866+950316013+948535862+947195812+946577912
887+946870543+947746348+948148296+947386205+945934677+944523909+943221118
877+941694625+939897559+938350275+937864793+938849990+940423280+940736701
867+939360883+938489772+940092497+942957326+944283963+943373060+941831290
857+940947959+940535206+939758360+938064128+935540291+933002073+931610829
847+931953163+933455661+935074258+936356408+937432144+938492827+939440915
837+939714543+939000963+938075901+937760319+937732524+937921426+939508800
827+942793983+946196382+948656208+950479579+951439366+950856042+949449821
817+948663735+948865603+949544011+950142536+950397237+950814834+952181338
807+953807759+953698665+950911260+946554216+942792120+941238056+942038673
797+944413176+947795977+951646674+954276847+953983173+951810911+950737932
787+951775813+952819730+951849138+950066230+950205131+952270684+953596278
777+953196342+953028305+954357326+955858632+956053496+955197140+954127961
767+952933593+951105900+948272741+945152912+943224993+942888546+943419633
757+944644181+946763089+948823724+949491849+948866497+947911703+947106764
747+946922184+948381760+951820747+955641115+957120662+954693401+949730752
737+946162328+947647911+954175876+961475396+964511616+961823766+956017802
727+950858129+948394353+948412312+949678664+950946581+951714112+952824127
717+955487460+959529220+963615318+966772554+968292713+966867341+962525200
707+958304523+957019989+957514190+955830837+949812796+941515932+934744965
697+930967891+928563581+926002635+924218981+924681139+926460694+926575675
687+922918500+916291054+909522620+904765044+901742610+899077712+897119166
677+897683711+900852721+903645790+902184127+894100011+880027362+867092299
667+866343994+876119659+884910128+887185746+884829947+881160030+877816202
657+876864984+879509987+882301118+880778425+876819007+876002071+879128457
647+881652293+880722537+878651022+878082229+878118519+876960292+875417331
637+875220828+875532386+873791879+869613155+865321836+863146816+863868072
627+867338282+872101223+874530199+871653298+866276108+863789605+864190957
617+862961193+857888780+850564594+843583413+839952021+841385143+845053943
607+846992965+849332743+858039231+873062351+883520002+878626059
##END=
