##TITLE=<SNM>
##JCAMP-DX=4.24
##DATA TYPE=INFRARED SPECTRUM
##DATE=2/5/2025
##SAMPLING PROCEDURE=Instrument type and / or accessory
##ORIGIN=Admin
##XUNITS=1/CM
##YUNITS=ABSORBANCE
##RESOLUTION=4
##FIRSTX=4497.3318
##LASTX=599.83466
##DELTAX=-1.4281778
##MAXY=1.8485453
##MINY=0.37253112
##XFACTOR=1
##YFACTOR=1.721592e-09
##NPOINTS=2730
##FIRSTY=0.41180027
##XYDATA=(X++(Y..Y))
4497+239197365+239642290+240019685+239865808+238557779+236440724+235076555
4487+235554942+237200188+238647138+239615873+240695745+241764607+241777244
4477+240287762+238381831+237506245+237842890+238533197+239116817+239789398
4467+240401875+240317588+239493918+238832970+239050603+239788879+240263232
4457+240371010+240537731+240749998+240552324+240005126+239839911+240434852
4447+241309659+241865236+242050895+242025673+241617551+240527864+238998116
4437+237863421+237656850+237976080+238152357+238277827+238923160+239976096
4427+240555821+240142523+239123014+238138837+237439442+236982019+236766619
4417+236893300+237385917+237996524+238234411+237778909+236833145+235902112
4407+235368417+235455975+236297043+237687802+238917517+239162881+238298184
4397+237205797+237024967+238026697+239399625+240275713+240548551+240437743
4387+239898405+238802918+237194545+235294534+233646328+232917157+233084658
4377+233323998+233096793+232757447+232842305+233439583+234342503+235147114
4367+235216565+234204033+232569641+231102230+230127470+229546793+229304682
4357+229446147+230053552+231225812+232643662+233425388+233099978+232328569
4347+231969022+231960314+231732122+231118762+230382131+229818626+229657305
4337+229976467+230476163+230581950+230075070+229434999+229307764+229880530
4327+230906495+231936235+232372539+231883765+230900038+230246932+230362500
4317+231030718+231615810+231513277+230731707+230038076+230223978+231257284
4307+232329365+232739149+232551845+232280930+232196989+232239401+232296682
4297+232177826+231696721+231057394+230631044+230360821+230066362+230011019
4287+230364993+230531506+229795256+228455011+227684398+228234989+229624224
4277+230723900+230946518+230619377+230405725+230698591+231388223+231973280
4267+232015709+231501714+230729855+230092467+229925746+230196575+230440053
4257+230353498+230194740+230210839+230157227+229905890+230029438+231064682
4247+232533323+233432538+233486842+233206059+232982679+232842478+232784469
4237+232694608+232218472+231301738+230552176+230555361+231147463+231845803
4227+232663605+233875593+235172128+235771709+235401134+234580078+233903187
4217+233512705+233247865+232841682+232081612+231250913+231146598+232106401
4207+233349688+233937064+234004473+234267079+234764301+234911063+234385538
4197+233357807+232202598+231388344+231289257+231846478+232644216+233326803
4187+233748445+233884664+233839344+233776055+233676310+233374806+232970267
4177+232906338+233378182+233917572+233935922+233517223+233261921+233451684
4167+233796569+233924531+233704890+233170849+232556173+232322718+232768474
4157+233609438+234184299+234139342+233750210+233484990+233496432+233717198
4147+234094974+234414620+234301390+233773563+233311604+233169793+233130272
4137+232996441+232811042+232621903+232533894+232911739+234040480+235502697
4127+236301457+235897680+234777353+233687753+232840228+232208622+231960972
4117+232162904+232534794+232768214+232795912+232726097+232693189+232715260
4107+232683339+232539053+232393901+232487414+232995368+233687354+233986089
4097+233725629+233471505+233686679+234034196+233911738+233287680+232656801
4087+232407213+232536508+232959327+233700632+234564844+235031875+234829251
4077+234289324+233897388+233768837+233740741+233736050+233751941+233526207
4067+232688965+231523473+230988687+231570507+232676778+233418845+233446629
4057+232967463+232441332+232225933+232343457+232730702+233451476+234375930
4047+235138407+235645686+236079082+236351053+236165117+235585963+234964380
4037+234377610+233668607+233016920+232967549+233744100+234866539+235580908
4027+235500551+234901265+234526553+234853106+235491549+235749690+235649338
4017+235715847+235960017+235906024+235500309+235178360+235102071+235048303
4007+235033035+235418722+236371480+237706999+239149639+240310837+240684822
3997+240130423+239099333+238108336+237299033+236628391+236145226+235993202
3987+236269675+236825822+237267147+237328514+237176316+237270626+237987765
3977+239268443+240520022+241024410+240569445+239596849+238726214+238248138
3967+238156010+238508910+239447940+240796270+241989424+242588503+242603909
3957+242271401+241775530+241205828+240751711+240892345+241937924+243274898
3947+243891391+243834975+244027091+244601450+244657226+243832049+242937941
3937+242854710+243731144+245140304+246393700+246901568+246747068+246670242
3927+247159760+247870961+248142431+247967400+248062731+248881295+249974046
3917+250389837+249530368+247724771+246038342+245417036+245935705+247107290
3907+248964491+251961062+255578920+258167854+258898720+258361891+256882657
3897+254390821+251763094+250558826+251383916+252869729+253083068+252405086
3887+252759216+254533082+256241530+257116614+257717251+257731722+256293636
3878+254291214+253553025+254670963+257081802+260022215+262314491+262553936
3868+261255635+260526413+261056871+261468490+260495894+258775501+257942033
3858+259328515+263798313+270840270+275908437+273874491+267434764+261718425
3848+258825858+258861190+261094851+264379960+267709332+270764223+273312441
3838+274289763+272973545+270436891+268054010+266050289+264290116+263175900
3828+263070667+263910869+266054738+270107828+274742166+276634318+275385457
3818+273873262+272876258+270825036+267702720+265389826+265446537+268370055
3808+272912091+276378186+277979202+279457398+281345811+282082217+281538533
3798+281286278+281470397+281164185+280568568+280814435+282447356+285290742
3788+289099194+293605241+298160883+302216172+306187017+310805048+315789552
3778+320430918+325160951+331199030+339433241+350127402+362421436+374287234
3768+384690467+394387830+403539346+411222066+417227359+421708150+424044880
3758+424390856+424953495+428171316+434886322+443524465+450499654+454708455
3748+459608342+468241743+479258302+487275572+491121606+495495034+503581791
3738+515060932+527311620+537049248+542254708+543848039+545137563+548745710
3728+554502176+560144736+563999564+566667729+569297568+571232374+570971879
3718+568819822+567085545+567976676+571590225+575319306+576193126+574276393
3708+571529948+569231683+567946036+567766453+567932637+567610031+567281332
3698+568169693+570519718+573394645+576318700+580441570+586930737+593908695
3688+597043424+595183124+591216849+587892116+586428651+587342529+590710401
3678+595121290+597136003+594976086+592591889+593522177+595400896+593598138
3668+588232794+583075598+579652989+576873618+573639490+570477653+568669078
3658+568517746+569126952+569783451+570902289+572995213+575446749+576002256
3648+572580478+566498463+561022953+558099833+557181732+556479221+555232731
3638+554349113+554967805+557225044+560586407+564742237+568904749+570233050
3628+566536547+560877923+557592693+558329064+562609602+568125169+571612798
3618+572250047+572534223+574224045+576779481+579565776+582838300+586175704
3608+588140700+588197549+587321617+586780271+587346545+589246314+592385751
3598+596412199+600518347+603717403+605796858+607533489+609414354+610700346
3588+610411393+609376408+609742568+611952133+614279342+615100433+614604510
3578+614562064+616669286+620522764+623784832+625508721+627414583+630085241
3568+630550766+626966577+622766535+621368298+621819005+621659606+620798146
3558+621042853+622973435+625099491+625624358+624169342+622044670+620971947
3548+621368852+621886656+621135016+619545044+618503897+618544750+619182276
3538+619835521+620204866+619986057+618918112+617305566+616175648+616378325
3528+617515859+618181567+617221920+614592185+611274930+608582391+607429900
3518+608031004+609984367+612612232+615172170+616651214+615875339+612448610
3508+607404488+602510971+599165326+598003141+598858923+600505952+600777941
3498+598432382+595375414+594849786+597247416+599966752+601325173+602162468
3488+603353112+604251202+603752648+601270333+597192852+593120633+590423525
3478+588976471+588511639+589754285+592787849+595449435+595095808+591739846
3468+587975347+585935014+585381272+584883410+584104904+583844410+584242076
3458+584458255+583953953+582933579+581796875+581001335+581085812+582021779
3448+582840308+582581960+581074803+578599239+575832298+573785698+572623271
3438+571253666+569041159+566846136+565751498+566075523+567700844+570083241
3428+571893062+571598188+568883179+565262603+562805873+562193344+562534854
3418+562832982+562609187+561577837+560137777+559777607+561559661+564454495
3408+566015039+564664095+561128135+557783113+556669745+557984370+560186386
3398+561427232+561031644+559528018+557418511+554781574+552119122+550465722
3388+550363380+551440361+552714029+553237234+553106952+553407296+554355241
3378+554539949+553088117+551136139+550135326+550207548+550566264+550575889
3368+550308955+550187744+550170121+549803580+548995715+547972744+546837287
3358+545903536+545852954+546931562+548384120+549030336+548377507+547173949
3348+546639181+546979028+547076835+546033991+544543072+544036693+544727987
3338+545310464+544818869+543921818+543643078+543745627+543313305+542300790
3328+541629438+541905963+542512779+542167565+540494639+538594905+537811656
3318+538615332+540768844+543526852+545617664+546226177+545867599+545321647
3308+544555536+543660804+543570614+544668264+545745695+545480977+544224032
3298+543255417+542932569+542744953+542616783+542850550+543134345+542757313
3288+541745594+540938629+540979690+541774123+542806407+543697676+544491555
3278+545354469+546175352+546753225+546952370+546435950+544951609+543007006
3268+541467858+540701573+540781204+541762420+543040416+543368804+542175666
3258+540190348+538590785+538087799+538617167+539412465+539633767+539216574
3248+538837535+538876900+538805821+538018209+536871015+536224903+536366333
3238+537055480+538060067+538927309+538885278+537686255+536139283+535336334
3228+535410529+535348002+534302284+532823032+532080152+532169269+532094936
3218+531238392+530035561+529135913+528515870+527833821+527324118+527569310
3208+528354152+528552743+527349738+525049430+522752272+521555777+521701743
3198+522338403+522391271+521429061+519565646+517342960+515768429+515535666
3188+516214496+516770072+516652012+515982841+515071007+514132271+513241694
3178+512347828+511371908+510305763+509212372+508149413+507151266+506338692
3168+505830028+505391196+504509933+502992458+501181841+499608106+498640253
3158+498178814+497571824+496394682+495285434+495207846+495981298+496408427
3148+495739880+494292930+492786466+491660495+490950471+490371455+489581905
3138+488634963+488049855+488198902+488693336+488704865+487893329+486647498
3128+485475307+484531101+483668360+482668585+481504254+480482495+479978055
3118+480070426+480548034+481066911+481165029+480428277+478897196+477073042
3108+475470675+474411005+474065652+474309217+474585187+474316245+473464964
3098+472434687+471520360+470705847+469936135+469275412+468737770+468268436
3088+467947977+467934821+468184998+468519133+468883216+469229192+469293242
3078+468774919+467632988+466143661+464810409+464116207+464130887+464405230
3068+464234614+463060796+461041305+459254646+458693288+459088669+459466289
3058+459581684+459835254+460067151+459626069+458571557+457723219+457414912
3048+457030956+456007812+454718495+453982574+454067813+454565882+454977536
3038+455002325+454470361+453442300+452263254+451221484+450303071+449409828
3028+448592061+447993726+447670116+447397366+446773931+445750025+444823926
3018+444433253+444454373+444544701+444545601+444261598+443354541+441837517
3008+440307891+439407342+439274775+439570100+439707444+439094950+437579345
2998+435757060+434529994+434222725+434364778+434368587+434086004+433574709
2988+432762515+431666492+430605057+429865500+429380448+428951034+428583454
2978+428416023+428432053+428434130+428273797+427924393+427359988+426606894
2968+425860344+425286003+424830691+424453348+424260297+424183056+423874991
2958+423084090+421859516+420475682+419388661+418974134+419029425+418826160
2948+417910205+416611229+415531790+414797046+414106098+413310974+412567713
2938+412038033+411794573+411878808+412161841+412266191+411831203+410861480
2928+409747765+408874707+408216685+407528888+406872943+406466102+406118603
2918+405448428+404524856+403760926+403354293+403144450+402851065+402359469
2908+401822693+401428523+401160066+400952508+400889358+401045087+401270302
2898+401224185+400614703+399474676+398169814+397096849+396458077+396247507
2888+396268488+396241206+396004773+395553893+394962033+394378586+393909945
2878+393426936+392747518+392031885+391675661+391732683+391771252+391468934
2868+391025256+390698218+390304741+389670088+389159209+389111327+389094466
2858+388390050+387008432+385684909+384992681+384841106+384756802+384401825
2848+383792204+383086750+382320846+381506021+380840174+380527262+380470206
2838+380422947+380339924+380297720+380226537+379988166+379561314+378961560
2828+378145524+377154751+376262581+375823265+375870351+375968019+375683047
2818+375105174+374624554+374326183+373929763+373232203+372323415+371414765
2808+370667938+370196423+370041872+370047965+369900615+369417675+368685216
2798+367894765+367224175+366805216+366593469+366364377+365955043+365363010
2788+364626015+363822270+363109995+362598665+362266815+362018231+361726299
2778+361332234+360945231+360672411+360390590+359908204+359237406+358493279
2768+357699297+356896590+356256121+355846857+355434892+354768699+353985934
2758+353474674+353359625+353369700+353209955+352847846+352432696+352098630
2748+351852053+351593255+351262894+350908955+350536666+350000963+349180668
2738+348200975+347351597+346782796+346341887+345769242+345070435+344557167
2728+344429862+344494051+344422765+344123840+343681581+343103258+342347775
2718+341534993+340895563+340455693+339984767+339397235+338962696+338890441
2708+338933095+338657366+337937163+337006910+336207007+335778112+335728845
2698+335810241+335685810+335189368+334465184+333822603+333394469+333036341
2688+332619771+332239243+332033797+331969816+331870244+331580805+331104513
2678+330590691+330168166+329854700+329616121+329361443+328943315+328370324
2668+327906184+327750040+327764235+327689521+327465517+327187020+326899762
2658+326585396+326246829+325896214+325537082+325232029+325082671+325064044
2648+324988153+324694803+324190917+323591613+323008962+322499572+322069222
2638+321711648+321416324+321142708+320843748+320531841+320273216+320116967
2628+320028509+319859381+319443192+318815637+318264008+318045890+318116276
2618+318211313+318144597+317937835+317710751+317531548+317367822+317129243
2608+316767168+316361989+316062025+315885523+315663424+315257033+314756090
2598+314357247+314104265+313851180+313472279+313025588+312665175+312433520
2588+312222466+311935935+311595776+311272824+311015341+310848707+310741933
2578+310602926+310394538+310179536+309977345+309717162+309409339+309188002
2568+309105983+309055712+308929308+308701254+308384845+308043058+307778859
2558+307631405+307551255+307480661+307365890+307151823+306866366+306628411
2548+306505365+306455232+306423103+306378233+306266543+306055247+305824250
2538+305692964+305630091+305457397+305102870+304716490+304449140+304281917
2528+304175593+304186845+304308264+304391322+304345552+304245322+304168704
2518+304092640+304015121+304040672+304239263+304483208+304536145+304309026
2508+303959242+303731188+303730253+303827921+303763663+303376799+302754610
2498+302156934+301826018+301834120+302035653+302201977+302263119+302348046
2488+302550930+302769047+302835383+302720438+302519874+302277937+301922752
2478+301430672+300969925+300746198+300741248+300741975+300624087+300492455
2468+300529847+300776735+301074171+301207846+301098372+300826521+300502738
2458+300212157+300051096+300054835+300107599+300087414+300051304+300114316
2448+300221089+300187991+299917352+299492854+299109002+298906083+298840267
2438+298777221+298711993+298775905+299009430+299255487+299323657+299179007
2428+298933331+298726916+298654625+298721757+298831854+298909788+299022828
2418+299243196+299463945+299544994+299542709+299589310+299652841+299619985
2408+299534885+299574042+299778657+299956579+299953844+299920295+300120928
2398+300525761+300797335+300703233+300376230+300115181+300046907+300050958
2388+299908073+299378602+298186227+296087140+292944068+288658752+283166347
2378+276636274+269535460+262308848+255080851+247829432+240758445+234282417
2368+228696065+224094549+220533002+218016879+216537056+216387576+218201829
2358+222465973+229209853+238345201+249946937+263314889+275763389+283625796
2348+284732898+279995387+273205217+268269912+266004606+264912945+263906870
2338+262824609+261751091+260760647+259896781+259264915+259150369+259804981
2328+261089589+262489383+263525597+264216718+265145743+266916856+269540238
2318+272470542+275158113+277432351+279438183+281355003+283224754+285029832
2308+286835377+288704557+290489277+291904582+292878252+293639793+294369067
2298+294969236+295321548+295548910+295843022+296210567+296574408+296970828
2288+297445527+297856938+297976384+297750649+297336192+296907920+296531165
2278+296191906+295868123+295560404+295284814+295056760+294894176+294822648
2268+294837085+294865509+294836843+294795089+294861043+295045889+295197290
2258+295198329+295138606+295190608+295362436+295465021+295325633+294984366
2248+294665499+294572263+294722729+294966917+295128358+295119841+294965636
2238+294763306+294634201+294673289+294886594+295154463+295323210+295370884
2228+295405333+295468137+295467652+295377982+295364687+295582631+295921059
2218+296083540+295925145+295614933+295420774+295412119+295456573+295441305
2208+295375108+295307007+295260129+295236759+295219137+295197117+295221179
2198+295361017+295590906+295772359+295771251+295586128+295367976+295289661
2188+295376424+295511795+295617565+295733652+295894574+296034896+296081532
2178+296076823+296140181+296302523+296423353+296329562+296037458+295758233
2168+295663923+295737702+295886749+296078416+296297814+296471927+296530230
2158+296503260+296497063+296559001+296617443+296594073+296527391+296506653
2148+296533139+296555470+296586768+296673565+296799588+296905981+296963003
2138+296980626+296996032+297064272+297235234+297524950+297875080+298147104
2128+298229296+298169193+298138102+298260871+298518458+298796194+298997900
2118+299120219+299220657+299329127+299429669+299517020+299630649+299832494
2108+300152330+300538156+300875823+301091447+301233189+301420078+301699302
2098+301989468+302191521+302320868+302489026+302775903+303152969+303505557
2088+303709688+303719901+303600110+303460445+303364889+303309979+303290417
2078+303358588+303592839+304010759+304513260+304910753+305064197+305058346
2068+305148778+305459959+305850008+306125529+306215338+306110261+305871439
2058+305707574+305808912+306112338+306397379+306549438+306615843+306697758
2048+306858127+307064819+307231211+307344044+307463939+307579680+307609143
2038+307577533+307636910+307854750+308107870+308248227+308285342+308333778
2028+308451873+308625605+308847946+309102313+309331094+309542218+309851356
2018+310273915+310589978+310584715+310315427+310006427+309814587+309780000
2008+309868459+310001338+310132900+310306079+310576371+310909849+311198145
1998+311382783+311579712+312014735+312713126+313324063+313452129+313114151
1988+312662474+312376290+312294514+312306701+312299672+312291363+312414271
1978+312709075+313028531+313203683+313214069+313204652+313416018+313973083
1968+314634222+314949453+314815605+314616911+314703154+315030953+315378764
1958+315631191+315753891+315713903+315557516+315459225+315595219+315978344
1948+316495387+317141707+318037685+319022052+319492632+319091019+318292017
1938+317824103+317848026+318025394+318105924+318169802+318372374+318663059
1928+318908527+319260874+320058941+321247993+322347963+323156521+323834035
1918+324202099+323817867+322862235+322105056+322021964+322443484+322873833
1908+322984831+322881762+322866701+323001346+323117502+323191246+323422485
1898+323949533+324668109+325359403+325989589+326765603+327697864+328317630
1888+328236684+327749070+327408080+327403544+327626163+327929000+328173914
1878+328302327+328419937+328728556+329516099+331146717+333617711+335947171
1868+336629982+335392460+333599223+332565761+332512998+332937773+333321694
1858+333469148+333485559+333586620+333905141+334489384+335378749+336596295
1848+338213549+340293524+342315646+343002785+341876503+340216941+339395400
1838+339585577+340131390+340577735+341283224+342850242+345008531+346581054
1828+347035916+347034842+346943129+346371177+345347098+344614397+344617582
1818+345013863+345279932+345519826+346346665+347906447+349415023+350027656
1808+349889342+349882868+350764443+352721061+355181945+357002152+357453275
1798+357099717+357253957+358786145+361379874+363334310+363022021+361204202
1788+360002237+360329690+361552810+362793309+363855784+364760798+365364499
1778+365935932+367328560+370173054+373980207+376917211+377419885+376031238
1768+374080611+372401349+371887007+373152780+375379552+376925866+377528355
1758+378038542+378578331+379149314+380736344+384032306+387816263+389796804
1748+389405993+388109302+387272908+387358078+388302907+389661294+390787092
1738+391910986+394369896+398555570+401859323+401325662+398365496+395608630
1728+393959282+393598107+394362418+395638232+397351354+400584963+406205019
1718+412759760+416350943+415115601+411527015+408453775+407185855+408047592
1708+410735907+414151176+417034827+419675364+423573365+428715225+432575038
1698+433764367+433303170+431342017+428371776+426594742+427300023+429912413
1688+433710565+439067183+445609633+449662152+448530122+445363957+443781221
1678+444883233+448026548+451396532+453697256+455748633+458498782+460700903
1668+460691694+459751365+460276197+462515710+464573908+465036455+465025791
1658+466680749+471392536+479446437+488246610+491469694+489482125+488965879
1648+491537033+493889447+492739380+489742273+488115255+488944759+492188131
1638+497488420+503181043+505772798+504227349+502117461+502223992+504399904
1628+507070874+509240242+511185123+513021533+514200476+515153233+517352550
1618+521024298+523903240+523866818+522469343+522189841+523518488+525612346
1608+527589633+529216027+530752232+532371875+533872350+535038448+536087904
1598+537463429+539309949+541325528+543047167+544307401+545448190+546930696
1588+548757343+550525722+551960069+553051072+553927420+555097118+557438037
1578+561179894+564630616+565351962+564247976+564331864+566348932+568462282
1568+569074569+569098319+570018671+572456567+577268861+585618709+595616036
1558+599669350+596022011+591456847+589279273+589490120+591426103+594321180
1548+597940337+602879832+609498415+617168671+625139930+632253536+635194452
1538+633289559+631316601+632402756+635741546+638888531+641359628+644993327
1528+650858747+658099901+665420823+672661699+679637303+684874684+687945224
1518+690530019+693445800+696103578+698624462+702164751+707504612+714476546
1508+721642501+725340804+723395888+719822570+718423157+719705410+722939642
1498+726911249+730018557+731637197+733141930+736081115+740285935+743915686
1488+745279993+744587072+743353220+743092795+744508896+747211614+750415794
1478+753843700+757756381+762515704+767705861+771152532+771091182+769375117
1468+768872339+770161517+771869827+772912082+774115190+777115171+782586180
1458+788799134+791240942+788424042+784656080+783080233+783716721+785196249
1448+785811479+784655734+782481553+780704692+780047293+780743537+783083280
1438+786751392+789849422+790397693+789159132+788176773+788267620+788977783
1428+789555483+789842567+790227838+791122674+792751076+794814745+795879435
1418+794386750+791230555+788781685+787903052+787647820+786907398+785995667
1408+786104103+787246277+787942106+787501162+787315520+788841927+791727517
1398+794484799+796184938+796825995+796781402+796872873+798068434+800252586
1388+801737100+801054150+799515072+800068882+803938909+809895524+816015553
1378+821456926+826386311+830542453+833087780+834408325+836155550+838656630
1368+840394230+840636652+840592059+841335182+842572358+843776920+844910508
1358+845725297+845740185+845087979+844508548+844482097+844948176+845617554
1348+846044164+845856029+845372293+845420487+846310060+847549590+848473993
1338+848753045+848555631+848473300+848991935+849985443+850884502+851153860
1328+850643534+849888086+849929840+851348919+853576695+855556232+857057780
1318+858852575+861374221+863916224+865670719+866878051+868232041+869785453
1308+871303274+873005836+875125592+877267367+878815516+879688470+880375575
1298+881344778+882446583+882923671+882214686+880660235+879057938+877690791
1288+876166462+874055293+871484969+869048424+867155580+865607846+863992530
1278+862390648+861285173+860812309+860587544+860329542+860186277+860337159
1268+860718345+861279634+862149819+863338317+864505903+865318823+865929760
1258+866756598+867843515+868867144+869729850+870735614+872120764+873635607
1248+874780204+875553171+876726781+879001643+881980435+884439830+885685800
1238+886197995+886948666+888609751+891382890+894900813+898095852+899759292
1228+899823066+899858588+901629078+905310001+909547988+912973332+915031807
1218+915595450+914830516+913703230+913732727+915756857+919124106+922345182
1208+924610764+926299201+927968388+929634182+931185378+932832407+935100206
1198+938534967+942766792+945974365+946811520+946755502+948459242+952191613
1188+955920798+958231596+959176010+959067506+958545132+959085440+961646485
1178+965410638+968859525+971216163+972182874+971538769+969801654+968290273
1168+967999866+969026679+970986413+973554798+976865821+981262999+986092674
1158+989534637+990778183+991224251+992301820+993638084+994287312+994125213
1148+993591690+993657403+995492844+998458341+999953380+999039572+998337857
1138+1000624005+1005501042+1010463733+1013922522+1015882810+1016295225
1130+1014683302+1011642329+1009391565+1009776352+1012163457+1014338469
1121+1015369437+1016488207+1019134629+1023185521+1027159967+1029800088
1113+1031113432+1031819371+1032166420+1031805730+1030788541+1029379018
1104+1027028127+1023644052+1021693597+1024309968+1031332034+1038931731
1095+1043193262+1043000072+1039507492+1034935542+1032026410+1032930455
1087+1038314909+1046884986+1055258619+1059861728+1060216879+1059565089
1078+1060940129+1063112302+1062445278+1058159512+1053215378+1050618811
1070+1050805284+1052079574+1052726795+1052722225+1053686235+1056920674
1061+1061054173+1062420696+1058862196+1052676385+1048395744+1048344642
1053+1051363249+1055274476+1059302447+1063658080+1068411656+1072453130
1044+1073741823+1071574151+1066696352+1060761065+1056442131+1055432559
1035+1056941932+1058977903+1060526259+1061861692+1063127881+1063938863
1027+1064292767+1064457221+1063479639+1059800309+1054846342+1053073567
1018+1056505143+1061449762+1062577256+1059377023+1055908955+1055373771
1010+1057581605+1060362568+1061594066+1060131017+1056402801+1052781774
1001+1052118420+1054734514+1057857610+1059283405+1059753639+1059740829
993+1057170713+1051293590+1045853464+1045361418+1049734500+1053920832
984+1053179094+1048297903+1044009990+1042955687+1043196101+1041861637
975+1039416644+1038269070+1038744150+1038815956+1037044773+1034248992
967+1032233033+1031587059+1031192370+1029585017+1025892531+1019866327
958+1012381436+1005557476+1001150395+998868817+997377656+996192412+995503715
948+995142263+994284127+991950478+988383669+985726860+985805105+987549906
938+988139239+986540057+984380348+983223841+982592823+981083104+978594834
928+976322120+974843768+973797774+973088165+973084772+973779840+974613256
918+975016808+974781310+974110132+973415133+972844220+972283900+971964964
908+972391366+973380442+973626534+971831670+968306338+964817359+962946880
898+963211807+965061927+966731530+965995885+962372089+957793423+954726553
888+954415164+956160312+957820566+958150443+958129670+958846826+959449177
878+958890727+958023381+957665737+956525433+953009865+948093289+944587969
868+943882168+944730057+945418339+945982536+947310767+949031333+949765385
858+949375474+949327003+950607595+952444767+953365985+953199246+952758510
848+952361536+951829191+950788667+948592536+944975110+940984876+938317681
838+937838584+939219648+941552120+944048769+946373901+948316392+949427337
828+949637630+950037097+952181226+955903487+958694144+958443828+956224362
818+954678567+954343566+953793356+952874632+952992623+954239008+954807706
808+953533623+951447936+949889331+948923867+948600776+949714283+952542747
798+956138015+959543625+962520340+963968293+961902479+956968316+953424911
788+954148784+956888824+957648981+956255106+955292135+955371003+955456727
778+956174991+959231267+964242498+968083027+967723376+963769218+960275461
768+960349621+963155788+966063329+968140292+969530427+969193834+965858714
758+960504103+955695548+953016997+952531530+953775976+956084074+958132370
748+958852643+958797594+959326615+961143084+963599363+964726511+963360126
738+961700980+963369959+968685239+973916596+975984696+975702943+974758598
728+973304551+971834093+971640488+972557274+973235308+973900462+975539459
718+976609204+974574203+969971647+965728674+963173723+960737454+956515670
708+951219016+947927797+948865148+953315298+958546586+961574749+961202425
698+958843641+956342215+953728960+950186525+946571314+944407935+942802937
688+939616414+934562044+928750218+922983331+918328774+916678836+918430839
678+920793639+920774667+918798938+916592005+912681401+903521784+889828855
668+881410559+888427363+903597883+912949443+913739098+912537028+915085748
658+919416591+919289529+912515632+902761835+894921655+891541596+891934069
648+893154073+892506506+889631787+885938332+882706870+880862635+882252285
638+888671032+899202296+909048534+912978249+911251936+907928310+903272784
628+894081176+881830799+873056176+870422910+870367654+870698569+873636646
618+878898262+881273249+878565823+874943758+874373813+876978898+881072166
608+884808206+886426430+885357170+881634493+875378469+868278019+862021095
##END=
