##TITLE=<SNM>
##JCAMP-DX=4.24
##DATA TYPE=INFRARED SPECTRUM
##DATE=2/5/2025
##SAMPLING PROCEDURE=Instrument type and / or accessory
##ORIGIN=Admin
##XUNITS=1/CM
##YUNITS=ABSORBANCE
##RESOLUTION=4
##FIRSTX=4497.3318
##LASTX=599.83466
##DELTAX=-1.4281778
##MAXY=1.7361094
##MINY=0.27639663
##XFACTOR=1
##YFACTOR=1.6168779e-09
##NPOINTS=2730
##FIRSTY=0.29096827
##XYDATA=(X++(Y..Y))
4497+179956864+180121628+180128264+179919226+179850880+180076599+180020197
4487+179063428+177837275+177796448+179284446+181021203+181712182+181311563
4477+180560955+180106993+180306022+181299858+182765683+183750653+183435687
4467+182236076+181447443+181619543+182036862+181956628+181493431+181044630
4457+180691251+180465091+180561674+180954092+181262478+181264653+181180603
4447+181211329+181068960+180257343+178757511+177232207+176519828+176963449
4437+178183354+179408530+180028141+180050370+180071198+180598188+181482612
4427+182212133+182521606+182348695+181504988+179956367+178314793+177548592
4417+178016747+178883974+178813490+177595797+176638935+177145982+178374586
4407+178641740+177701357+176918733+177285033+178472958+179636498+180156520
4397+179821297+179033900+178621170+179043411+180035938+180972026+181252138
4387+180604179+179322490+177920882+176534002+175032806+173561212+172621511
4377+172743457+173992798+175576827+176352096+176024965+175176152+174190758
4367+173158675+172496229+172570952+172975627+173051161+172818734+172723790
4357+172940717+173403102+174042804+174628094+174745045+174345900+173982347
4347+174054490+174166243+173668007+172525112+171368429+170944658+171548915
4337+172706040+173581580+173870501+173819297+173472407+172711938+171967948
4327+172017438+172944477+173859571+173838909+172986963+172392272+172769059
4317+173485604+173581285+173203428+173110033+173390126+173730971+174299617
4307+175259962+175960121+175612253+174467422+173567719+173512220+173992521
4297+174414449+174533151+174444456+174356259+174534165+175117962+175827945
4287+176148349+175878430+175280108+174719241+174309700+173894481+173402586
4277+173176739+173607532+174377622+174689067+174404772+174294198+174955963
4267+176084224+177053195+177689874+178073960+178065647+177596626+177034118
4257+176722912+176578239+176509229+176728847+177330118+177967183+178182672
4247+177917177+177589843+177616422+177918762+178140020+178210025+178347252
4237+178641427+178866776+178625372+177726793+176529707+175687345+175537696
4227+176004671+176811828+177410002+177172708+176172181+175365651+175579444
4217+176600431+177615851+178257912+178764811+179254457+179425856+179104973
4207+178642680+178556824+178967876+179468803+179505280+178958623+178328525
4197+178237028+178787261+179533610+180077336+180405094+180520958+180141738
4187+179123535+177937950+177284793+177318063+177628053+177937637+178408317
4177+179198074+180111970+180813751+181110303+181027267+180799982+180650240
4167+180548643+180477403+180693316+181276413+181803955+181946232+181933533
4157+182077007+182296201+182383200+182376472+182426202+182430331+182095200
4147+181458318+180985500+180936840+181060445+181029940+180780886+180485126
4137+180479265+180953576+181532655+181582753+181039709+180503300+180492831
4127+180887184+181179847+181149324+181013922+180992375+181096037+181330529
4117+181673383+181930325+182017546+182182070+182566322+182872625+182831172
4107+182692323+182889749+183455409+184082817+184529369+184673249+184444195
4097+183958235+183458893+183006424+182566765+182312329+182343221+182323499
4087+181948942+181531198+181590218+182079275+182472393+182489534+182378168
4077+182476282+182739915+182838342+182640069+182398001+182368289+182433022
4067+182311002+182021693+181901350+182197498+182783138+183201213+182933488
4057+181838903+180473201+179785465+180275867+181473985+182406738+182636382
4047+182682573+183283973+184354873+184952992+184453374+183403044+182755601
4037+182646299+182655681+182958316+184123772+185797215+186740253+186487384
4027+185957353+186087151+186742354+187291610+187480925+187362555+187043312
4017+186830146+187058316+187613801+188030531+188017979+187589840+186900316
4007+186257021+186076018+186581369+187612861+188714045+189382630+189388436
3997+188919397+188428718+188306071+188669182+189467952+190599291+191739624
3987+192368543+192321837+191967905+191581662+191098301+190650882+190663674
3977+191269276+192145792+192819814+192879700+192314445+191721745+191667703
3967+192044453+192570005+193372443+194445684+195222317+195406490+195541376
3957+196054652+196479916+196332183+196162737+196925565+198500397+199584199
3947+199388064+198838624+199334777+200781451+201615058+200803625+198994117
3937+197619604+197867423+200137215+203439551+205575103+205246460+203800413
3927+203481686+204676266+205698008+205239972+204385335+205178059+207735243
3917+209507869+207968150+203759402+199760796+197930829+198380459+200750706
3907+205251252+211809291+218750623+223528774+225064493+223698016+219664667
3897+214092520+209907494+209695341+213130240+216462952+216260605+214418214
3887+214946052+217869960+219935673+220370834+220942208+220792614+218083679
3878+215163476+215669084+219468993+224004375+228034222+230796039+230521457
3868+228020196+226652282+227168471+226859679+224054694+220648365+219418544
3858+222168269+230041617+242016420+250131835+245590480+233806651+223770307
3848+218834139+219031140+222849720+228194563+233737513+239269091+243946013
3838+245366292+242729020+238670363+235460022+232977118+230794362+229656848
3828+229932131+230972729+233337925+238775334+245925519+249368325+247778674
3818+245342441+242783634+237741519+231682896+228576474+230095733+235227354
3808+240863442+243820638+245213767+248686709+253791862+255868598+253798793
3798+250684371+247619790+244273015+241862734+241837703+244002156+247583369
3788+252527241+258618139+264530670+269469418+274708480+281510945+288692779
3778+294392899+299312146+305870627+315701436+328669246+342592498+354543782
3768+363821538+371409189+377399964+382469506+389031305+397939094+406373991
3758+411672164+416007633+424179173+438799671+457297897+471635538+477175023
3748+479836864+486958554+499763978+512153022+519012239+523838848+531696196
3738+543558269+556175686+564741524+566998193+565288808+564152253+566334898
3728+571047191+574723199+574508872+571548616+568644099+566656316+565407252
3718+565386497+567304128+571602548+577761681+582622057+582107656+576807713
3708+570996725+567962741+569315319+574416233+579294561+580238170+578958029
3698+579240961+581828890+585621241+590499901+596843575+603485221+608002024
3688+609401088+608375015+605811674+603227062+602394341+603983476+607789024
3678+613490232+618925576+620461700+619413434+620298540+622442921+620753073
3668+614294089+607388017+603079201+601505254+601289120+601234782+601609616
3658+603314209+606403747+610871558+617646025+626475330+633215035+631885718
3648+623068209+614119501+609783921+609882717+611898627+613186472+612771899
3638+611860989+612023006+613439249+616023491+621146486+629595355+637090846
3628+637102200+631893607+627980784+627500740+630549175+637145700+645161490
3618+650642729+652507386+652547715+651960471+651483967+652110287+653413578
3608+653698316+652818592+652405641+653383571+655371943+657874421+661109535
3598+665254233+669078213+670467250+669696792+670449408+675659771+683369884
3588+687569730+685089223+679527472+674944682+671476145+668336951+666635233
3578+667886767+671525690+675285011+677736912+679637327+682402645+686207899
3568+689733944+691438906+691076237+689302635+686592022+683211885+680172666
3558+679240596+680812847+682601416+681955706+679828209+679986576+683896229
3548+688487497+689617306+686759458+682636363+679753227+679167015+680544624
3538+681790629+680493826+677277733+675768593+678248142+682787432+685324120
3528+684318617+681901516+680302280+679676697+679543323+679705525+679341603
3518+677482402+674830109+673212220+673045889+673191723+673080984+673359307
3508+674386708+675674148+677327500+680197070+683617021+684963443+682946243
3498+679622139+677884294+678360872+679410686+679404198+678377240+677642540
3488+678188717+679742094+681196749+681328354+679108106+674700347+670308735
3478+668364452+669027636+670272829+670303279+669201708+667941474+666658605
3468+664907490+663285325+663202159+664981439+667394338+669027857+669313332
3458+668466860+667274087+666365167+665301345+663243889+660578693+658789165
3448+658573068+659333721+660366504+661198451+661368616+660759327+659463851
3438+657450927+655108439+653506549+653236852+653684455+653959755+653898856
3428+654046828+654969609+656448152+657515955+657731610+657780934+658143086
3418+658061248+656189145+651944177+646683384+643156233+642753973+643804229
3408+643677859+642023402+640665109+641021511+642857192+644981446+646495083
3398+647395082+647881613+647404887+645293315+642363951+640759555+641663756
3388+643864834+645020743+643937530+641231415+637977352+634753445+632241898
3378+631239270+631386063+631062175+629677636+628834186+629886139+631796802
3368+632799651+632922556+633181341+633338161+632285324+630104447+628149842
3358+627347681+627521532+628037407+628213986+627534729+626323229+625665501
3348+626127924+627193811+628189729+628862203+629001623+628303565+626670857
3338+624563045+623163392+623599641+625670883+627933451+629019539+628493047
3328+626968350+625708190+625510009+626070563+626818166+627681743+628589557
3318+629118924+628806612+627595407+626351688+626046675+626280541+625984375
3308+625264199+625036232+625387620+625721387+625799391+625694034+625329449
3298+624719349+624071869+623452996+623035842+623298388+624350561+625687988
3288+626969825+628076852+628342420+627230601+625804184+625749699+626921901
3278+627497791+626681253+625660709+625632176+626243087+626439130+625913080
3268+625061890+624265331+623901188+624359335+625292364+625586981+624841369
3258+623857025+623240364+622795783+622580276+623339749+625097721+626325515
3248+625649650+623786615+622684970+622971183+623311954+622568406+621467425
3238+621394360+622356364+622901288+621871528+619766887+618199465+618294205
3228+619694191+621019600+621122599+619751846+617491860+615242453+613375326
3218+611543700+609471978+607588004+606716502+607366599+609135999+610618671
3208+610534031+609075984+607483827+606689259+606797013+607067447+606386937
3198+604568987+602666434+601390644+600366413+599461733+599403598+600428861
3188+601493163+601273748+599413367+596895369+595261776+595133969+595564061
3178+595240027+594103951+592901888+591699051+590058159+588139829+586544906
3168+585578884+585383984+586032312+586970391+587019936+585566793+583390414
3158+581579320+580062070+578196566+576378173+575662569+575972522+576193780
3148+575971747+575845746+575662126+574415237+571927247+569507344+568447982
3138+568704371+569505795+570414273+571144033+571034584+569640275+567625250
3128+566246720+565960102+565959217+565219430+563821103+562792744+562630468
3118+562567836+561694232+560326097+559588116+559885019+560381025+560027241
3108+558718825+557212155+556187777+555720268+555498678+555226695+554787571
3098+554189894+553471267+552678210+551780977+550635242+549358346+548678352
3088+549377552+551236495+552846052+552725765+550720325+548196428+546715969
3078+546597377+546886096+546534376+545341862+543876922+542786115+542211036
3068+541819835+541302079+540661014+540083244+539657833+539136059+538068034
3058+536485166+535208823+535037847+535878679+537030938+537961497+538402760
3048+538057049+536727732+534747654+532975231+532165512+532342902+532843479
3038+532965130+532507463+531620662+530297943+528445820+526465337+525113238
3028+524555927+524216446+523767626+523460733+523244378+522535262+521219105
3018+520069500+519818382+520248106+520357777+519395699+517703640+516313239
3008+515774840+515730640+515582815+515114715+514349381+513217582+511628483
2998+509812930+508438528+508167024+508979176+510077761+510546118+509949253
2988+508365242+506207221+504045625+502299449+501079544+500439327+500495913
2978+501129237+501814503+501938587+501242225+499875639+498155747+496422474
2968+495034911+494299621+494213912+494301833+493999253+493291980+492689179
2958+492528194+492576965+492369752+491671805+490567654+489343178+488259596
2948+487254498+486093871+484992484+484596454+485024851+485464160+485150262
2938+484231832+483234807+482299493+481455380+481095145+481568995+482570849
2928+483281587+483043114+481864202+480338621+478990171+477743761+476283835
2918+474782621+473745635+473215125+472695268+471880979+470992408+470288120
2908+469630060+468790519+468004430+467823170+468350104+468960278+468875970
2898+467824607+466240007+464972658+464484505+464281679+463658639+462815817
2888+462413925+462361800+462007536+461193541+460285285+459479032+458662235
2878+457691679+456629184+455864218+455747949+455918887+455507485+454279544
2868+452976289+452312589+452225074+452217886+451982509+451513156+450826711
2858+449808268+448476002+447258972+446635343+446489288+446214983+445494254
2848+444609222+443958646+443575333+443176575+442534182+441713700+440953010
2838+440388695+439953294+439485379+438859502+438061063+437203827+436448151
2828+435859801+435293090+434435227+433180597+431957300+431320695+431165387
2818+430776103+429809380+428765354+428256888+428245203+428240631+427853264
2808+426933764+425619451+424407546+423757965+423535896+423224984+422590480
2798+421715402+420651727+419472225+418433249+417782857+417526763+417418604
2788+417079344+416263543+415136572+414145556+413551050+413199809+412760132
2778+412045965+411076293+409990426+409019391+408351267+407860385+407203505
2768+406364332+405774508+405668044+405684043+405344489+404577164+403566868
2758+402437686+401326493+400521567+400225217+400220203+400050924+399617845
2748+399273830+399150520+398824641+397978796+396936760+396120775+395383052
2738+394326934+393028988+392013089+391562942+391369185+390965855+390299685
2728+389611471+388941799+388137794+387230865+386441901+385920385+385706426
2718+385727292+385692344+385238327+384280931+383125981+382247474+381937521
2708+382039340+382034031+381489955+380455071+379431688+378940475+379018885
2698+379189270+379007383+378477979+377829946+377160274+376486694+375903505
2688+375467256+375061383+374523795+373870933+373298582+372926255+372608560
2678+372119633+371461683+370824599+370288707+369749607+369116762+368438611
2668+367835368+367400520+367160683+367080614+367055067+366867355+366293272
2658+365410710+364640731+364255833+364041838+363664018+363118135+362572695
2648+362018223+361351058+360634900+360042311+359621397+359283280+358968130
2638+358677494+358360942+357938075+357483172+357237105+357296493+357354001
2628+356938211+355961130+354849827+354076456+353754707+353700480+353618384
2618+353239348+352559612+351896317+351504415+351305202+351147498+351066803
2608+351107685+351108606+350844623+350307403+349734168+349350155+349145154
2598+348943360+348641296+348286296+347937009+347553992+347092380+346627893
2588+346272708+346019194+345800480+345604621+345381004+345007166+344503050
2578+344078082+343855091+343740444+343593283+343358238+343042718+342638873
2568+342069766+341288912+340459360+339880300+339690155+339760271+339857260
2558+339808563+339582402+339297922+339101289+339002420+338886888+338681924
2548+338456979+338334960+338324896+338299865+338160740+337948993+337752729
2538+337562621+337292408+336925684+336571347+336326644+336143577+335908753
2528+335630466+335469702+335562821+335822381+335929397+335593529+334875085
2518+334178429+333870540+333959678+334168697+334234315+334096296+333883295
2508+333758805+333727692+333606999+333283554+332942378+332866880+333043459
2498+333156889+332965713+332512101+331986383+331548290+331275017+331160812
2488+331154472+331203022+331221380+331073076+330695367+330221627+329864562
2478+329696647+329633609+329589004+329530943+329414084+329192678+328945505
2468+328902153+329235846+329789691+330108455+329869723+329227146+328612107
2458+328297730+328282321+328463508+328721556+328868570+328723510+328336253
2448+328012366+327962599+328034926+327982395+327837520+327745101+327611359
2438+327255326+326771448+326473255+326545103+326858743+327075171+326951161
2428+326585543+326262209+326064101+325828724+325491713+325267654+325400106
2418+325854714+326367529+326729829+326914776+326982974+326985739+326914850
2408+326707895+326398163+326195817+326246689+326415563+326503189+326535261
2398+326650129+326833896+326925061+326819372+326601911+326457883+326421203
2388+326282226+325818071+324976428+323723419+321909746+319448002+316437759
2378+312973055+309030557+304707788+300385535+296488103+293191960+290420301
2368+288003753+285857823+284114892+283073925+282979664+283860235+285627976
2358+288361850+292356732+297894079+305089902+313479862+321484851+327029423
2348+328881804+327421546+324585448+322481507+321452632+320386487+318587006
2338+316303020+313976937+311747805+309624768+307768572+306418040+305610496
2328+305135374+304774825+304475434+304312476+304399310+304811302+305505692
2318+306335667+307199096+308112200+309095548+310093937+311078575+312118989
2308+313259673+314387860+315284504+315807199+316033286+316214068+316546729
2298+317002184+317407467+317654567+317776144+317873945+318035925+318271744
2288+318488837+318599908+318662687+318796135+318945656+318893788+318556593
2278+318128159+317866056+317834279+317894920+317885446+317774854+317663303
2268+317643176+317693458+317728590+317705513+317643655+317594257+317641406
2258+317854591+318152968+318296664+318140435+317843605+317697624+317788641
2248+317945940+317971745+317795350+317464975+317135853+317015529+317191149
2238+317544048+317896210+318164581+318336736+318413966+318438370+318490643
2228+318604111+318712048+318724140+318645030+318570122+318573034+318642523
2218+318696307+318615354+318354873+318080494+318057454+318337620+318677175
2208+318824705+318798273+318805020+318934117+319061483+319088320+319071694
2198+319020379+318839451+318618930+318658669+319048248+319503003+319742841
2188+319800090+319853580+319946478+319980614+319899771+319776903+319736058
2178+319840199+320055485+320287138+320433931+320434152+320336278+320337052
2168+320613385+321070720+321436190+321609709+321700210+321741719+321652250
2158+321478436+321443157+321679714+322032282+322223200+322209082+322223864
2148+322420497+322671946+322814721+322875141+322949975+323038670+323094482
2138+323146829+323295612+323588718+323936162+324171428+324216844+324193436
2128+324293780+324499518+324592231+324545487+324627252+324956079+325294012
2118+325424731+325413635+325405415+325442463+325507270+325590767+325741725
2108+326046960+326487411+326904749+327178096+327308705+327327358+327275048
2098+327248432+327323377+327478390+327678967+327933513+328177627+328252682
2088+328138514+328061911+328225919+328576938+328941708+329224050+329387947
2078+329419466+329376888+329372759+329482946+329688168+329886828+330013051
2068+330150148+330402740+330674944+330748120+330567228+330295540+330116786
2058+330090760+330190809+330412436+330773298+331190377+331472940+331515997
2048+331403746+331297836+331338276+331594923+331961057+332185485+332158685
2038+332055761+332076626+332169781+332128199+331894222+331668172+331695267
2028+332020334+332510552+333014041+333400671+333603866+333753423+334070528
2018+334495496+334661643+334381513+333897046+333529290+333353080+333295093
2008+333319681+333424670+333583701+333764962+333954848+334112995+334123944
1998+333948913+333923625+334618843+336070365+337380771+337577404+336712500
1988+335597584+334820748+334497561+334541060+334764788+334959873+335073008
1978+335186144+335334485+335464062+335526842+335618486+336030920+336939213
1968+337940736+338276751+337740638+336940909+336485528+336419209+336571163
1958+336928928+337440601+337845774+337957730+337912461+338006243+338396375
1948+339084332+340174364+341825947+343595273+344254881+343117921+341136405
1938+339786665+339509116+339714412+339743792+339503365+339344260+339510369
1928+339955539+340772483+342151678+343685369+344696660+345430586+346498058
1918+347261586+346553723+344847287+343794597+344113213+345130882+345773348
1908+345542100+344817169+344347447+344450630+344855692+345245123+345696192
1898+346507348+347632917+348570739+349228430+350373648+352310005+353778337
1888+353495184+352132394+351219198+351168695+351433489+351612317+351710338
1878+351836192+352074997+352591167+353919747+356933788+361784173+366490568
1868+367737089+364724375+360316616+357377926+356473135+356697415+357114385
1858+357289157+357222249+357153682+357265048+357637190+358465046+360100445
1848+362982918+367225047+371368749+372312063+369086902+364784058+362400614
1838+362145478+362602223+363048057+364495339+368147865+372977275+375966911
1828+376007683+374963951+373787952+371601177+368615448+366559688+366253127
1818+366877714+367430122+368010030+369437000+371809127+373849035+374185420
1808+373087166+372154174+372795904+375409269+379145365+382148568+382944499
1798+382097437+381899993+384379247+389291307+393027071+391659268+386653980
1788+382750779+382093309+383555041+385456230+387334895+388942757+389632668
1778+389839917+391532603+396377975+403654273+409383718+409664438+405513400
1768+400326998+396269632+394879526+396842020+400354794+402378998+402639516
1758+402909250+403358734+403728627+405774434+411211621+418343817+422655214
1748+422110290+419115492+416678411+416111294+417302519+419020346+419754014
1738+420298864+423813998+431208002+437047782+435232338+428775160+422766064
1728+418574807+416549386+416828484+418600796+421660769+427786761+438385688
1718+450332548+455746253+451640963+443836847+437783035+435290989+436690164
1708+441664044+448345798+453948247+458587033+465445144+475010219+482030201
1698+482966326+479943217+473959705+466528136+461896428+462182014+466157431
1688+472747210+483240521+497126282+505804555+502180268+493395273+487862386
1678+488111329+493051663+499146616+503500258+507381046+512348291+515266448
1668+512689357+508383305+507994869+511734689+515071105+514874030+513757640
1658+516227272+525013078+540735553+557990576+562945914+556908138+554592376
1648+558729958+561469767+555908864+546850817+541614576+542247716+548406111
1638+558999508+569901715+573020007+566610310+559346767+557301256+560148007
1628+564706761+568919805+573215718+577193717+578656445+578377716+580494780
1618+586513719+591979845+591717152+588328425+587093332+589265546+592965036
1608+595983390+597799349+599373407+601498729+603948271+606183411+608348509
1598+611056910+614432587+617866730+620725942+622923849+624654247+626013719
1588+627133722+628307473+629768690+631581516+633927838+637551278+643684126
1578+652581188+660864684+663161535+661219759+661863405+666917464+671997181
1568+672952845+671820013+672274178+675963457+684945305+702001337+723413370
1558+732013971+723586041+713563889+708504448+707628853+709343400+712264137
1548+716237491+723051513+734272262+749118958+765157616+777660054+778660175
1538+769706933+762618421+762415521+765940755+768086537+768896293+772465690
1528+780096914+789070727+796880889+804310762+811892588+817157584+818926099
1518+819131358+818454313+816496538+814795852+816113152+822354086+833649816
1508+846048224+849061933+838528403+826859756+822482741+824989422+831572602
1498+838159984+839970672+836665811+833907570+836136001+842263172+847062059
1488+846336648+841134396+835206364+831445937+830872259+832907670+836656890
1478+841767351+847905877+854190310+858794997+858895341+854037914+848485748
1468+846531807+848802926+852222508+853159002+852857823+856004168+864483929
1458+873853735+874930386+866624329+857791927+853426119+853254111+854699255
1448+854442608+851293461+847476263+845493642+845716300+847724801+851746667
1438+857095860+860291972+858927339+856377306+856381361+858147222+858691925
1428+857304732+855991266+856124493+857445626+859871575+863825316+867638164
1418+867255367+862096245+856291192+852717666+851092257+849890710+848458616
1408+847725317+848812069+851095943+852861288+854090851+856372956+860070050
1398+863736179+865978692+866076824+863785134+860486467+858636113+859176466
1388+860729622+861272039+860581576+860225912+861387645+864063015+867760478
1378+872047840+876556532+880687885+883510048+884644355+885003632+885588811
1368+886431376+887572908+889639063+892280740+893420797+891659655+888277232
1358+885460377+884179573+884102527+884364335+884238113+883428505+882103538
1348+880756821+879789582+879308433+879487002+880598379+882267140+883233642
1338+882622805+881077759+879890074+879478745+879283365+878848517+878355792
1328+878049968+877968278+878512612+880285477+882931209+884993752+885368291
1318+884468366+883722754+884180236+885708251+887446243+888875683+890140414
1308+891361572+892164692+892149504+891516032+890880718+890670224+890995733
1298+891776071+892678282+893311827+893537214+893136502+891460146+888122034
1288+883711326+879345297+875926895+873812374+872647912+871586449+869989942
1278+867826907+865436201+863267784+861720232+860776587+859930999+858916870
1268+858337809+859069634+861100327+863435000+865275547+866756449+868225039
1258+869417885+869896307+869988688+870555362+871666813+872299105+871961430
1248+871824960+873298784+876312714+879751686+882757285+885053029+886707856
1238+888086424+889685364+891614975+893275037+893968744+893984669+894585922
1228+896752790+900418255+904823139+908976462+911952201+913521577+914450329
1218+915678565+917379103+919003112+920185120+921397504+923372090+926156504
1208+929246743+932163720+934538133+936411268+938547023+941515536+944664315
1198+946864361+948007662+949095372+951041204+953831074+956628833+958559845
1188+959648514+960682771+962099825+963545116+964727715+966243121+968578311
1178+970620357+970846407+970047342+970751298+973847730+977523812+979781291
1168+980805817+982078658+984167301+986487376+988565623+990340479+991433571
1158+991387933+990823103+991214746+993220076+996080135+998794877+1000914780
1148+1002016056+1001732203+1000908292+1001379046+1003844808+1006945220
1140+1008947675+1009509114+1009153745+1008291716+1007418628+1007104399
1131+1007458589+1008454582+1010543298+1013855163+1017389097+1020097424
1123+1022101132+1023925754+1025286037+1025691615+1025562812+1025591198
1114+1025592451+1025305649+1025980777+1029444817+1035180861+1039705258
1105+1039811942+1035860929+1031062337+1028448529+1029320585+1033280593
1097+1038270731+1041215209+1040600980+1038353822+1037632688+1039402825
1088+1042210759+1044063029+1044139928+1043735234+1044996279+1047982266
1080+1050270491+1050613695+1050552574+1051715635+1054016393+1056447208
1071+1057852317+1057012997+1053612216+1049265577+1046862927+1048555355
1063+1053672820+1058782471+1060771064+1059737544+1058152169+1057841258
1054+1058806211+1060470401+1062836777+1065442254+1066168549+1063647196
1045+1060227246+1059787827+1063423063+1068887714+1073007418+1073741823
1037+1071732143+1070061834+1070783779+1072213882+1070833250+1065847242
1028+1060025821+1055919536+1053765054+1052894252+1052921089+1053544017
1020+1054750503+1056896875+1059586696+1061220216+1060605840+1058150326
1011+1054844064+1051782137+1050516153+1052228635+1056152295+1059574384
1003+1060746808+1061166320+1063142675+1066057883+1066976093+1064696937
994+1061240343+1058944451+1057717837+1055972767+1053551685+1051809269
985+1050794771+1048873491+1045395148+1041407639+1037858296+1035254368
977+1034043310+1033676513+1032600378+1030089348+1027220809+1025888985
968+1026516264+1026759640+1024009436+1019015538+1014607042+1011859565
960+1009803437+1007382281+1004041588+999755996+995232558+991030942+986926500
950+983010581+980226314+978823195+977494247+974987861+971969949+970433235
940+970867641+971085508+969138497+966086744+964130812+963776033+964084437
930+964253864+964026634+963611471+963558240+963887731+963775738+962870209
920+962029857+961865517+961793042+961035781+959610691+958178892+957229053
910+956490077+955213328+953527978+952956364+954592759+957279705+958644337
900+957529790+955021709+953198192+952740341+952198366+950037691+946736369
890+943888180+942220303+941593393+941729643+941926570+941224605+939615490
880+938084527+937378875+937736235+939304505+941562206+942676680+940922984
870+936840661+932829927+930867286+931157479+932477949+933315131+933075442
860+932512233+932682250+933487655+933786401+933104638+932488271+932916705
850+933596773+933095127+931571241+930311966+929949224+930598916+932336981
840+934169345+934199573+931978147+929074072+927186264+927343526+929953574
830+933818031+936474232+937045035+937094654+938075090+939815736+941490911
820+942664146+943476998+944381789+945542564+946582498+947236245+947318599
810+946473455+944868616+943262818+942125341+941361813+941016545+941430749
800+942699020+944498574+946073996+946607345+946314865+946461953+947344257
790+947353915+945477241+943285379+942870437+944398747+946354236+947175862
780+946668686+946118601+946939563+948926166+950826139+951980942+951926014
770+950300974+948494415+948422677+948894095+946740793+942200544+939247587
760+940570490+945120102+949890235+952205591+950936436+947395572+944352593
750+943138807+943053430+943616123+945462864+948617541+951396204+951837319
740+949600999+946267901+944156771+944553354+947051999+950683622+954637290
730+957358962+957277050+955259334+953542945+952252408+949618768+945240721
720+940811655+937953586+936782563+936677353+937817189+940564887+943671714
710+944901941+944286311+944214721+945305749+944860800+940684105+934167059
700+927709070+922252603+918462242+917502966+919137665+921093966+921490328
690+920509229+918855655+916138260+912183117+908334954+905701682+903365608
680+900146936+897224134+896757730+898401645+899151828+896201378+888172685
670+875152308+862375896+859576662+866177684+872383302+873656807+872857816
660+874402714+878601528+881669574+880234384+874838668+868925382+865519808
650+864679677+864436891+864092433+865029664+867734526+869581488+867369277
640+861296443+854329214+848317132+842665212+837020959+833232221+833081447
630+834706119+833876973+830153779+828279390+831153605+835184098+835658243
620+833514673+832919835+834631948+834832120+830143309+822331304+815986192
610+812326109+808707019+804741334+803535806+805530224+807578464+808970155
600+811897675
##END=
