##TITLE=<SNM>
##JCAMP-DX=4.24
##DATA TYPE=INFRARED SPECTRUM
##DATE=3/5/2025
##SAMPLING PROCEDURE=Instrument type and / or accessory
##ORIGIN=Admin
##XUNITS=1/CM
##YUNITS=ABSORBANCE
##RESOLUTION=4
##FIRSTX=4497.3318
##LASTX=599.83466
##DELTAX=-1.4281778
##MAXY=1.7742577
##MINY=0.21133909
##XFACTOR=1
##YFACTOR=1.6524062e-09
##NPOINTS=2730
##FIRSTY=0.23228422
##XYDATA=(X++(Y..Y))
4497+140573314+140592117+140631227+140280847+139791538+139663638+140086594
4487+140851416+141651047+142335972+142874121+143234565+143367659+143210063
4477+142728068+141970568+141026489+140044606+139313078+139049495+139102971
4467+139189578+139366689+139894116+140741885+141543545+141891021+141604966
4457+140968414+140601107+140766080+140965627+140572755+139662754+138910647
4447+138806843+139164437+139382930+139205729+139024155+139221826+139547993
4437+139487574+138995045+138480108+138264698+138341512+138489631+138523222
4427+138476419+138492733+138573118+138523646+138089580+137170481+136076696
4417+135452092+135635831+136247404+136707937+136876309+136758085+136077985
4407+134825432+133799877+133796287+134522108+135010993+134824440+134277778
4397+133853605+133888856+134449415+135147343+135423740+135224030+135065560
4387+135342561+135875733+136168236+135872604+135053413+134149472+133530937
4377+133089792+132574503+132175679+132208766+132436575+132411145+132259311
4367+132434140+132871876+132969936+132328785+131218795+130347039+130237039
4357+130840036+131732335+132509584+132926786+132984437+132973444+133075157
4347+132946373+132152368+130938781+130031035+129692469+129525990+129271858
4337+129247491+129748794+130426279+130621659+130164030+129494833+129109356
4327+129217886+129787499+130515276+130920376+130772645+130241981+129502246
4317+128607404+127897780+127956612+128903208+130095323+130786533+130915200
4307+130978442+131214205+131338290+131205088+131228805+131769236+132454728
4297+132551986+131881968+131028266+130663791+130940846+131555792+132169178
4287+132591294+132717229+132478229+131866421+131043713+130414474+130366048
4277+130848612+131365822+131483911+131304158+131321923+131769858+132305825
4267+132540443+132581636+132732361+132953100+132947256+132566928+131945427
4257+131383046+131158231+131314276+131697526+132325863+133472123+135027874
4247+136115635+136013769+135234148+134850709+135064748+135299041+135292674
4237+135169319+134857283+134257073+133647376+133382638+133472799+133747654
4227+134173694+134743316+135144331+134936090+134251175+133886475+134362997
4217+135265936+135849437+135955261+136025492+136384502+136751421+136562975
4207+135779837+135110144+135231840+136048939+136943988+137555841+137987201
4197+138297974+138201402+137505737+136574725+136026439+136103966+136538293
4187+136933167+137157549+137337329+137466203+137260361+136598848+135841375
4177+135497704+135814078+136716053+137867029+138831200+139388756+139572287
4167+139420571+139001367+138535062+138178424+137905914+137786012+138057071
4157+138791251+139729441+140513120+140919185+140902827+140581719+140193446
4147+139920449+139717267+139445343+139147204+138940866+138733744+138398397
4137+138143363+138317570+138897418+139470079+139711532+139705427+139752906
4127+139973618+140204989+140212303+139880220+139320500+138877804+138834951
4117+139087866+139384364+139763520+140375084+140996135+141157473+140751498
4107+140180605+139858234+139903423+140381685+141315177+142269528+142564764
4097+142146488+141639180+141380467+141040340+140286691+139299524+138589043
4087+138575399+139234172+140020799+140313041+140016904+139616944+139610252
4077+140069586+140782889+141496436+141860460+141557208+140720341+139819034
4067+139044391+138287342+137630274+137349692+137533152+138005579+138528849
4057+138992142+139441447+139822452+139821838+139255030+138442936+137924842
4047+138042633+138890375+140212248+141335486+141710836+141489547+141170504
4037+140831793+140168268+139274355+138894334+139564081+140763167+141383686
4027+141002618+140235776+139876432+140181056+140942596+141754509+142170819
4017+142011112+141569688+141310840+141400540+141629080+141678894+141408611
4007+140992040+140860172+141422481+142701961+144180547+145103885+145077842
3997+144372672+143610826+143158797+142871822+142486308+142124350+142211769
3987+142953641+144040599+144859573+145019821+144721294+144465998+144415408
3977+144324806+144093389+143958473+144091739+144354790+144509212+144472157
3967+144390356+144533731+145025096+145677376+146190311+146425272+146394647
3957+146152274+145848291+145747381+146039533+146651439+147235535+147385655
3947+147125643+147133543+148006462+149312618+149893160+149296250+148276132
3937+147734926+147915968+148591514+149399784+149890419+149790348+149428849
3927+149429210+149896677+150326099+150452303+150666676+151322671+152161313
3917+152587064+152241121+151311489+150420398+150076250+150250421+150771725
3907+151953614+154246999+157249566+159658723+160583594+160138779+158683892
3897+156698106+155163953+154991838+155940174+156522096+155869366+155259109
3887+156116834+157868805+159034525+159603840+160270224+160345252+159168043
3878+158156618+158904271+161137687+163572761+165362192+165857128+164789125
3868+163535030+163642685+164643866+164927495+164161338+163435960+163617958
3858+165172583+168572152+173222318+175628408+173005907+168314097+164849040
3848+163387678+163605351+164897123+166735521+169001294+171756808+174326085
3838+175126366+173630448+171443978+170106829+169628251+169415357+169411516
3828+169766026+170390206+171524616+173598506+175811470+176406288+175592841
3818+175059868+174774200+173568495+171735435+170766773+171738051+174748157
3808+178442159+180894763+182302505+184194144+186189129+186712759+186314747
3798+186505511+187069001+187292391+187736034+189361791+192231994+195808151
3788+199779344+204176577+209007028+214376187+220862659+228930808+237965996
3778+246994475+256345938+267139572+279589245+292571116+304014577+312159937
3768+317360426+321057242+323533762+324640794+325287122+326793212+329713158
3758+333815921+339037296+346097844+355902454+368032697+379698917+388524909
3748+396126348+405292710+416217662+426324514+434556771+442982983+453096617
3738+464820876+477353387+489365712+500077879+510328584+521054530+532098662
3728+542832688+552542033+560676861+567111967+571102404+571196587+568009532
3718+564709321+563663972+564276464+563309714+557504956+548619230+542428219
3708+540945792+541772369+542512915+542307236+541292438+540805222+542337031
3698+545684387+549664508+554014505+559576935+566407275+572305458+574358932
3688+572625881+570016041+568267443+567555501+568252726+570681487+574295771
3678+577624226+578144448+574939358+571765866+571512753+572113703+570001107
3668+565092580+559667041+555086620+552043743+551087453+552337869+555323429
3658+558731421+560655146+560451054+559535489+559316283+559978843+560556815
3648+559697377+557431407+555351853+554427451+553903080+552859173+551979175
3638+552544919+554384634+556383171+558402846+561089806+563915606+564795244
3628+563274941+562443928+564476552+568565321+572893098+576304372+578637616
3618+580421853+582450943+585129427+588131038+590753791+592746773+594742028
3608+597459433+600659221+603605354+605931095+607458071+608170193+609088138
3598+611600297+615009335+616581111+615333905+613721585+614418485+617624369
3588+621257122+622876079+622043839+620373660+619672576+620757532+622976646
3578+624583845+624465963+623173524+622018806+621868316+622684107+623481574
3568+622855086+620494428+617892740+616436392+616093065+616370165+617226862
3558+618641294+619934238+620376546+619843699+618437202+616440577+614911509
3548+615088043+616695024+617706611+616571660+613978558+611612777+609990790
3538+608168894+605245522+601702478+599015410+598305488+599729083+602453269
3528+604840079+605355107+603771066+601516350+600499172+600976577+600917312
3518+598597306+595423634+593983302+594041232+593095656+590355635+587854226
3508+587493223+588893299+590408696+590665596+589214840+586967085+585521162
3498+585237569+584885259+583831288+582943787+582449861+581307912+579587954
3488+578641620+578448927+577397986+574698545+571315550+568760900+567733658
3478+567777304+568160816+568752748+569435291+569315534+567781705+566017632
3468+566102183+568333165+570351072+569738940+566888793+563975773+562047178
3458+560653631+559258821+557610465+555623687+553807311+553012549+553330735
3448+553845258+553751905+553210834+552783532+552659193+552713445+552711858
3438+552233334+551007375+549520655+548593222+548211334+547542714+546133187
3428+544457525+543274563+542720326+542156854+541035213+539555203+538152168
3418+536979126+536279593+536416159+537032079+537166769+536592981+535932477
3408+535402588+534491280+532936529+531245862+530109359+529694790+529614928
3398+529445970+529084570+528591510+527822972+526601053+525266013+524383742
3388+523962608+523640851+523499126+523890538+524517387+524504437+523446570
3378+521850879+520706008+520937695+522633484+524450258+524728224+523485924
3368+522145474+521313884+520340965+519006864+518174912+518541795+519690994
3358+520696269+521256061+521823537+522629986+523062518+522321539+520421116
3348+518306032+517047392+516883880+517119931+517083824+516768740+516358139
3338+515869046+515407440+515109418+514935446+514858938+514881844+514863483
3328+514706212+514422186+513883062+513065143+512357854+511994579+511652117
3318+511123851+510720500+510564383+510303767+509949545+510151040+511099683
3308+511904039+511700308+510617191+509149950+507577885+506404590+506224450
3298+506827600+507400450+507610783+507715462+507847916+507913494+508028995
3288+508583340+509731241+510936748+511311350+510614955+509622269+509239083
3278+509658738+510463347+511168904+511525506+511295551+510142275+508131221
3268+505997849+504540527+504071743+504609460+506066926+507967132+509380519
3258+509482601+508041836+505345714+502039154+499125629+497571997+497492676
3248+498008606+498271602+498361673+498734868+499131978+498701646+497193860
3238+495500235+494776317+495186594+495745953+495540563+494818810+494398036
3228+494317850+493801343+492475321+490940374+489975896+489688515+489521541
3218+488881958+487751480+486611875+485800629+485265942+484998292+485089950
3208+485240296+484925681+484154041+483293593+482229486+480570561+478614588
3198+477270134+476959992+477231790+477467878+477340654+476553034+474882278
3188+472671028+470642804+469102301+467864258+466833805+465967983+464964729
3178+463736028+462824034+462653200+462811986+462609878+461842891+460683339
3168+459325178+457947646+456730128+455820623+455179850+454400310+453134600
3158+451757574+450892400+450363160+449471836+448116993+446805688+445825448
3148+445071302+444443623+443969320+443630285+443234473+442461787+441141717
3138+439462268+437809872+436490596+435614890+435128864+434877770+434634397
3128+434160454+433374566+432433282+431504335+430618853+429911313+429681934
3118+429948755+430160638+429631723+428211447+426359540+424681317+423551307
3108+423055578+423029462+423108603+422978926+422670263+422423967+422281449
3098+422028913+421537043+420936814+420420957+419983302+419423077+418608152
3088+417644539+416721832+415925412+415315299+414989647+414893877+414741583
3078+414263421+413403622+412269068+411078747+410189045+409964501+410430255
3068+411053785+411039970+409995053+408257781+406523287+405251877+404490806
3058+404059572+403744705+403411838+403067644+402814639+402725399+402727202
3048+402615958+402218198+401481836+400407124+399033524+397559971+396356736
3038+395728047+395661568+395816062+395752432+395253564+394408230+393278942
3028+391707454+389780880+388159541+387398795+387248161+387099799+386729129
3018+386199023+385586567+385132896+385070096+385124420+384740692+383778739
3008+382536006+381293887+380242297+379581648+379367889+379374635+379268404
2998+378858489+378112748+377056541+375815936+374678604+373893113+373435980
2988+373133088+372889750+372614453+372092572+371201716+370181977+369475842
2978+369229511+369074764+368561829+367694491+366770738+365884319+365005366
2968+364336494+364079990+363982850+363547865+362619314+361481441+360490018
2958+359791170+359284872+358745207+358055485+357373663+356957038+356770982
2948+356438115+355736634+354968168+354585919+354643129+354837085+354881741
2938+354594252+353873869+352901853+352122349+351675136+351092438+349961382
2928+348605602+347622475+347037108+346466711+345904177+345777061+346248659
2918+346822808+346776059+345938048+344865645+344136389+343715832+343213645
2908+342486446+341731362+341176368+340852374+340558284+340040009+339281319
2898+338514657+337899820+337347422+336692690+335914088+335149626+334567289
2888+334219633+333964680+333554404+332908653+332257780+331832642+331486898
2878+330930568+330276810+329954692+330071996+330233055+330030586+329454345
2868+328797917+328329927+328048389+327723746+327215680+326668766+326267074
2858+325891607+325234277+324219480+323122007+322299470+321965268+322137978
2848+322591324+322859443+322500207+321503951+320402762+319809532+319804013
2838+319923301+319738868+319177669+318367288+317575665+317182991+317265270
2828+317339721+316898676+316019255+315154334+314559300+314164715+313812441
2818+313403608+312891502+312275330+311640436+311143264+310868688+310705501
2808+310427643+309900567+309198906+308558350+308176967+307992678+307725461
2798+307237342+306744210+306497734+306353340+305908290+305045534+304061397
2788+303222773+302477159+301705410+301020558+300619065+300433532+300147215
2778+299576944+298850123+298126151+297351157+296456567+295625518+295128111
2768+294959315+294828033+294490026+293959974+293383300+292802334+292119898
2758+291275304+290383276+289638094+289109323+288694809+288237549+287610592
2748+286783131+285922359+285302850+284985945+284732904+284322790+283768192
2738+283169208+282569412+282004389+281520383+281110467+280717361+280307048
2728+279907359+279553174+279205427+278799551+278379355+278033899+277693674
2718+277178141+276465388+275717410+275005054+274225082+273362415+272616531
2708+272145546+271870249+271664155+271538789+271502879+271426570+271175694
2698+270752341+270245772+269725622+269182982+268564555+267916677+267445331
2688+267322364+267441526+267458119+267121698+266527602+265948511+265464000
2678+264931243+264305368+263757190+263412492+263150126+262747804+262161517
2668+261594745+261277316+261218141+261218267+261090142+260818253+260524488
2658+260293991+260037000+259562409+258814395+258011680+257500512+257412155
2648+257495552+257390765+256999877+256454567+255877640+255378520+255102159
2638+255074618+255125714+255060370+254804606+254408920+254015670+253754603
2628+253607684+253447346+253198219+252875542+252497441+252078436+251713844
2618+251530998+251499507+251438853+251300483+251247621+251352174+251440729
2608+251347629+251099403+250775879+250400303+250036974+249828156+249841503
2598+249954641+249975021+249849889+249683618+249575620+249534823+249522541
2588+249484179+249367235+249181558+249018659+248967925+249027064+249106944
2578+249111200+249000299+248797614+248571049+248397527+248301307+248241645
2568+248176103+248113285+248121725+248298926+248675566+249154576+249583087
2558+249826280+249803285+249595550+249428322+249362221+249186247+248785367
2548+248346414+248061793+247902862+247739603+247456893+246982878+246371468
2538+245796561+245390271+245143344+244975359+244850029+244787914+244769716
2528+244718675+244631544+244596321+244633150+244674668+244706735+244761077
2518+244799962+244749985+244598900+244381678+244144418+243951165+243862267
2508+243897040+244017717+244107733+244011278+243693868+243327418+243114092
2498+243075549+243105777+243137412+243130739+242984902+242622348+242134049
2488+241724061+241500617+241379688+241211396+240958572+240702050+240505208
2478+240354321+240196437+239954884+239570417+239109496+238743876+238542796
2468+238375028+238086114+237706643+237411705+237289657+237211166+236965213
2458+236515943+236077477+235901881+236009969+236174816+236177016+235998048
2448+235729027+235412897+235086721+234859345+234782549+234720019+234504655
2438+234171860+233894001+233748525+233688034+233675192+233701290+233705546
2428+233600524+233366114+233050453+232718416+232463030+232411664+232611680
2418+232924546+233146421+233235427+233306777+233415803+233492761+233504159
2408+233530816+233634720+233748309+233772026+233736568+233776336+233941309
2398+234138205+234274014+234352632+234428562+234599252+235049063+235959379
2388+237345730+239076744+241080782+243452784+246291389+249479544+252769420
2378+256159160+260045207+264779725+270116727+275354965+280021741+284095377
2368+287595712+290387893+292344732+293295737+292981230+291447744+289213840
2358+286733371+284062913+281338835+279318818+279008567+280596612+283262831
2348+286173127+289274657+293060605+297433923+301191934+303234713+303530101
2338+302564812+300626731+297905917+294905117+292359124+290620355+289312045
2328+287801933+285779119+283221511+280276171+277368634+274966494+273044193
2318+271081168+268673058+265969812+263469016+261473184+259862342+258374775
2308+256896640+255402093+253835439+252184233+250535571+248970161+247474947
2298+246012268+244634232+243470027+242584563+241904978+241305741+240702807
2288+240075976+239490898+239068429+238823594+238574864+238130734+237524536
2278+236932532+236406881+235868335+235346562+235010051+234899492+234802785
2268+234489631+233987877+233550313+233370551+233395098+233440962+233417642
2258+233341856+233214163+233023057+232828397+232716125+232681010+232637002
2248+232529492+232374258+232210458+232082422+232040742+232091458+232174729
2238+232240740+232299428+232378569+232499642+232687268+232937712+233208049
2228+233488252+233838938+234306496+234839920+235358141+235890140+236550536
2218+237348670+238138760+238815623+239453113+240199900+241135592+242259397
2208+243537570+244916761+246330617+247732587+249110786+250460831+251794049
2198+253171220+254631878+256091760+257413111+258563825+259620339+260643433
2188+261621798+262532530+263395719+264206911+264869435+265314502+265625311
2178+265930169+266272397+266628494+266901591+266918201+266578823+265953093
2168+265175320+264334369+263443315+262462262+261383078+260240858+259044748
2158+257815884+256638856+255592081+254722778+254052859+253537868+253173240
2148+253055232+253192989+253711984+255379206+259127892+264905632+271753973
2138+278960520+286436214+294261152+302492309+311106796+319868509+328541666
2128+337178211+346013834+355249056+364907757+374752911+384406562+393462365
2118+401440282+407971374+413054307+416907997+419838440+422454988+425704952
2108+430494768+437226020+445569773+454667924+463499219+471077428+476715680
2098+480284695+482030985+482343147+481673733+480139399+477288458+472546581
2088+465549266+456154788+444504223+430769596+415048587+397944564+380581043
2078+363860459+348400500+334751181+323025407+312901818+304197964+296885078
2068+290826359+285922684+282023327+278693123+275626565+272932264+270688008
2058+268806685+267319857+266262946+265584857+265390450+265858676+267076104
2048+269239163+272618334+277351608+283712515+292219329+303174942+316571328
2038+332335803+350054050+368739805+387253102+404524605+419514266+431618501
2028+440931169+447962896+453381762+457611497+460492630+461756031+461460029
2018+459611621+456031424+450747249+444001424+436003451+426906996+416831778
2008+405921796+394422154+382595921+370707501+359121720+348158352+337881351
1998+328269543+319495638+311800702+305130735+299099683+293400019+288097917
1988+283390217+279312758+275828132+272922867+270500725+268407050+266595164
1978+265098777+263868110+262747587+261609318+260508544+259674609+259228730
1968+258932493+258389600+257516546+256611009+255928826+255442926+255076440
1958+254900051+254935816+255005307+254954104+254848523+254842589+254987470
1948+255244353+255619279+256162929+256724634+256876747+256403003+255665522
1938+255150134+254951579+254903568+254930116+255110059+255487221+255912035
1928+256217686+256565324+257265975+258222968+259041068+259676052+260314083
1918+260741529+260620690+260244267+260257667+260862747+261721482+262397262
1908+262727442+262873910+263089635+263455706+263866054+264218364+264562341
1898+265041928+265650165+266136678+266378086+266649776+267154523+267555638
1888+267437377+266927111+266399963+266008498+265782673+265766603+265920773
1878+266135416+266339111+266540137+266941774+267948059+269673716+271343408
1868+271696655+270509509+268930410+268015657+267858475+268018163+268190314
1858+268354944+268558694+268768431+268937047+269165559+269669531+270590759
1848+272035510+274060398+276098956+276822206+275751823+274162588+273361928
1838+273506647+274055618+274667570+275609286+277233835+279130741+280286632
1828+280457015+280359099+280261905+279799956+279056777+278624515+278744037
1818+279180664+279754885+280584564+281815393+283263805+284403950+284843354
1808+284786217+284850334+285552212+287008271+288872749+290497225+291402528
1798+291769879+292366302+293899897+296249463+298096068+298114536+296875465
1788+296032692+296372737+297606939+299217853+300959526+302591992+303806156
1778+304749532+306162702+308694700+312073113+314834453+315643499+314913882
1768+313838052+313206802+313656540+315484893+317953837+319786194+320789881
1758+321700757+322758082+323991184+326057716+329492545+333475984+336243456
1748+337179582+337318817+337808487+339113767+341109239+343192147+344760857
1738+346272827+349014868+353082967+355998801+355543147+353348056+351546433
1728+350535928+350288911+350848848+352013414+353817526+356950401+361766405
1718+366804248+369175115+368144013+365938282+364445213+364261177+365533236
1708+368213667+371631507+374730258+377559665+381325846+386148018+389967261
1698+391437099+391296962+389916292+387989933+387222081+388348916+390829296
1688+394393982+399657308+406186921+410523030+410353387+408523664+408019241
1678+409630443+412938589+416702137+419823470+422708895+426034212+428821523
1668+429813054+430233899+432160366+435762675+439354811+441601628+443285442
1658+446149297+451458036+459686614+469029870+474248142+474989302+476658579
1648+480950898+485320302+487002240+487253297+488675990+492083297+497382081
1638+504405512+512123065+517804495+519998142+521155061+523986740+529194155
1628+536086791+543825193+552190734+560787817+568537870+575348768+582859813
1618+592264246+601981851+608760682+612370854+615019146+617812878+620590450
1608+622989704+624978827+626913554+629359413+632777974+637289643+642694152
1598+648774640+655491139+662629458+669525087+675682840+681354567+687034229
1588+692853054+698600603+703808523+707965105+711103030+713990909+717570132
1578+722283873+727651445+732723376+737863843+744520102+753100556+762396739
1568+771155170+780094823+790659277+802950038+816467659+831965314+849758770
1558+864431904+871213187+873963200+875607913+875896268+874953289+873729602
1548+872659218+871691783+871115578+871752816+873766755+874161160+868224742
1538+858134627+849984433+844888767+840956765+837187157+834449841+833566524
1528+834093528+834895684+835268879+835353791+835220255+834568733+833656558
1518+833053444+832619289+831968993+831377349+831650699+833554837+837296526
1508+841464146+842233982+837897331+832726132+829971213+829484321+830057496
1498+830369370+829450125+827708164+826712882+827283892+828641909+829251805
1488+828559522+827390664+826459299+825784187+825246795+825089307+825848466
1478+827703908+830127475+832388071+833990941+834424591+833482766+831926429
1468+830678502+829988167+829495215+828746805+828071404+828616154+831143823
1458+834606608+836025513+834423221+832193646+830662775+829423360+828017152
1448+826347189+824260313+821688421+818989413+816724488+815385589+815260565
1438+816102905+816886160+816745121+816167040+815805965+815217063+813629920
1428+811261543+809079005+807724523+807454493+808399564+810125004+811163861
1418+810079049+807428521+804890103+803187388+802019539+800850176+799586882
1408+798649314+798254260+798047643+797849250+798084580+798879233+799624757
1398+799987564+800400509+800866264+800546238+799332651+798277201+797875582
1388+797394894+796393118+796040340+797728915+801297678+805611387+809980430
1378+814328985+818490978+822067171+824896180+827297599+829663668+831977650
1368+834011573+835880795+838011606+840347303+841923768+841845782+840627722
1358+839720526+839909251+840722806+841191662+840769483+839568232+838256459
1348+837732918+838395189+839839128+841610740+843734770+846073641+847953684
1338+849109340+850247177+851931280+853748486+855233763+856838725+859190509
1328+862043687+864803944+867578414+870979733+875223608+879895795+884502549
1318+889065945+893935370+898990348+903632740+907754189+911963219+916555905
1308+920952578+924406561+926732880+928208129+929146563+929649687+929916544
1298+930568859+931935678+933242545+933270681+931639026+928825888+925473554
1288+922376390+920362089+919427334+918398649+915991964+912298034+908933652
1278+907582705+908514286+910589619+912517781+913800625+914594773+915256395
1268+916103425+917133192+917971275+918452756+918978966+920016813+921614128
1258+923481402+925270472+926984586+929055014+931457948+933166795+933337341
1248+932400855+931183877+929911926+928411932+926369208+923580742+920389503
1238+917225318+913718959+909455389+905222335+902035281+899562513+896880963
1228+894148553+892406736+892267211+893451292+895130345+896361462+896524505
1218+895727038+894847184+894912834+896314425+898677320+901420119+904117973
1208+906295677+907532782+908216696+909577599+912221129+915214841+917431574
1198+919020521+920598285+922063217+923276804+924596802+926028260+927406694
1188+929370134+932566927+936294260+939273038+941343393+943276822+945572335
1178+948243208+951114349+953797413+955650402+956282518+956368440+957432331
1168+960201678+963595278+965914454+966609189+966376384+966345940+967680366
1158+970886034+975237618+979455089+982713709+984885137+986253110+987170406
1148+987907850+988640100+989432589+990255090+991070448+992014437+993522800
1138+995992466+998887847+1000595901+1000213977+999076212+999586695+1002559485
1128+1006152055+1007891130+1007408783+1006456931+1006573225+1007733282
1120+1009269997+1011184091+1013800279+1016495896+1018043505+1018742569
1111+1020881244+1025433602+1029641333+1030377479+1028585090+1027270214
1103+1026512498+1024201907+1020696558+1019122401+1021374629+1026224792
1094+1031036864+1034076315+1035853554+1038577812+1043366582+1048216313
1085+1050446898+1050599768+1050882929+1051560495+1051634657+1050966542
1077+1049481843+1046405599+1042659221+1041180221+1043069065+1045732795
1068+1046566478+1047258761+1051035655+1057112464+1061129305+1060682308
1060+1057891102+1055631010+1055043623+1056593035+1059941834+1063299146
1051+1064950712+1065371954+1066221869+1067700725+1068810354+1069548448
1043+1070951121+1072894722+1073741823+1072420310+1069563598+1066051684
1034+1062296577+1059518283+1059026558+1060206598+1060700921+1059019127
1025+1056210678+1054391091+1054581981+1056442762+1059091775+1061606242
1017+1063222242+1063559870+1062800927+1061802759+1061686609+1063163157
1008+1065833668+1067711114+1066720665+1063009925+1058924476+1056927129
1000+1058025287+1061469820+1064976178+1065687795+1062261948+1056160539
991+1050456493+1047370077+1046857719+1047292740+1047250897+1046135641
983+1043634232+1040323380+1038033206+1037812160+1038565476+1038606597
974+1037134883+1034024805+1029956453+1026189370+1022954268+1019633389
965+1016784973+1015384969+1014105443+1010371762+1004245897+998448930+994252741
955+990096592+985258115+982130651+982621944+984664163+984632348+981677377
945+977860083+975102278+973442127+971506174+968405474+965410897+964904021
935+967543511+971171287+972832736+971685954+969356317+967765567+967429309
925+967897516+968902538+970042972+970085681+968250800+965801406+964810091
915+965480442+965901612+964438700+961199558+957380171+954388912+953130885
905+953338729+954130064+955376332+957576328+960331030+962130056+961988656
895+960599113+959416259+958955555+958630623+957874133+956372624+953810255
885+950618727+948134633+947064249+946599433+945904769+945159317+944431829
875+943308709+942075860+941910869+943373060+945158740+945066686+942796567
865+940758459+940913422+942037263+941529089+939213087+937554451+938217227
855+939895126+939909338+937445588+934410754+933107710+933937064+935488641
845+936665002+937997625+940068269+942021969+942685828+942437440+942591537
835+942825424+941316701+937566643+933604053+932329361+935071150+940242854
825+944403116+945270922+943537835+941605705+941336540+942718725+944400230
815+945648518+947086902+949573810+953267308+957479296+960809337+962261789
805+962327511+961789903+960526321+958564108+956812407+955939118+955702129
795+955748949+956074025+956859661+958296818+959921259+960323095+958915948
785+957297135+957467825+959686217+962594223+964084118+962156100+956943130
776+951477949+948666037+948605509+950078522+952917126+957144192+961491087
766+964379903+965280967+964383438+962008640+958552060+954806764+952601429
756+954062250+958501920+961175534+958892358+954895644+953447809+953657817
746+952101840+948656442+946554993+947915246+952310188+958361819+964216716
736+967698474+968136381+967164761+966228131+965502590+965470270+966353804
726+966364337+963900442+961003185+960850026+962812672+963726722+963140345
716+963033573+963174108+961265424+957460466+955164809+957182283+962719752
706+967697176+967208769+959348228+947998643+939936319+938184475+939816490
696+940424077+938902584+936778843+935360010+935184270+936415027+938116660
686+938354660+936867579+935331874+934966110+935273222+934361048+931348651
676+927617062+924357288+919688131+909298190+891816824+876135349+875625516
666+886422126+894464394+895860142+895920020+898595943+902077412+904379851
656+906444796+907334317+902697841+891432952+879134832+872173192+871860669
646+875375108+879662269+881645909+879099410+874216566+870369188+867583680
636+865359444+865572482+868055639+867754443+862495518+858265494+861274067
626+869421087+874441002+871802017+865407780+861514519+861611623+863293995
616+865269049+867640745+869043202+867557998+863674332+859370722+855597291
606+851940947+847020588+840175025+833714922+830575265
##END=
