##TITLE=<SNM>
##JCAMP-DX=4.24
##DATA TYPE=INFRARED SPECTRUM
##DATE=3/5/2025
##SAMPLING PROCEDURE=Instrument type and / or accessory
##ORIGIN=Admin
##XUNITS=1/CM
##YUNITS=ABSORBANCE
##RESOLUTION=4
##FIRSTX=4497.3318
##LASTX=599.83466
##DELTAX=-1.4281778
##MAXY=1.7092258
##MINY=0.17504153
##XFACTOR=1
##YFACTOR=1.5918405e-09
##NPOINTS=2730
##FIRSTY=0.19793437
##XYDATA=(X++(Y..Y))
4497+124343091+123734010+123268808+123110037+123153827+123114427+122636971
4487+121769931+121208853+121608576+122779632+123987730+124829065+125386380
4477+125755557+125820494+125495575+125029034+124816222+124822616+124547403
4467+123776828+122988288+122758776+123153986+123807831+124203669+123943977
4457+123159369+122517301+122496510+122802763+122761500+122134858+121330115
4447+120842371+120684555+120450016+119840280+118977265+118262275+118126672
4437+118780853+119899985+120681466+120591966+119992667+119709742+120083366
4427+120711964+121033054+120838824+120168859+119049007+117611360+116286756
4417+115601177+115744531+116365884+116787595+116542591+115791336+115119743
4407+114929219+115140403+115400038+115445065+115315397+115176049+114933479
4397+114350206+113606169+113290714+113711929+114560556+115287604+115574751
4387+115464058+115159274+114697816+113988574+113206315+112677758+112253987
4377+111463463+110449830+109961721+110271232+110931264+111633786+112433942
4367+113128142+113265664+112812556+112170843+111579296+110961257+110340372
4357+110132914+110830896+112268028+113466176+113640964+113159801+113010615
4347+113558325+114293189+114633591+114538979+114312753+114142842+114023846
4337+113905907+113701370+113335618+112970185+112941821+113372089+114101289
4327+114930427+115584487+115680586+115118582+114239429+113385372+112636326
4317+112069351+111854667+111982528+112233721+112482226+112816609+113380879
4307+114184948+114982305+115400731+115394272+115385388+115658148+115889298
4297+115643143+115053570+114655477+114740821+115178549+115716317+116195374
4287+116533670+116716920+116809996+116843761+116731261+116461066+116333429
4277+116750198+117656742+118392523+118341815+117662724+117104314+117121332
4267+117481065+117786803+118035299+118474656+119127537+119658032+119637934
4257+118917795+117845131+117080837+117096647+117844626+118914247+119857064
4247+120333996+120234040+119844830+119671970+119935144+120441563+120897685
4237+121020408+120547997+119630473+118938211+118874369+119046012+119009719
4227+119060858+119670809+120540658+120888062+120518604+120031572+119938074
4217+120074632+120152543+120425462+121283694+122459515+123212914+123155334
4207+122540207+122028780+122307624+123469573+124706549+125124788+124825733
4197+124620344+124807179+124928151+124684850+124416106+124494888+124732189
4187+124668721+124201647+123663841+123382319+123352495+123389050+123498217
4177+123946486+124905320+126144889+127186053+127700513+127694831+127380564
4167+126998459+126783017+126917843+127327993+127609983+127398332+126775668
4157+126151732+125832430+125870136+126135978+126347629+126246718+125909199
4147+125698090+125810609+126068859+126254572+126430071+126749214+127110791
4137+127270639+127245617+127317986+127613980+127944207+128111337+128171079
4127+128344847+128774786+129328646+129664593+129641340+129516118+129501506
4117+129428771+129187062+129093817+129436063+130005884+130424778+130617230
4107+130750315+130980847+131391475+131962812+132523768+132851505+132864161
4097+132660850+132380442+132074301+131730136+131357205+131005523+130747666
4087+130674697+130891422+131441987+132154796+132654747+132724139+132635809
4077+132897926+133614526+134296388+134397683+133879395+133116139+132422847
4067+131904390+131620173+131589460+131700115+131855245+132123999+132589519
4057+133191457+133793367+134267921+134514620+134543321+134545989+134770315
4047+135285467+135863076+136116955+135853388+135261728+134719204+134491751
4037+134595124+134876908+135273588+135866765+136516509+136743353+136352468
4027+135839103+135792476+136240211+136859532+137411043+137717034+137652443
4017+137366756+137195666+137268194+137379852+137234195+136748932+136197684
4007+136017616+136386598+137093725+137889444+138722111+139492181+139885801
3997+139732768+139309268+139019752+138966919+139022944+139080205+139094799
3987+139087647+139128265+139200981+139209321+139173216+139238584+139500934
3977+139974739+140647184+141400901+141948348+141971994+141404935+140595970
3967+140112551+140291786+140999006+141808898+142366877+142581299+142530928
3957+142347781+142291119+142718737+143738689+144952684+145636100+145298328
3947+144340487+143946455+144797807+146133532+146642469+146049724+145120152
3937+144618741+144951102+146118115+147455328+147869223+146958252+145710969
3927+145550616+146791262+148288566+148927293+149132701+150036436+151633828
3917+152568680+151713528+149480517+147195814+145717868+145192821+145855502
3907+148333771+152719466+157615465+160891335+161700365+160565873+157951243
3897+154550368+151984275+151668754+153285542+154757470+154728479+154722403
3887+156437837+158673236+159111310+158305050+158175195+157935741+156026938
3878+154097325+154748755+157890846+161751607+165293028+167556734+167108999
3868+164812605+163285925+163104472+162601657+160823973+158833308+158250794
3858+160397750+166132744+174163608+178346985+173906575+165917666+159979970
3848+157545296+158193692+160702449+163808155+167280230+171447487+175192322
3838+175994013+173500403+170349615+168306285+167020444+166017885+165766618
3828+166473127+167633924+169596675+173488121+178278425+180444721+179452946
3818+178130803+176616873+173034732+168367374+165518047+166024756+169612776
3808+174101227+176881788+178583481+181491464+184576650+184600951+182085511
3798+179863311+178144994+176060420+174312429+173990674+175038633+176955684
3788+179560241+182471744+184949816+187079922+189964091+193786921+196973168
3778+198500952+199678599+202445175+207685518+214978888+222476608+228118610
3768+232083352+236031769+240609655+245980377+253064660+262310371+272219270
3758+280964787+289420658+300464816+315814156+333520194+347998159+356762904
3748+364377262+374816908+386085186+393122197+396822773+402796640+414139956
3738+430683512+449429328+465182444+474228917+477345668+477663978+477673190
3728+478732401+481249115+484625615+487918277+490594689+492601493+494453278
3718+497154890+502046330+510795087+523897253+537722535+546249960+548826809
3708+549747516+552128945+556987322+563711902+570026995+574198015+577325626
3698+581581719+587680049+594632999+601326574+607881271+614087327+617225010
3688+615184619+610521025+606810676+606048394+609113660+615123773+622052608
3678+628637372+633373196+634131958+632618253+632451179+632801953+629946409
3668+624006129+618802894+616457710+616558210+617978343+620381452+623989804
3658+627885050+629941017+629898706+630779835+635805249+645070356+653993451
3648+657588960+657409454+657700618+659335791+660346625+659096150+656483617
3638+655122084+656577077+660384818+665862105+673666527+683703577+690989027
3628+689540699+683311764+680586151+683907870+690332412+695800937+699360649
3618+703004835+707713999+712105414+714285245+713665325+711029577+707430474
3608+704270812+703132743+704085764+705352565+705144152+703575404+702667241
3598+704355584+708773360+714220093+718358987+720010710+720150226+720806017
3588+722617401+723719374+722057990+717950998+713716698+711979752+713604141
3578+716584672+718088567+717236195+715277807+714264351+715817897+719616651
3568+722587821+721929033+718916675+716607813+716499450+718807190+722685100
3558+725868876+726583454+726059465+726717279+728265807+728415357+726969800
3548+726030409+726690843+727997709+728343016+726343140+721977261+717664328
3538+716185820+717330928+718421143+718168697+717856865+718950899+721300651
3528+723784751+725652750+726433829+725655521+723753298+722523492+723183702
3518+724731931+725548431+725320698+724176488+721939218+719691464+719829107
3508+722771670+725460738+724807417+721409537+718137843+716211956+715028056
3498+714611381+715787118+718280504+720492987+721579757+722404945+723980507
3488+726046060+727619750+728255098+727743240+725753848+723089418+722188594
3478+725106519+730627390+734575096+734118131+730526292+726768502+724440992
3468+723744237+724315031+725073269+724976738+724534751+724813034+725758866
3458+727299830+729839871+732318430+732696538+731271949+730329038+730243291
3448+729363586+727530634+726668976+728202452+731458045+733733133+732260691
3438+727346934+722167326+719192262+718760684+720866452+725392215+730021774
3428+731106297+727947908+723511635+720380955+718821194+718418298+718954344
3418+719720370+719847530+719602497+720464604+723218001+726357892+727619825
3408+726833579+725713933+725180957+724898930+724957118+725689145+726441467
3398+726603749+726845037+727547708+727429011+725441791+722998355+722543936
3388+724384227+726616854+727698607+727421897+725790993+723608690+723248106
3378+725611786+727953076+727230484+724046933+721462034+721351574+723373917
3368+726318127+729072647+730513636+729426341+725536000+720627560+717611083
3358+718334498+722407416+727371572+729999307+728862362+725633728+723067177
3348+722365329+723034301+724355994+725917103+727327314+728283031+728686526
3338+728374019+727134553+725478786+724849355+726370848+729378713+731557271
3328+731372298+730309342+731092069+733809444+735742970+735101107+732864361
3318+730508619+728224543+726099380+725144038+726085676+728120225+729696386
3308+730256996+730588374+731391620+732023447+731142843+728630884+726198082
3298+725553449+726500778+727513709+727679361+727197309+726570948+726591692
3288+728451828+732075195+735293194+736474922+736444817+736500159+736428192
3278+735439675+733608520+731810317+731034705+731594490+732568031+732568929
3268+731465009+730752902+731628564+733303578+733997038+732990173+730780087
3258+728050579+725553074+724172744+724341167+725830159+728030584+730092767
3248+731416557+732112563+732144541+730737550+728006021+725934402+726251702
3238+728445238+730551904+731049982+729875518+728384653+728196161+729643591
3228+731583332+732527366+731735953+729901654+728753550+729130760+729838598
3218+729299257+727692916+726313259+725402850+723967252+721611809+719475338
3208+718952846+720050850+721460836+721780531+720737345+719505667+719436546
3198+720591913+721791764+721865529+720576711+718780005+717757788+718286271
3188+720183401+722367875+723224141+721607840+718436570+716265201+716379555
3178+717367249+717260309+716003843+714929579+714821366+715012030+713980003
3168+710945927+707048097+704637686+705002839+706777378+707376255+706032919
3158+704256658+703547621+704060227+705250343+706291357+705975630+703878026
3148+701588484+701173156+702318189+702387835+700059277+697455880+697275401
3138+699223305+700599741+699608378+696964243+694560123+693340876+692530516
3128+691097540+689672127+689777494+691399861+692838903+692728294+690869432
3118+687816185+684923722+683701030+684160991+684843068+684790497+684262314
3108+683465808+682184929+680752027+680086575+680627040+681880211+682902578
3098+682994165+682092143+680462512+677987698+674493063+670914329+669088192
3088+669994258+672617725+674729109+674787746+672976661+670639491+669318846
3078+669844483+671483026+672186521+670432352+666800597+663299822+661529551
3068+661767619+663265373+665091510+666569344+667115201+666408336+664909308
3058+663468169+662378104+661614174+661542057+662193281+662468643+661300769
3048+658941357+656269663+653902912+652461099+652309826+652643226+652291478
3038+651410125+651034114+651285886+651197743+650226675+649090254+648805306
3028+649221157+649177198+648239904+647109024+646102908+644672403+642671329
3018+640830664+639789874+639591197+639843119+639777143+638759270+637116683
3008+635902678+635698010+635990746+635777091+634600905+632821498+630994987
2998+629503973+628635949+628348980+628086573+627297069+625976500+624625188
2988+623866014+623847817+623936858+623393361+622148053+620578743+619015200
2978+617604878+616188414+614679052+613785754+614229951+615251232+615475820
2968+615036229+615045328+615569654+615740061+615059632+613553228+611558931
2958+609859542+609126354+609148221+609203001+608790782+607621860+605574504
2948+602995409+600428521+598117112+596350511+595740700+596338379+597072278
2938+596909360+595988990+594972240+594140088+593480626+592772039+591698411
2928+590470103+589762901+589602080+589002641+587106559+584203051+581438271
2918+579876638+579786922+580430507+580642477+580011511+579306892+579441016
2908+580282192+580775215+580011586+577953334+575317324+572915526+571107587
2898+569897963+569243669+568924086+568423537+567447038+566333196+565616296
2888+565419304+565392756+565060330+564201180+562868816+561108468+558978250
2878+556880495+555530382+555400714+556139631+556659614+556206019+555179458
2868+554315853+553543312+552444297+551158138+549990526+548830216+547586856
2858+546535844+545870579+545380888+544682710+543623798+542506436+541782459
2848+541482384+541233532+540760279+539965421+538760853+537289272+535968065
2838+534950304+533927188+532767514+531900427+531602861+531298892+530093799
2828+527831141+525242086+523197128+522058909+521589551+521270754+520747139
2818+520006499+519216621+518520802+517975470+517549995+517101830+516420764
2808+515387163+514151891+513124394+512618939+512478899+512192978+511400928
2798+510162885+508781543+507547694+506636759+506034662+505483713+504648079
2788+503411683+501961857+500582425+499383398+498175122+496624385+494680637
2778+492800844+491571262+491198247+491453052+491866844+491769677+490491943
2768+488070487+485566504+484074928+483556892+483144448+482335661+481306067
2758+480238393+479013193+477526372+475904080+474407075+473254029+472533871
2748+472162166+471839812+471222625+470298024+469365297+468492219+467383581
2738+465958431+464602402+463681807+463122396+462463871+461194225+459245759
2728+457182527+455636733+454683562+453961308+453137393+452098626+450991336
2718+450158397+449749773+449408247+448598824+447206698+445605899+444212688
2708+443182945+442517567+442171923+441912287+441343478+440338934+439226964
2698+438309852+437448306+436353972+435032466+433717625+432578546+431633350
2688+430802658+430023677+429397653+429124949+429167748+429091062+428433698
2678+427215874+425901108+424832348+423907560+422929751+422013538+421361191
2668+420878689+420392481+420022049+419877665+419562313+418496025+416702239
2658+414851202+413532392+412786923+412319698+411914668+411546707+411170209
2648+410548230+409453708+408047804+406840277+406154493+405784959+405294857
2638+404523401+403677807+403009995+402565462+402276695+402127444+402089738
2628+401998899+401650896+400994842+400145241+399252879+398406948+397636091
2618+396954014+396317019+395561664+394578800+393548982+392788497+392386612
2608+392173370+391936013+391502039+390747732+389696384+388585912+387783003
2598+387527711+387670185+387758215+387470759+386840092+386068636+385351100
2588+384839429+384570283+384424327+384211009+383770857+383074027+382285534
2578+381636632+381217747+380983985+380868284+380776247+380624187+380483136
2568+380468945+380416224+379990188+379231763+378607424+378379728+378329179
2558+378195354+377970317+377710756+377445392+377214550+376928816+376419318
2548+375841297+375663588+376050533+376585793+376730364+376324397+375641309
2538+375129901+375044641+375231898+375351793+375260355+375043406+374797250
2528+374567045+374413675+374385405+374480026+374652829+374754489+374540572
2518+373943830+373256360+372810629+372584693+372348983+372063811+371880786
2508+371847947+371812450+371578052+371104799+370590695+370287437+370192480
2498+370056221+369708256+369224481+368805821+368613547+368647134+368749281
2488+368818253+368874905+368805821+368376078+367681869+367179822+367073369
2478+367063746+366861325+366560276+366349430+366180670+365924030+365663758
2468+365629085+365885500+366246384+366453411+366321571+365781931+364969436
2458+364249803+363971445+364131630+364373255+364359588+364100290+363840542
2448+363723080+363684551+363596820+363386348+363093537+362862770+362731829
2438+362471108+361863019+361102460+360661933+360737382+361007802+361006229
2428+360658638+360332053+360319958+360472916+360489279+360360398+360277684
2418+360286334+360308950+360363019+360508825+360677659+360722255+360589741
2408+360379382+360256042+360282851+360321007+360155093+359726323+359197916
2398+358812693+358713991+358863767+359093485+359241163+359256665+359181665
2388+359021293+358642698+357828145+356397153+354213502+351159919+347263549
2378+342801627+338145708+333525136+329012291+324669590+320612549+316963009
2368+313839985+311399919+309759298+308898482+308857762+309926091+312358032
2358+316029720+320626141+326190784+333314215+342161823+351203054+357866787
2348+360473665+359291975+356300098+353569206+351431986+348957995+345632157
2338+341703623+337601387+333592086+329866498+326721701+324493529+323256946
2328+322709292+322447223+322346424+322641032+323594352+325121313+326815909
2318+328290336+329416273+330359970+331472202+333022715+334947366+336916838
2308+338642363+340007342+340962609+341511648+341824267+342177438+342722358
2298+343398369+344059927+344612636+345059566+345468677+345886289+346306559
2288+346717130+347063336+347183643+346970475+346579936+346272672+346090844
2278+345901079+345667691+345450255+345238997+345018864+344871785+344826515
2268+344761775+344622521+344550704+344645362+344769638+344750392+344618852
2258+344514346+344479336+344481171+344526665+344623233+344701865+344710627
2248+344732007+344875117+345108692+345349194+345635827+346025917+346397173
2238+346568516+346541257+346433044+346312437+346266980+346442704+346853164
2228+347310541+347622710+347741295+347752603+347818616+348041557+348342793
2218+348574196+348716445+348859106+349067406+349354189+349698635+350051318
2208+350379139+350700707+351056274+351477592+351997388+352654565+353458222
2198+354313440+355030302+355498912+355828643+356233149+356816711+357512156
2188+358165813+358666475+359037619+359386708+359761034+360116002+360414429
2178+360691701+361045058+361587133+362342413+363168200+363877536+364465442
2168+365110600+365954996+367021921+368337998+369956059+371851617+373984044
2158+376453953+379406588+382793609+386390167+390013271+393599381+397096188
2148+400347213+403148051+405530229+407900650+410636672+413624954+416517678
2138+419317692+422336566+425691947+429219046+432815341+436579683+440588235
2128+444687176+448596502+452194856+455585285+458821670+461678748+463752089
2118+464705410+464407319+462943901+460606581+457878459+455297641+453149787
2108+451308036+449536867+447931499+446855737+446458907+446445690+446273747
2098+445389735+443365221+440060539+435659239+430443048+424652393+418571212
2088+412503323+406651897+401195766+396352291+392175242+388498892+385254307
2078+382603694+380623776+379088166+377688777+376323049+375107922+374203091
2068+373626455+373202291+372720539+372143417+371569852+371019802+370407894
2058+369734391+369117804+368591530+368060876+367537448+367239058+367349480
2048+367796110+368377389+369048682+369966768+371274644+373004064+375228715
2038+378136980+381858749+386363170+391573856+397376493+403381701+408843598
2028+413023605+415616779+416697484+416366143+414727450+412116153+408936609
2018+405293546+401161467+396856884+392926927+389621758+386784413+384135148
2008+381457463+378701034+376073823+373843555+371993754+370271748+368514995
1998+366761087+365199229+364117402+363634638+363410836+362895459+361889080
1988+360622767+359416176+358488879+357932875+357656465+357389003+356849100
1978+356003880+355160794+354688702+354646765+354818820+355057449+355349661
1968+355534072+355277994+354531775+353742122+353359108+353342109+353351657
1958+353215174+352967970+352622663+352156374+351659757+351337590+351326693
1948+351604939+352159819+353022825+353853817+353866435+352761093+351293406
1938+350336903+349996650+349936553+349980437+350121975+350288413+350339449
1928+350299047+350500757+351210992+352124510+352754091+353234795+353899011
1918+354290300+353699136+352486367+351709370+351776918+352196626+352291622
1908+351879814+351332722+351045677+350973223+350825395+350569654+350502067
1898+350865011+351502530+351974697+352179028+352583534+353378018+353833297
1888+353238801+352007348+351007672+350502217+350279651+350187951+350198211
1878+350273548+350342332+350423847+350918705+352518569+355309222+357926659
1868+358398227+356485708+353933609+352217969+351485306+351212827+350976294
1858+350656074+350375283+350330874+350598036+351182310+352153753+353623724
1848+355772889+358631802+361223741+361619971+359434449+356736656+355267397
1838+354986156+355040075+355163340+356114676+358610983+361840815+363771982
1828+363725664+362965292+362179832+360890490+359190539+358023077+357848402
1818+358281140+358880804+359762494+361279906+363225601+364660263+364872532
1808+364270247+363923293+364660188+366699193+369484716+371774557+372599108
1798+372433344+372902366+375263426+379069144+381806515+381238753+378661605
1788+377047850+377529490+379309796+381462293+383806653+386091889+387725040
1778+388889843+390915256+395018841+400749622+405388504+406383350+404555715
1768+402204578+400719742+401121552+403858586+407555979+409981592+411027511
1758+412152848+413621996+415182131+417849294+422695016+428580927+432538593
1748+433234524+432248478+431666900+432539529+434841128+437574192+439563622
1738+441430909+445399171+451837492+456759337+456391638+453350186+451148001
1728+450447614+451180353+453293010+456245046+459962546+465707407+474454516
1718+484124167+489515557+488581857+485117327+482956780+483472119+486678848
1708+491951505+497910919+503159049+508342739+515584493+524669233+531472444
1698+533705333+533488833+532037921+530263157+530583789+534206257+540143317
1688+547519157+557206818+568818906+576639654+576574801+573816500+573838742
1678+577993549+585283792+593236118+599827622+605837248+612495739+618145979
1668+620590201+621774138+625062645+630765456+636413787+640199810+643339027
1658+648274427+656897896+670069221+684622449+691451684+690622976+691600935
1648+696714267+701529098+701819812+699812821+699393675+701626152+706501716
1638+713850372+721243811+723185425+718567549+713484546+711986267+713511580
1628+715779554+717452396+718401598+717788492+714736968+711133896+709837664
1618+710681424+710082697+705708206+700121433+696043948+693294895+690419881
1608+686725595+682874869+679889546+678157318+677336399+676797133+676222744
1598+675840892+675927312+676234277+676105170+675060412+673210611+671110085
1588+669133275+667204317+665376608+664176457+664105913+665456887+668565326
1578+673111609+676716703+676694012+675027911+675830857+679816905+684196862
1568+686390772+687492745+689858223+694738206+703429823+717659610+735499585
1558+746854658+748432916+749281170+753570513+760069118+767124888+774083379
1548+781146114+789454605+800102963+812782351+825904325+835859597+836736457
1538+829928790+824255897+823270524+824555822+824712412+823933505+824776666
1528+828145190+833045092+838600787+844854285+851253814+856191385+859264777
1518+861336021+862110360+861333624+860853220+863076786+868908666+877664761
1508+886499938+889083864+882950560+876006972+874115533+877062065+882405153
1498+886859249+887415141+884367136+881573001+881928867+884915239+887536009
1488+887409449+885342174+883789003+884156177+885851485+887235036+887766289
1478+888680743+891359102+895762125+899747349+900010055+896498645+893676502
1468+894908255+899509206+903644280+904090012+902673960+903660082+908565077
1458+914577661+916149779+912084425+906706364+902734844+900648697+900182896
1448+900330050+900029451+899329475+898884193+899052541+900312002+903153616
1438+906439913+906988840+903669667+900060080+899433345+901693456+904615275
1428+906225360+906569319+906801097+907500923+908625961+910007414+910992337
1418+910706716+909403370+907799500+905801571+903360306+901097724+899429900
1408+898279700+897686589+897664497+897920688+898358107+899006784+899391707
1398+899098672+898591008+898317443+897831047+896720388+895260976+893471010
1388+890642576+886530942+882624874+881190175+883207126+887698965+892715393
1378+896987512+900491059+903355588+905252868+906447852+908023489+910246680
1368+912182153+913404995+914744885+916786399+918749805+919469551+919083879
1358+918946161+920012861+921869702+923414560+924183208+924447861+924517432
1348+924784406+925837552+927810019+930115812+932159423+933890003+935537233
1338+937101188+938306505+939024753+939529871+940263770+941458828+942979873
1328+944369264+945078376+944988586+944749170+945176629+946351167+947676680
1318+948653964+949185368+949335967+949362178+949660156+950164300+950161828
1308+949184095+947836266+947288612+947947474+948937714+949269691+949155413
1298+949382472+949880101+949859956+948798273+946479825+943058804+939597120
1288+937348991+936319285+935435236+933898465+931730765+929405727+927279889
1278+925135031+922523696+919747759+917706769+916498456+915122844+912870072
1268+910159062+907556265+904819344+901671963+898715846+896658456+895155684
1258+893264769+890640554+887521481+884120681+880880439+878733783+878303179
1248+879068007+879805576+879806475+879290573+878742920+878430638+878533459
1238+879073249+879724248+880385357+881629167+883600660+885141924+885337082
1228+885239952+886650537+889706031+892670760+893832418+893090581+891776676
1218+891307429+892193201+894118489+896466818+898711727+900919566+903825509
1208+907715476+911510410+913924790+915308490+917101901+919675792+921921674
1198+922887650+922897985+923062888+924312764+926847488+930139252+933529943
1188+936816090+940023231+943046298+945904762+948731024+951159183+952449947
1178+952529553+952130027+951742483+951446602+951961006+954480003+958912382
1168+963547632+967269101+970712813+974087253+975767433+974633184+972286129
1158+971543093+973464861+976611493+978963716+980088080+981118759+982898915
1148+984959076+986435412+986972507+986525801+985539156+985488457+987756431
1138+991598620+994666245+996004488+996961478+998725608+1000742858+1002267497
1128+1003876010+1006373590+1009337346+1011682455+1012806968+1012766155
1120+1012369250+1012974642+1015118153+1017810740+1020011241+1021860967
1111+1023646290+1024974424+1025974399+1027652258+1029927422+1031082639
1103+1030364017+1029473977+1030237157+1031989605+1032475102+1031044147
1094+1029796668+1031072904+1034731094+1038625854+1041324058+1043029475
1085+1043744279+1042563674+1039904337+1038777876+1042009879+1048826608
1077+1055276387+1058072694+1057179508+1054627485+1052527034+1052056440
1068+1053074763+1054619397+1056187770+1058122269+1060530583+1062792566
1060+1064455972+1065781859+1067469678+1069884507+1072143644+1072685307
1051+1070837603+1067291895+1063571323+1061796185+1063611388+1068140073
1043+1072207299+1073741823+1073674125+1073599312+1073680265+1073104379
1034+1071090723+1067897586+1065193841+1064524644+1065394839+1065533606
1025+1063470599+1060335126+1058491615+1059004446+1061100478+1063641194
1017+1065531434+1065148683+1061861787+1057653098+1055680406+1057369423
1008+1060963883+1062986825+1061836699+1059551276+1058595934+1058217526
1000+1056124640+1052657039+1050674537+1051635047+1053765752+1054077285
991+1051588691+1048040437+1045398923+1043622736+1041354163+1038095349
983+1034790030+1032875227+1032918437+1033437034+1031946769+1027925898
974+1023421927+1019955599+1016612387+1012301177+1007893886+1004505741
965+1001588341+998091684+993870938+989429273+985664967+983542051+982395070
955+979559372+973720677+967255397+963228161+961918300+961604146+960942887
945+959657290+958081578+956629430+955439839+954519095+954091636+954308735
935+954796554+954961756+954396579+952852319+950512453+948417619+947957584
925+949591184+952180202+953838515+953766998+952936867+952555614+952544680
915+952117596+951122937+949791059+947931148+945656809+943962324+943183942
905+942178874+940563920+940048468+941791929+943943603+943711151+941104684
895+938690005+938224279+939158727+939903635+939449292+937934613+936194372
885+934815315+933631341+932384385+931298439+930575548+930111469+929870630
875+929971204+930455053+931285109+932303881+933086757+933349613+933425774
865+933634411+933443223+932242848+930592248+929625597+929762042+930956951
855+933175649+935543598+936456105+935586434+934163792+932729917+930723676
845+928461992+927405401+928044418+928860694+928184758+926463164+925474796
835+925781911+926585081+927822151+930297415+933526872+935264267+933969758
825+930861469+928744693+929378318+932298115+935703034+938141677+939487410
815+940718489+942884166+946039185+949133021+950964625+951207336+950550870
805+949911329+949548648+948989836+947706186+945216993+941005982+935575276
795+930994020+929285307+930638978+933778944+937503934+941241280+944509304
785+946590808+947151717+946809031+946630349+947056160+947420714+947091507
776+946707184+946994528+946837114+944592130+941049867+938675477+938245846
766+938404084+937961423+936795496+935381916+934763493+935949265+938939456
756+942622209+946013649+948926406+951036068+951539463+950222038+947999820
746+945990134+944566968+943439458+942339583+941499867+941373382+942355609
736+944968441+949258084+953489539+954943933+953160108+950630476+949418343
726+948733495+946984942+944745500+943639558+943355734+942037186+939402562
716+937043374+935715990+934851860+934375874+934724252+935359974+935086933
706+933543572+931388004+929339526+927690648+926354128+924712889+922200106
696+919566755+918826565+920841643+923497012+923848085+921038149+916119374
686+910792162+906601222+904369268+904061180+905126233+906352220+905494906
676+901241434+894998719+887985261+878878541+867986274+862818348+870666205
666+883256926+888321357+883916687+875795115+871304099+874045588+882286905
656+890738732+893733491+888788581+878661142+869520349+865851375+866468075
646+866187097+862371942+857549324+855248025+855788115+856280352+854371389
636+851367269+849733968+848437062+844421808+838528595+835280341+836930416
626+840696295+841381817+836170681+827046437+818651975+813777609+811661507
616+810737317+811869320+817656867+827780412+836364116+837885010+835474450
606+836256352+841130419+845120061+844731993+840111272
##END=
