##TITLE=<SNM>
##JCAMP-DX=4.24
##DATA TYPE=INFRARED SPECTRUM
##DATE=2/5/2025
##SAMPLING PROCEDURE=Instrument type and / or accessory
##ORIGIN=Admin
##XUNITS=1/CM
##YUNITS=ABSORBANCE
##RESOLUTION=4
##FIRSTX=4497.3318
##LASTX=599.83466
##DELTAX=-1.4281778
##MAXY=1.7353003
##MINY=0.20894139
##XFACTOR=1
##YFACTOR=1.6161243e-09
##NPOINTS=2730
##FIRSTY=0.23076516
##XYDATA=(X++(Y..Y))
4497+142789238+144047957+145069484+145171156+144517861+143562674+142414442
4487+141094509+140065808+139990589+140885088+141906228+142280425+142136477
4477+142072258+142282223+142641390+143243836+144127335+144760770+144522277
4467+143517310+142431794+141814283+141815343+142284233+142830416+143087312
4457+143083716+143080738+143054257+142696519+141996928+141403343+141165164
4447+140952848+140517935+140219612+140364427+140540064+140228326+139676315
4437+139570881+140123196+140859732+141092536+140440854+139138817+137936674
4427+137549956+138131729+139266721+140308127+140648956+139972305+138504838
4417+136941545+135975081+135857310+136368161+137082412+137613751+137693470
4407+137204969+136326440+135512333+135045352+134755982+134399663+134015305
4397+133731984+133573081+133586911+133878190+134437641+135044743+135349142
4387+135194693+134856677+134587803+134040200+132742221+131058491+129970984
4377+130021023+130942804+132050181+132698830+132717759+132540305+132660225
4367+133052982+133386997+133503025+133403916+133101444+132718856+132487934
4357+132503009+132748546+133342029+134301955+135153082+135305069+134727417
4347+133805709+132823000+131951838+131310731+130753078+130062735+129438115
4337+129285463+129595524+129954719+130017547+129725632+129334294+129347590
4327+130086828+131201323+131860169+131552193+130593143+129781866+129613946
4317+129968181+130533441+131144019+131568135+131519424+131159546+131079652
4307+131482589+131882879+131857975+131581126+131440000+131578203+131883718
4297+132129992+132199670+132295359+132664530+133104911+133213074+133080809
4287+133144816+133417092+133453908+133045855+132447125+131945734+131594818
4277+131350130+131242612+131441383+132162162+133386305+134647486+135236894
4267+134788114+133732482+133031379+133244211+133986077+134529107+134635703
4257+134490372+134296174+134283948+134572876+134884965+135004616+135295877
4247+136027849+136614906+136337273+135392192+134604086+134499537+135013108
4237+135735842+136285216+136547994+136519319+136117249+135488701+135143972
4227+135360649+135763770+135809402+135423845+134977085+134853450+135091186
4217+135347317+135367518+135385646+135762231+136426775+137015621+137283784
4207+137201152+136981883+136950258+137054512+136822197+136101861+135375411
4197+135119815+135380897+136049738+137024795+138051208+138831864+139309430
4187+139542750+139443152+138976180+138451923+138249805+138371983+138554425
4177+138705942+138957214+139357744+139792620+140166771+140471843+140644493
4167+140546306+140204067+139911396+139931865+140217584+140505128+140549958
4157+140255940+139720600+139211243+139073879+139517302+140278558+140661422
4147+140266221+139505195+139068070+139164948+139501452+139674748+139540647
4137+139399881+139657911+140243419+140740431+141071218+141543104+142155969
4127+142334207+141640415+140519660+139890429+140020094+140283288+140120356
4117+139729784+139685683+140258882+141150319+141690454+141421590+140607087
4107+139985361+139939463+140183340+140437073+140981237+142057957+143146765
4097+143501709+143092936+142393244+141696825+141250360+141445231+142312769
4087+143308203+143899833+143971069+143603041+142943429+142325853+142110411
4077+142315674+142596810+142634964+142441134+142240528+142171173+142151193
4067+141983568+141602594+141218042+141105121+141268680+141517287+141786567
4057+142122674+142443578+142611517+142632760+142552709+142378197+142246540
4047+142380917+142788583+143235648+143515641+143567506+143407081+143098828
4037+142749535+142511900+142633986+143354627+144569808+145677729+145990040
4027+145413217+144603693+144308256+144651288+145200763+145528314+145516890
4017+145349772+145301467+145383389+145320562+145010345+144706693+144635955
4007+144795936+145145174+145665863+146294208+146910798+147258339+147009538
3997+146200604+145365954+145049559+145459125+146502993+147698618+148347100
3987+148366573+148481744+149075845+149482968+148983928+147993667+147596706
3977+148228416+149381886+150366403+150844909+150731020+150081615+149209752
3967+148632754+148784760+149743267+151121287+152281220+152802527+152706572
3957+152264227+151773781+151477588+151624430+152552786+154259861+155831011
3947+156256583+155945711+156036015+156382680+155827636+154299306+152993590
3937+152805717+153943282+156358762+159405576+161461464+161204531+159386674
3927+158125262+158518508+159730794+160584060+161355855+162898855+164728329
3917+165104924+162958049+159195168+155731579+153759798+153424667+154958659
3907+159317817+166839097+175416859+181307306+182677905+180380131+175602795
3897+169853455+165763696+165489890+168501186+171124032+170335124+168416101
3887+169184669+172161427+174038349+174589133+175753510+176020143+173054469
3878+169588924+169729682+173509546+178471140+183058243+185727687+184680703
3868+181875591+181139737+182215027+181388519+177379382+173193824+172123826
3858+175815895+184954159+197720668+205131342+198790169+185717065+175251668
3848+170473963+171157907+175516751+181308616+187232939+192921167+197104678
3838+197466225+194046893+189813979+186544846+183743072+181172174+179871004
3828+180160134+181291706+183964396+189981807+197528443+200599838+198232008
3818+195432576+193152265+188493576+182083730+177927198+178647267+183980753
3808+190367751+193716455+195236109+198645520+202737640+203001931+199988181
3798+197106799+194091316+189932497+186459669+185647968+187067951+189512844
3788+192769825+196641966+200042231+202841590+206765180+212392425+217211271
3778+219075617+219733633+222448939+228994767+239175275+250611922+260039002
3768+266809086+272608677+278317854+284758477+293999584+306855420+320582225
3758+331810603+341696652+354972270+375395580+401937116+426446792+441985626
3748+453168456+466302229+478770923+482437691+479286670+479081241+486522324
3738+501037298+518064438+530235352+533264038+530226353+527007212+526687378
3728+528790715+530880552+530818739+528627405+525760258+523522822+523015004
3718+525084447+530042869+538132618+548848679+558212711+560422081+555965354
3708+550834918+549503542+553260190+560336480+566464664+568646484+568129999
3698+567440283+567949982+571026355+578428270+590457671+603229307+608888915
3688+604410834+596285716+590907585+589797534+591894416+595790512+601311151
3678+608494176+613387761+610252857+602541472+597927557+596452419+593001111
3668+586485010+580068931+575491123+573148464+573246457+575442439+578823858
3658+582019542+583857001+585772649+591738667+604212597+620321615+630502382
3648+627639145+616620068+605863253+599932605+599414903+601789685+604202750
3638+606450661+609398725+612179311+614293527+618734801+628359731+638676147
3628+640137381+633633525+628491249+629738572+636960211+646133531+651990859
3618+653497531+654901525+658816615+663326672+665548323+664810035+661945544
3608+658509911+656913470+659075152+665176561+673502054+680817593+684247694
3598+683528879+680391541+676732850+674886944+677899845+687060773+698618685
3588+704278256+699952310+691220090+684354576+680411752+678233547+677636882
3578+679066767+681412192+681831679+679331501+677194160+679210457+684815370
3568+689741890+691041511+689933009+688267748+685463447+680691754+675344493
3558+672272730+673284750+677751140+682851961+685326175+684358485+682910307
3548+684679868+689966644+695074768+696025566+692629321+687855711+684514788
3538+683277349+682921445+682451210+682377374+683241501+684138452+684246957
3528+684756803+686889349+688950493+688052435+684312900+680844295+679918797
3518+681635545+685520687+690689959+694563520+694528483+691493380+689033771
3508+689227545+690968339+691659124+689898857+687058339+685528874+685452383
3498+685180125+684592903+685243340+686743963+686275424+682926019+679277507
3488+678026864+679522546+682644025+686391821+690184539+693271792+694870372
3478+694629980+692416738+688486306+684111308+681146942+680418759+680831534
3468+680756886+680422374+681514058+684053478+685620561+684742419+682933985
3458+682060933+682103051+682187362+681921522+681262307+680321688+679528963
3448+679254198+679254935+678597860+676643671+673913796+671713979+671215197
3438+672729688+675345526+677335563+677750108+676969258+675691840+674619261
3428+674606721+675740450+676913568+677288429+677256416+677517756+678116412
3418+678439270+677897633+676855886+676405418+676824536+677044791+676073709
3408+674485455+673617566+673487450+672810089+671324071+670484064+671315662
3398+673222642+674873962+675142384+674066190+673488335+675367802+678856544
3388+680619762+678832572+675343313+673279292+673610264+674393916+673391190
3378+671100939+670047095+671212247+672862903+673219471+672663523+672637706
3368+673900814+676383953+679390953+681605597+681918202+680493923+678323168
3358+675995815+673760887+672205384+671896836+672623765+673750634+675234292
3348+677666977+681318440+685138966+687111374+685830268+681659296+676790532
3338+673597577+672826095+673490769+674211502+674538712+675322364+677735281
3328+681340716+683363504+681279125+676216365+671931873+670692369+671676950
3318+672901038+673439061+673602445+673971036+674733592+675601850+676257156
3308+676810890+677531328+678263199+678453801+677940562+677352823+677252432
3298+677411538+677607377+678508681+680500119+682218489+682021839+680374723
3288+679152701+679424073+680956930+682947189+684515600+685259494+685413657
3278+685033338+683862728+682264370+681035340+680224469+679207875+677830066
3268+676724736+676591300+677271537+677546302+676442078+674747533+674507142
3258+676567401+679201753+679829692+678172693+676829036+678147761+681509190
3248+684469572+685760857+685877844+685420075+684232130+682243421+680017787
3238+677887748+675579058+673460379+672958868+674623760+676749151+677070608
3228+675447170+673806988+673876325+675847700+678564961+680366609+680284290
3218+678933626+677936579+677941595+678000752+677183317+675632830+674006147
3208+672794673+672302308+672618454+673285045+673523151+672991397+671664116
3198+669433613+667058683+666378815+667935866+669492106+668620161+665794616
3188+663197145+661824869+661046970+660077584+659353827+660168385+662579311
3178+664501487+663962873+661523475+659297693+658430542+658381269+658161014
3168+657676100+657680157+658425010+658787774+657452673+654887879+653132185
3158+653544665+655565092+657515076+657906976+656240683+653366602+651021178
3148+650336367+650751724+650649710+648995218+646291456+643935483+642762218
3138+642430656+642148957+641504789+640595372+639917274+639975989+640650694
3128+641143353+640731169+639519547+638382794+638011400+637948259+637120497
3118+635460916+633909470+632796837+631650569+630445438+629666801+629334059
3108+628998514+628583231+628394030+628454884+628619080+629154743+630348957
3098+631613761+631825091+630468894+627852098+624661429+621951544+620796351
3088+621249178+622349050+623408426+624447813+625447147+625913547+625156965
3078+623001036+620351784+618438755+617347809+616353122+615550181+615590271
3068+616139727+616205265+615492351+614257715+612742561+611427893+610749758
3058+610390571+609814339+609319172+609540016+610272994+610649883+610125322
3048+608946118+607710302+606537627+605085871+603452365+602424190+602467562
3038+602912866+602625598+601421463+600367545+600456945+601441711+602350686
3028+602612727+602144593+601015475+599602112+598483505+597808025+597181303
3018+596210884+594887217+593564066+592581550+591742355+590434473+588463798
3008+586416632+585129699+585086179+586037419+586945288+586762652+585479960
2998+584019500+583119451+582735001+582425051+581902112+581087848+579859851
2988+578120754+576266587+575139866+575118253+575581813+575736088+575494553
2978+575031693+574277952+573431196+573056335+573093806+572590304+570945253
2968+568795779+567316842+566970416+567018214+566208967+564136094+561807045
2958+560524279+560599074+561566543+562921411+563950692+563641111+561739442
2948+559295139+557436694+556313919+555636374+555371677+555360981+555015921
2938+553949021+552419040+550905213+549652506+548833669+548801766+549783766
2928+551297740+552174001+551435713+549154646+546362922+544224733+543200836
2918+542737460+541818823+540108456+538369137+537499257+537525775+537772842
2908+537653347+537044991+536171939+535340562+534551488+533443539+531947342
2898+530675972+530154509+529974491+529301925+528065556+527033656+526709728
2888+526723006+526468636+525856850+525132614+524411217+523669462+522864676
2878+521938626+520969129+520209118+519679134+519062370+518292917+517763155
2868+517658080+517605893+517233172+516610580+515979284+515413231+514909950
2858+514519857+514118700+513249741+511623906+509731383+508461009+508041190
2848+507781805+506978347+505706830+504578560+503947042+503546955+502932440
2838+502068534+501211894+500320327+499057477+497457496+496064345+495223010
2828+494668353+493967758+492978234+491858779+491080474+491173525+491944232
2818+492325179+491551263+489996129+488379736+486864618+485360971+484005401
2808+482936546+482088389+481433378+481074340+480972142+480827826+480357184
2798+479601709+478894032+478495494+478250418+477675219+476506821+475035887
2788+473671983+472347652+470751875+469031513+467719464+466963694+466375697
2778+465740344+465331884+465292200+465165845+464408895+463047092+461502802
2768+460113892+459110206+458614707+458353956+457755964+456573921+455119252
2758+453859610+453063935+452723669+452588794+452346669+451851317+451146369
2748+450316689+449372382+448274133+447090578+446032308+445180241+444345435
2738+443406734+442553819+441938640+441350974+440544603+439637288+438856586
2728+438144594+437392402+436827345+436679562+436611589+435990694+434708850
2718+433334914+432428964+431938443+431332632+430270896+428976623+427829469
2708+426850973+425882251+424981280+424270099+423638361+422945473+422306727
2698+421869426+421489734+420947433+420342470+419929216+419624024+419029462
2688+417970307+416735154+415717675+414999192+414386226+413747333+413113676
2678+412484077+411802733+411096753+410343564+409355111+408131539+407091968
2668+406621659+406618598+406627855+406237467+405433087+404673039+404354349
2658+404233120+403758385+402821049+401736704+400744599+399945419+399445531
2648+399210377+398976697+398506757+397788089+396926175+395987068+394983124
2638+393936251+392980216+392374626+392254430+392379605+392323656+391888790
2628+391183215+390412545+389748277+389258421+388845204+388362760+387850037
2618+387526479+387492142+387502174+387166555+386377997+385382425+384433471
2608+383618913+382975594+382461137+381851823+380969698+379974347+379228129
2598+378920503+378908480+378851535+378495004+377887091+377283604+376829042
2588+376456100+376093262+375769740+375473141+375110746+374671085+374242783
2578+373845425+373390901+372808657+372154605+371613669+371314562+371104302
2568+370703145+370103087+369537588+369086346+368648566+368258067+368072370
2558+368056548+367961358+367623378+367077130+366394422+365656060+365070128
2548+364843603+364885722+364835674+364416334+363665175+362895021+362482873
2538+362533695+362695973+362489438+361887905+361395688+361402622+361632835
2528+361510205+360962113+360442936+360212612+360069145+359806624+359497707
2518+359270592+359127899+359020095+358901374+358714571+358462672+358263809
2508+358204762+358200262+358117648+357931546+357629783+357141992+356489047
2498+355827250+355263300+354759096+354261274+353854695+353748330+354059460
2488+354613047+355041422+355033935+354435390+353324122+352109660+351303104
2478+351101364+351333310+351707987+351948968+351865580+351485224+351027823
2468+350689475+350507835+350401063+350251621+349971434+349571457+349189810
2458+348972322+348883844+348730492+348421538+348104765+347976750+348043321
2448+348121361+348025396+347734883+347419253+347271839+347273868+347197228
2438+346904945+346517581+346201730+345987008+345876512+345899304+345966207
2428+345912914+345749087+345645783+345618306+345417304+344872236+344218443
2418+343864309+343898498+344091129+344320640+344652276+344994608+345040636
2408+344645675+344048973+343632105+343555023+343682595+343794788+343779335
2398+343665077+343586888+343681489+343920368+344106545+344081871+343838824
2388+343427930+342853210+342037398+340836324+339111684+336790896+333896199
2378+330618970+327298960+324169920+321216840+318454289+316166288+314630665
2368+313757502+313178061+312518477+311565503+310525342+310164643+311361402
2358+314438550+319003229+324404410+330363531+336891176+343385111+348461037
2348+350963613+350871188+349377388+347914126+346889602+345726921+343689418
2338+340451284+336388079+332224668+328427230+325253674+323014431+321815791
2328+321304875+320952143+320486665+320037784+319916924+320282639+321068799
2318+322127585+323262420+324252644+325022872+325695216+326414953+327230102
2308+328102749+328919152+329544030+329964255+330327388+330768819+331240899
2298+331588762+331784380+332001205+332421282+333019311+333586876+333968634
2288+334218689+334465313+334695858+334801559+334760400+334623423+334396345
2278+334088461+333816831+333721161+333808828+333971068+334118556+334222709
2268+334264348+334243030+334216992+334250628+334351572+334500351+334678634
2258+334861491+335039001+335202090+335287101+335233439+335102990+335050618
2248+335180367+335450226+335702752+335845630+335976116+336196444+336407811
2238+336506247+336651927+337080229+337751320+338417911+338968880+339516787
2228+340165639+340840639+341386075+341772885+342179317+342856493+343881127
2218+345088065+346291315+347454401+348596391+349745647+351059762+352741362
2208+354764186+356881943+358938809+361017619+363248933+365586797+367865762
2198+370021875+372112782+374158473+376142941+378124274+380174206+382250730
2188+384216241+385958252+387503686+388990700+390451787+391728061+392708733
2178+393488771+394186969+394784408+395204596+395387343+395249444+394738934
2168+393978996+393190513+392392735+391352574+389904690+388147595+386297117
2158+384436422+382369303+379806501+376799390+373708743+370702813+367693047
2148+364601552+361358033+358218740+356321901+356954304+360048675+364262355
2138+368489829+372512538+376464877+380473903+384632851+388927670+393285924
2128+397660037+402025262+406490546+411320179+416647856+422308239+428012843
2118+433592197+439095577+444615516+450020570+455114347+459984328+464842950
2108+469746530+474853252+480721718+488094755+497530152+509204793+522725007
2098+536902703+549937524+560324604+567682445+572477300+575294177+576564846
2088+576342083+574133746+569289397+561342268+550074869+535853285+519715020
2078+502857719+486321542+470886787+456893792+444464082+433815403+424956754
2068+417490592+411056110+405516550+400751680+396728897+393456684+390665366
2058+388046098+385694699+383818809+382362554+381178003+380138432+379141200
2048+378275561+377675319+377247829+376958791+377036721+377595766+378614684
2038+380416664+383644361+388825472+396278209+406249232+418974324+434552400
2028+452441269+471031914+488188654+502410976+513384210+521625209+527749816
2018+531972974+534282661+534870916+534064472+531906477+528006472+521917198
2008+513751400+504212366+493905281+483025541+471806567+460729365+450106393
1998+439945246+430450765+422165951+415211038+408796176+402070294+395177931
1988+388902111+383702928+379541030+376162046+373284646+370794758+368763856
1978+367131272+365619843+364080531+362646515+361557597+361024147+361048378
1968+361165808+360675914+359405430+357916941+356770930+356003653+355451689
1958+355089110+354811247+354359304+353727418+353262862+353207208+353453981
1948+353891097+354767210+356351812+358041341+358372387+356728554+354341306
1938+352719934+352135071+352056477+352090555+352132489+352161220+352150414
1928+352193602+352739038+354157711+355881392+356934462+357448328+358124988
1918+358400417+357100538+354751278+353192013+353338210+354503362+355309032
1908+354931221+353726939+352677631+352304319+352357022+352445058+352636287
1898+353269759+354257918+355014942+355464856+356388620+357929480+358701331
1888+357617650+355599841+354119502+353496468+353363142+353490751+353726791
1878+353917393+354089260+354470796+355638492+358514195+363287585+367950773
1868+369167853+366141343+361632577+358377956+356978572+356681604+356657484
1858+356554659+356466144+356587262+356923434+357473923+358476208+360283830
1848+363304661+367650375+371792727+372538576+369088559+364796801+362642421
1838+362626341+363178822+363594104+365028563+368749694+373520575+376047308
1828+375385622+373879135+372683962+370747697+367978692+365907590+365354003
1818+365694306+366197587+367099112+369062963+371803349+373766905+373754992
1808+372419044+371442798+372107988+374819053+378777183+381967076+382750102
1798+381860637+381834120+384598847+389536063+392775193+390654449+385204473
1788+381355328+381051648+382914998+385180685+387430219+389365561+390206969
1778+390454958+392400185+397944576+406138994+412350087+412395414+407817643
1768+402444749+398458073+397403529+399921705+403871131+405903360+405972180
1758+406233004+406918405+407739049+410503260+416845909+424755862+429502549
1748+429246114+426646688+424721341+424719165+426496545+428778866+430100873
1738+431463745+436131175+444824337+451775895+450812299+445091062+439638395
1728+435837821+434383668+435741561+439066957+443896996+451835643+464267861
1718+478078441+485294769+482706703+476061886+471096678+470050579+473427534
1708+480705491+489703145+497526611+504473227+514039737+526835862+537011687
1698+540226328+538824879+534423658+528851753+526430501+529214959+535804048
1688+545051683+558448788+575497503+586949787+585545018+579325922+576946456
1678+580466953+588466232+597510615+604866391+611617905+619051795+624083132
1668+623673897+621867971+624290552+631067403+637335736+639378365+639695028
1658+643288439+653341228+670352472+687990475+692000792+685429664+683755699
1648+689084888+692733695+687093302+677192906+670927598+670521978+675667204
1638+685252781+694565364+694531802+684011802+673146888+668194035+668568453
1628+671210034+674005041+676527126+677483530+675121657+671705718+671844465
1618+675951632+678143409+673624205+666762527+663101623+662909398+663638319
1608+663471173+662654549+662164250+662175167+662080751+661524877+661032365
1598+661371230+662496107+663546927+663845075+663385461+662387750+661058329
1588+659812113+659200253+659500983+660491022+661820000+663942146+668259241
1578+675228686+681538990+682034895+678527933+677508241+680728709+684232573
1568+684078631+681889730+681232949+684164785+692904013+709749586+729945670
1558+735831471+724509821+711838612+703970814+700403220+700157959+702079250
1548+705721787+712337172+723155468+737707103+754202231+767103430+765912757
1538+753044971+743598362+743112710+746960897+748309570+746939654+747801789
1528+752918100+760511870+768930600+778395576+787657558+792809275+793031226
1518+791231644+788001512+782975265+778891850+779617009+787053886+800888845
1508+816730216+821972366+809609410+793851686+785997387+786393417+791951787
1498+798141931+799976477+797011817+794790977+797974638+805680306+811771757
1488+810685531+804225342+797933552+794711535+794174249+794967564+797043461
1478+801633772+809287363+818604741+825923894+826438756+819814740+812291782
1468+809321737+811521186+815593094+817718633+818712360+822906346+832263924
1458+842457452+843912637+835239058+825520782+819686910+817563363+817706241
1448+818274507+817785166+816198536+814473601+813745050+815509300+820982695
1438+828770165+833534556+831528217+826980836+825167829+825803513+825601257
1428+823857070+823202207+825067585+828203006+831595046+835539567+838564565
1418+837157988+831597037+826116488+823061099+821865189+821105731+820268527
1408+820246988+821785968+823664845+824175502+824176535+825773271+829004730
1398+832184113+834034370+833569298+830258249+826135961+824556190+826362633
1388+828843559+828413376+825194826+823157802+825105057+830201968+836114471
1378+841871409+847763701+853346486+857157939+858707835+859265111+860030470
1368+861269753+863392120+866967312+871016206+872856948+871008388+866968050
1358+863143909+860781150+859647864+858528666+856378565+853406159+850788404
1348+849360805+848992067+849344578+850772914+853801157+857685635+860247553
1338+859869004+857185600+854172773+852456910+852623540+854099895+855678633
1328+856712561+857626773+859117143+861353104+864040713+866672557+868640466
1318+869645258+870009128+870195821+870278582+870230710+870322913+870861600
1308+871864180+873239997+874959768+876786348+878124915+878522937+878181565
1298+877625912+877159291+876848530+876513796+875540943+873358238+870213081
1288+866737321+862935751+858529920+854081012+850801829+849245589+848664045
1278+847715682+845762231+843447786+841999166+842098450+843406848+844928567
1268+845784802+845760313+845214102+844607848+844222513+844155389+844351819
1258+844714509+845307116+846295681+847668695+849256284+850957541+852629441
1248+853961074+854918732+856041323+857822907+860085718+862222690+863827097
1238+865056791+866543989+868779065+871548181+874242797+876553406+878501915
1228+880127492+881527798+882807724+883818786+884502269+885350906+886895196
1218+888978248+891133439+893497009+896620185+900406117+903893605+906203181
1208+907273769+907666628+908164672+909627382+912691843+917187074+921886627
1198+925269520+926788437+927152233+927387314+928067182+929206001+930454062
1188+931760099+933810032+937113188+940988372+944273456+946624118+948543343
1178+950691158+953292243+955741157+957204604+957999025+959211164+960885866
1168+962221483+963349458+965261160+968043110+970668095+972503526+973769806
1158+974984673+976680693+979131893+982003613+984359217+985420437+985417929
1148+985353830+985832990+986507622+986892145+987518757+989463283+992573182
1138+995248251+996644205+997771369+999449170+1000562171+999761185+997951276
1128+997395402+999157882+1002336379+1005137140+1006477034+1007249696+1009513613
1118+1013408344+1016423753+1017272169+1017778622+1019163512+1020002265
1110+1019606160+1020062455+1023282850+1028487602+1033015362+1034291010
1101+1031746353+1027777417+1025706684+1026606290+1028907974+1030841214
1093+1032196451+1033519012+1034992343+1036952875+1040224830+1044596509
1084+1048173103+1049511154+1049351163+1049283818+1050141380+1051721298
1075+1053083469+1052921118+1050839468+1048354632+1047834828+1050605198
1067+1055294203+1058832957+1059760962+1059101083+1057763106+1055590433
1058+1053667446+1054361625+1057948398+1061868282+1064222779+1065544012
1050+1066062709+1064252653+1059998108+1056207014+1055723280+1058356599
1041+1061308056+1061971844+1060985861+1061622653+1065335559+1069544002
1033+1070632662+1067829541+1062968596+1058180675+1055080071+1054474555
1024+1056001438+1058412290+1060151903+1060230386+1059605618+1060861277
1015+1065335264+1070976616+1073741823+1071524302+1066103943+1060720317
1007+1057016630+1054822492+1053189466+1051410242+1050000199+1050003297
998+1050911976+1050358979+1046902913+1042083275+1038277501+1036134555
990+1035188699+1035041838+1034990204+1034197037+1032809786+1031428142
981+1029712132+1026988085+1023409205+1019758849+1016717180+1014455107
973+1012619676+1010809398+1009051418+1007121792+1003720089+998326063+993289931
963+991239335+991202159+989808123+985805034+980855427+976540987+973226840
953+970791721+968446296+965123003+961020557+957580350+955830041+955705677
943+956351394+956462258+955519574+954682961+955045577+955746689+955347265
933+954153199+953495385+953544437+953275352+952288263+951478056+951844508
923+953239577+954676322+955453778+955418299+954683403+953637378+952770595
913+952174521+951548057+950723540+949806451+948859342+947965119+947385494
903+947230224+947151741+946617701+945553604+944689255+944953104+946312693
893+947544305+947454536+945996178+943964170+942261364+941509504+941578398
883+941409482+939997447+937528323+935017228+933202303+932269872+932389441
873+933836217+936211958+938208339+938691852+937788114+936594785+935738625
863+934429931+931608149+927972840+925840958+926571354+929100226+931381624
853+932451254+932728600+933014651+933646132+934193375+933796238+932186151
843+930177452+928973797+929529966+931791301+934335737+935614187+935570004
833+935431699+935982041+936673490+936719887+936390095+936677399+938084713
823+940167248+941881119+942245210+941390377+940701510+941206930+942393473
813+943380119+944387641+945897189+947182500+946845774+944552869+941682182
803+940195868+941073863+943585031+945888928+946739335+946559060+946714403
793+948388073+951808512+955173112+955482914+951923655+946937535+943496221
783+942989621+945478513+949676039+952919153+953618052+953232275+953682373
773+954392484+953618864+951113817+948240253+946345960+945842826+946290859
763+946998020+947730924+948624334+949532940+949943576+949206468+946844815
753+943617708+941944481+943634231+947179107+948980607+947777320+945781603
743+945065370+945507133+946650230+949084538+952880723+956514556+958318122
733+957770878+955463662+952918268+951655455+951475401+950308257+946792887
723+942504412+940628854+943159791+949066319+954435266+955316285+951424873
713+946477552+944567769+946693381+950176370+951266800+948821501+944748265
703+941409482+938848228+935540794+932613457+933188140+936759202+938273914
693+934288381+927203203+920655605+915063084+909635422+905324670+903892204
683+905781260+909527802+912355707+911763616+907431916+901768288+897988995
673+896724190+895211322+891305748+887842601+889525123+894076708+896259192
663+894833216+891463674+888190096+885669781+883341985+881020902+879211583
653+877711476+875819838+873896925+872631899+871376905+869241629+866448688
643+863053255+859097080+856523287+857959884+862979566+867613102+868753617
633+867060621+863810132+858726202+853005851+849326653+848742307+850210033
623+852797472+856528966+860308038+861460060+859034824+855979879+856050027
613+859105563+861576973+860569673+855361381+847885630+841048589+836106579
603+833376925+834411739+838952113
##END=
