##TITLE=<SNM>
##JCAMP-DX=4.24
##DATA TYPE=INFRARED SPECTRUM
##DATE=3/5/2025
##SAMPLING PROCEDURE=Instrument type and / or accessory
##ORIGIN=Admin
##XUNITS=1/CM
##YUNITS=ABSORBANCE
##RESOLUTION=4
##FIRSTX=4497.3318
##LASTX=599.83466
##DELTAX=-1.4281778
##MAXY=1.7065555
##MINY=0.17865299
##XFACTOR=1
##YFACTOR=1.5893537e-09
##NPOINTS=2730
##FIRSTY=0.19989464
##XYDATA=(X++(Y..Y))
4497+125771024+126053990+126702004+127062937+126900973+126413526+125846573
4487+125419889+125367545+125783494+126441362+126856073+126637837+125888970
4477+125181280+125019166+125360129+125780522+126037742+126231836+126408538
4467+126354216+126001168+125707908+125789223+125989129+125749948+124924088
4457+124051303+123907191+124679375+125600576+125720349+124999505+124197825
4447+123794074+123635757+123551067+123593023+123650224+123436947+122974589
4437+122596818+122418494+122269093+122177794+122421803+122968251+123295094
4427+122953766+122078909+121200405+120642584+120238055+119672583+118971878
4417+118497707+118568324+119187724+120055474+120778727+121068115+120773355
4407+119947955+118946274+118222983+118002731+118234102+118560336+118274774
4397+116963332+115329707+114627155+115253436+116554330+117745670+118382387
4387+118328112+117848033+117326262+116660622+115487958+114000676+112853336
4377+112406063+112652051+113494009+114486839+114850332+114388049+113860033
4367+113965574+114545709+115085125+115359962+115324166+114969974+114601119
4357+114743928+115465691+116138138+116202501+115925958+116023661+116661015
4347+117245725+117221939+116722529+116305408+116242169+116246060+115939750
4337+115401599+114982575+114741472+114478917+114229423+114253771+114619401
4327+115154252+115626060+115781114+115600868+115585952+116194644+116990296
4317+117119680+116607978+116260742+116377806+116519997+116534792+116872792
4307+117680097+118346047+118281177+117685582+117229496+117227443+117421059
4297+117452326+117321405+117315930+117557455+117846008+118068182+118459539
4287+119177439+119891448+120134745+119882410+119472517+119112503+118807046
4277+118662605+118851355+119221757+119305875+118899789+118397304+118359960
4267+118922441+119735653+120331520+120437033+120105924+119767090+119982044
4257+120824143+121704035+122135641+122299311+122531798+122822151+123038934
4247+123042928+122594746+121837731+121536755+122154008+123179831+123847009
4237+123907978+123531997+123099904+123092825+123616143+124168217+124276683
4227+124166679+124422765+125081298+125478168+125181195+124656171+124558186
4217+124768303+124801221+124802815+125328514+126287527+126839544+126427524
4207+125495110+124991602+125333793+126018006+126235333+125776397+125220292
4197+125239502+125878506+126626633+127099961+127400356+127704247+127811889
4187+127466979+126942704+126854358+127380648+128059555+128409490+128405271
4177+128255196+128038919+127780171+127694834+128087166+128955132+129866779
4167+130387772+130539291+130637238+130753637+130636685+130219902+129874561
4157+129905575+130039524+129791577+129233081+128957504+129232734+129585332
4147+129443948+128905966+128512491+128478842+128596468+128771436+129191444
4137+129983740+130992040+131902336+132532659+133040432+133738672+134589349
4127+135075699+134755288+133808529+132920425+132655085+132964987+133303943
4117+133205968+132712867+132268548+132271107+132677006+133043536+133001130
4107+132587347+132152337+132145709+132851083+134033732+135025774+135352571
4097+135060427+134467513+133899548+133537977+133289411+133006858+132902677
4087+133380148+134395780+135310933+135499318+134972202+134317456+134105427
4077+134496765+135301680+136132696+136599649+136627851+136472515+136283409
4067+135918745+135319615+134772408+134626401+134913323+135386838+135859744
4057+136329219+136775798+137134340+137551058+138303797+139289258+139915155
4047+139777803+139226357+138903180+138850142+138547291+137842667+137269020
4037+137317820+137950065+138933323+140138707+141322472+142011983+141920598
4027+141347139+140876774+140690753+140511660+140305743+140519282+141341017
4017+142210858+142428888+141934212+141172453+140522498+140176679+140306362
4007+140906148+141579270+141907876+141970214+142118621+142369700+142448005
3997+142357502+142420140+142702187+142864835+142735714+142594470+142704278
3987+142963954+143165586+143203323+142995859+142609790+142402036+142654859
3977+143178018+143602967+143901487+144281527+144751367+145138908+145366051
3967+145430827+145388702+145535506+146149280+146894313+147056933+146501081
3957+145794245+145448660+145614477+146352731+147613310+148904303+149454211
3947+149075577+148597402+148880208+149657821+149935611+149351145+148452371
3937+147896772+148118665+149366643+151337640+152877397+152862714+151626137
3927+150658705+150819347+151517164+151866068+152006674+152563014+153383792
3917+153491283+152228604+150170958+148554087+148055961+148598218+150251757
3907+153640590+158915309+164618549+168344923+168869338+166592921+162362214
3897+157589672+154495327+154640508+157262182+159359825+159047899+158462748
3887+160169353+163078361+164334149+164131505+164438500+164385921+162364052
3878+160312556+160891406+163698933+166909198+169847458+171761583+171216879
3868+169210123+168357636+168699152+167850791+164938389+161984434+161439298
3858+164761921+172515982+182901552+188589623+183615749+173679795+165637847
3848+161700634+161873970+165037057+169451714+173912667+178096102+181280603
3838+182024914+180330347+177949055+175724222+173285551+170935348+169830620
3828+170197019+171375177+173919642+179059277+184890645+186598993+184149034
3818+182046253+180883471+177901727+173440511+170639304+171346093+175172693
3808+179590406+181980755+183460226+186609025+190071213+190126679+187483582
3798+185301615+183586497+181125681+178711742+177902477+178902723+180981690
3788+183612561+186466122+189111807+191642828+194807078+198564354+201504508
3778+202842014+203824372+206284757+211331498+218840875+226837071+232770632
3768+236555773+239934987+243743416+248558898+255732478+265580526+275894785
3758+284358731+292073639+302305131+317125721+335111368+350598527+360036467
3748+367617436+377921194+389392592+396059888+398054231+401888856+411300919
3738+426032479+443157032+458315219+468476694+473765776+476226236+478079794
3728+480778320+484095561+486338620+487001925+488015954+491218550+496440278
3718+502345937+508250247+515006200+523681790+532943093+539667019+543782124
3708+548043039+554347688+563186113+573099172+580466376+583297398+584086000
3698+585987186+589918380+595749110+603390907+612297400+620211241+623505418
3688+621564516+618327905+616444083+615642055+615474345+616444533+619693369
3678+625433868+630244757+629640742+626580731+627025285+630333338+631146841
3668+628055177+624835704+624512733+627395659+631447910+634103008+635189229
3658+636561143+639075982+642288516+646953220+655235110+667441480+677727500
3648+678095474+669980770+660743619+654813282+653112546+654894513+658764990
3638+663307961+667594115+671626603+676264830+682043506+687643446+690314670
3628+689750933+689074164+689415061+689794511+690859055+694203598+698803048
3618+702047159+704355885+707736505+711692413+714509671+716443072+718013824
3608+717287177+712745631+706898400+703764471+704995451+709980576+717883091
3598+727337682+734464121+734748765+728866056+723030976+722110141+724901373
3588+725819583+722045937+717457588+716079973+717708930+720324650+722543820
3578+724141499+725357178+726102201+726397121+727222774+729849445+733759225
3568+735664949+732133419+724250031+716839923+713721595+715796305+720714300
3558+724889747+727594124+730897189+735208395+738248493+739098823+739116374
3548+738012152+733734248+727167871+722303354+720919439+720990693+720469334
3538+720106386+721466974+723933285+725746453+726777395+727626301+727533370
3528+726535355+727298454+731079076+734671585+734323487+730179017+724691284
3518+720226394+718977712+721686664+726479926+730488937+732341183+732984500
3508+733990915+734971529+733600890+728823079+722994374+719462619+719795415
3498+723545810+728045278+729383740+726266612+721842899+720272222+723064353
3488+728455855+732867717+734100722+733757500+734722138+736957508+738495259
3478+739189879+740436010+741859303+741232487+738255243+735315201+733809778
3468+732519994+730381305+728594239+729034142+732138595+736398572+738775627
3458+736864727+732149320+729053344+729811418+732360309+733346323+731548006
3448+728054654+724677033+723248040+724567151+726997385+727523919+724842119
3438+720736877+718351496+719285007+721994934+723600113+723638816+724482321
3428+727925270+733044504+737235777+738478383+736690341+733360124+730107537
3418+727709031+726215309+725508238+725942591+728021126+730753929+731694791
3408+729878247+727151295+725522189+725391530+726619435+728394426+728614940
3398+726128828+722999849+722635400+725710526+729188802+730274348+729845095
3388+730265573+732211199+734787617+736610986+736606261+734972279+733026352
3378+732104392+732955848+735486963+737575099+735736279+729780216+724393140
3368+723685919+726943081+730748229+732780186+732405687+730101087+727731907
3358+727433913+729307235+731362369+731780221+730514214+728998740+728736448
3348+730014906+731963683+733719323+735093862+736184808+737144871+738301071
3338+739954179+742133221+744497000+746191135+745868764+742698607+737892144
3328+734229731+733182738+733883283+735308226+736951283+737136470+734098547
3318+729573127+727699055+729733488+732814314+734446570+735664274+738262819
3308+741583585+743597241+743430130+741665340+739206680+736824900+735240047
3298+735078936+736806149+740184069+743492384+744482674+742782313+740156017
3288+738356950+737812264+737758486+736977985+735257823+733930086+734202579
3278+735951618+738201990+739916601+740448536+739749565+738361375+737061165
3268+736368945+736413948+737325182+739448346+742581150+745180819+745272850
3258+742530822+738958339+736986160+736988936+737243427+736475302+735458311
3248+735523040+736371945+736535681+735515690+734186003+733420278+733466706
3238+734426469+736088877+737257003+736545132+734159976+731857476+731095427
3228+731843750+732907320+733155661+732718907+732766610+733862882+735500014
3218+737359385+739330438+740304527+738947538+735635547+732002836+729124373
3208+727368059+727120243+728451054+730538890+732376885+733727198+734650508
3198+734574753+732800438+729897674+727682554+727257652+727713981+727634101
3188+727174471+727396636+728397051+729558126+730623346+731007221+729287284
3178+725031057+720178540+717227173+716746317+717329030+717395409+716683088
3168+716057172+716024020+715874085+714781189+713295342+712644600+712749231
3158+712504716+712258324+713766298+716992183+719171675+718302293+715763228
3148+714041716+713705244+713656491+713012049+711814446+710444706+708933283
3138+707003107+704829466+703256688+702728204+702440635+701253383+699191498
3128+697572293+697756580+699909220+702855787+704825715+704438840+701736189
3118+698275089+695842905+695128484+695489857+695808028+695311120+693816048
3108+691809517+690232990+689763534+690204863+690701470+690543735+689639551
3098+688362593+687177066+686357862+685833953+685219063+684380433+684018685
3088+684883341+686292908+686619329+685603538+684801286+685337646+686401365
3078+686231179+684030236+680753347+678031945+676666631+676596126+677633744
3068+679187995+679868364+678656210+675940134+672733750+670031249+668959729
3058+669939368+671688407+672457432+672005677+671123245+670119379+668992056
3048+668108198+667655094+667141985+666032513+664242597+661989300+659667073
3038+657758349+656552571+656053638+656207923+656897818+657720622+658192777
3028+657981864+656791836+654622545+652113481+650072148+648938750+648874995
3018+649515387+649700724+648695659+647070303+645419220+643530822+641421385
3008+639836307+639367001+640006793+641379157+642643289+642770123+641539443
2998+639730475+638222351+637293641+636575094+635543702+634257518+633269179
2988+632638988+631741254+630262833+628769636+628143457+628727858+629889984
2978+630398367+629621466+628258065+627352231+626793594+625585978+623604574
2968+622111302+622155630+623133919+623311943+621639109+618778872+616227206
2958+614856979+614602338+615035303+615653794+615872358+615264593+613728156
2948+611407617+608831199+606895286+606090896+605926823+605648817+605158060
2938+604773210+604649639+604844765+605335559+605492244+604230137+601377814
2928+598282212+596399664+595767411+595469829+595092742+594906692+594970034
2918+594796923+593852386+592137362+590286766+589020759+588383517+587588953
2908+585870554+583584142+582056368+582021265+582645268+582577277+581550797
2898+580343481+579580944+579146741+578430031+576851066+574426233+571865529
2888+569955304+568990254+568820368+569120350+569593218+570005032+569982906
2878+569115962+567548847+566010685+564884074+563863707+562847916+562271504
2868+562146958+561751570+560689951+559378153+558203051+557044863+555830047
2858+554832369+554140824+553429103+552555146+551877289+551703278+551866301
2848+551890977+551177906+549340886+546829273+544771439+543894969+543968361
2838+544151823+543491443+541543941+539013276+537280288+536956530+537315728
2828+537216384+536220769+534817728+533770247+533274990+532851625+532064823
2818+531006804+529969374+528966259+527796370+526530213+525676245+525554324
2808+525637880+525019614+523496228+521696223+520265580+519325319+518563344
2798+517618132+516393753+515037777+513706365+512472310+511388039+510510369
2788+509830150+509228273+508613158+508069110+507629957+506933724+505590199
2778+503897188+502560114+501721634+500840439+499485626+497803416+496251565
2768+495185071+494620509+494254035+493801081+493257070+492648331+491688156
2758+490044011+487947287+486169709+485240473+484856898+484232482+482997189
2748+481525256+480290938+479246270+478091270+476813149+475545792+474138287
2738+472361159+470468561+469094434+468526834+468414814+468259704+467879692
2728+467297917+466504403+465482573+464301734+463116619+462088752+461175605
2718+460050007+458521557+456924216+455723838+454903847+454085769+453137369
2708+452302227+451688725+450988329+449912309+448652715+447609847+446829158
2698+446006430+444963674+443874903+443000271+442307301+441470134+440303246
2688+439013349+437853211+436807043+435851818+435186150+434870454+434522919
2678+433729292+432577742+431501797+430725759+430095493+429362695+428468900
2668+427591568+426960589+426567863+426097470+425244440+424029736+422727351
2658+421627667+420895544+420467604+420088004+419590871+419056537+418536490
2648+417797242+416598364+415168321+414127928+413817183+413851648+413540640
2638+412636718+411435178+410292816+409367480+408725064+408383829+408225456
2628+408022680+407607266+406979250+406229351+405394734+404479299+403577441
2618+402819704+402232716+401768398+401378410+400960108+400378295+399632746
2608+398851833+398066194+397160960+396139919+395296601+394944191+394997594
2598+395012595+394689962+394143176+393607791+393147561+392755211+392473980
2588+392253653+391889054+391292203+390689539+390348341+390197619+389929514
2578+389429719+388887059+388488633+388206577+387918558+387600800+387302318
2568+386970196+386451500+385734941+385058884+384723087+384864659+385353879
2558+385843210+386057949+386047149+385985532+385851348+385510076+384944352
2548+384247331+383540523+382937446+382493830+382235138+382188185+382241026
2538+382134331+381805172+381532267+381531855+381621485+381469188+381031910
2528+380581880+380365229+380396768+380582743+380825196+380950079+380791594
2518+380432283+380118312+379893148+379566014+379076982+378657180+378545535
2508+378668243+378704208+378468430+378132221+377941033+377791623+377333231
2498+376518715+375749878+375352465+375234932+375201630+375222556+375239395
2488+375110124+374873033+374701797+374573201+374323247+373961499+373619439
2478+373343909+373212800+373408188+373899320+374288445+374201477+373653191
2468+372952533+372460126+372381783+372558007+372586697+372329505+372063388
2458+372033648+372163144+372269989+372277527+372155944+371868113+371428471
2448+370951478+370582191+370323087+370001353+369530623+369089144+368880255
2438+368862817+368866792+368818939+368725408+368560922+368289142+367913705
2428+367450850+366924090+366424745+366102899+366046608+366218970+366522027
2418+366846085+367089439+367228048+367312166+367337292+367219047+366947267
2408+366676237+366614845+366815708+367055799+367006558+366604757+366148540
2398+365952065+366042858+366261310+366491425+366693375+366830447+366862849
2388+366746891+366372092+365557539+364159335+362138366+359538359+356517125
2378+353385371+350408877+347518939+344451577+341257718+338365905+336001226
2368+333916278+331923398+330296429+329356281+329104827+329608072+331313908
2358+334586446+339185446+344639801+350949662+358215911+365573815+371355379
2348+374289458+374287245+372505842+370376940+368186573+365363576+361804707
2338+357937643+354006111+349981912+346015953+342645384+340438440+339438212
2328+339082614+338723303+338155179+337693749+337788067+338539879+339687566
2318+341003152+342401730+343702015+344665940+345308057+345879069+346550851
2308+347322726+348153780+348992485+349714782+350155661+350244054+350111033
2298+350043303+350277506+350814016+351444432+351955740+352274999+352438997
2288+352516139+352579443+352655648+352676275+352574606+352407870+352253022
2278+352069898+351833557+351664909+351642407+351649570+351567515+351433069
2268+351289359+351076533+350780376+350521347+350377938+350240979+349986412
2258+349724382+349693856+349933646+350250879+350503608+350706947+350866144
2248+350920785+350877995+350853881+350961063+351205691+351471771+351608393
2238+351577753+351501811+351545276+351786492+352173592+352542766+352730128
2228+352739166+352728366+352794482+352897427+353015147+353203709+353477439
2218+353779034+354065290+354327207+354597750+354999851+355647481+356428657
2208+357035521+357285363+357306664+357357442+357562431+357899090+358339744
2198+358860128+359359848+359755086+360125910+360604104+361177216+361758241
2188+362355355+363021699+363722019+364360311+364881070+365267570+365510886
2178+365689960+366035133+366733466+367656363+368474891+369071218+369635667
2168+370377428+371367867+372628775+374137648+375772117+377431337+379223092
2158+381434161+384290759+387766936+391615736+395513103+399132389+402213364
2148+404716877+406873118+408993544+411255503+413661510+416165361+418830322
2138+421786602+424995573+428205070+431221392+434091941+437009819+440168499
2128+443651689+447354343+451068397+454629329+457828175+460251208+461464599
2118+461387232+460295798+458446853+455901787+452788522+449503570+446470447
2108+443827688+441477597+439301668+437209294+435083993+432804557+430297556
2098+427517763+424401010+420907657+417104047+413128038+409108639+405187533
2088+401510306+398129161+395037384+392284030+389878248+387669167+385544166
2078+383640542+382167296+381117265+380280361+379465957+378664493+378015250
2068+377597436+377285190+376882489+376338366+375738140+375163602+374661932
2058+374263919+373947435+373650154+373375223+373212125+373206912+373291330
2048+373377511+373469017+373661929+374050680+374631818+375353290+376274650
2038+377563984+379307510+381439186+383844743+386402259+388940800+391259576
2028+393168338+394492061+395091988+394926752+394134026+393004227+391717631
2018+390143916+388108470+385772256+383495482+381446949+379570964+377807787
2008+376202307+374855782+373772712+372732394+371467399+370007316+368645003
1998+367600335+366974381+366878037+367193471+367332117+366724127+365505261
1988+364286206+363412587+362805722+362310277+361893288+361588130+361408531
1978+361301762+361159890+360887885+360464595+360002790+359766449+359951749
1968+360335399+360350062+359734910+358882779+358305091+358060351+357939105
1958+357894740+357974132+358049887+357932392+357632560+357331191+357183318
1948+357298638+357853075+358924744+360016665+360116047+358800424+356910413
1938+355563025+355060005+355021603+355058580+355067168+355098408+355169362
1928+355348886+355937675+357089675+358277715+358885817+359210363+359770799
1918+360014078+359066504+357405108+356367228+356531563+357374056+357958081
1908+357746868+356982830+356276472+355918811+355826818+355954476+356381816
1898+357043022+357578182+357624835+357402408+357645761+358517093+359050678
1888+358369783+356963592+355902160+355539811+355541386+355549262+355496984
1878+355517610+355686071+355961339+356606531+358361758+361520363+364706421
1868+365485384+363208611+359853305+357485176+356616544+356631620+356731414
1858+356545514+356256783+356218981+356511650+357032971+357822285+359112144
1848+361276598+364433703+367407834+367858914+365285646+362142604+360550475
1838+360492834+360835869+361026231+361851247+364314145+367747644+369905947
1828+369896122+369106095+368361522+367082651+365303685+364078518+363858678
1818+364068354+364206663+364588926+365790279+367666639+369249542+369792127
1808+369620816+369640730+370563478+372684391+375606844+378088868+379020428
1798+378845330+379318310+381839337+385989882+389018655+388307271+385206081
1788+383145397+383512134+385373680+387550659+389810969+391999649+393565488
1778+394721839+396954622+401690805+408445783+413933478+414933218+412452019
1768+409496714+407802953+408303611+411273055+415192510+417663583+418511289
1758+419287364+420408837+421830405+424725893+430061628+436359151+440452393
1748+441184816+440306733+439847178+440794865+443159394+445953476+447928542
1738+449673756+453555334+460222293+465784018+465956229+462835201+460021393
1728+458507119+458507457+460151451+463042665+467189460+473746649+483408141
1718+493754653+499393820+498390930+494658762+492002014+491890631+494740254
1708+500364383+507290410+513343416+518677089+525902497+535513961+543294330
1698+546178418+545882749+543541959+540347763+539381363+542245537+547959971
1688+555571580+566037349+579026170+588139339+588307762+585052850+584635523
1678+588601819+595561672+602591243+608063449+613753020+621130351+627624499
1668+630041193+630683460+633847991+640010618+646052112+649662247+652519483
1658+657771100+667426254+681931599+697310601+703786523+702318077+703282565
1648+708631763+712904342+711565129+708217136+707976596+711853073+718951535
1638+728102432+736134705+737252503+731071800+724649957+722214923+723062103
1628+724833344+726170606+726929205+726204433+723053853+719595152+719150523
1618+721550380+722071964+717037936+709450367+703286240+699099617+695740223
1608+692326601+688901128+685945710+683669912+681946750+680749672+680258240
1598+680460828+680938759+681169099+680912357+680195836+679019984+677277996
1588+675011498+672618317+670651314+669464212+669294926+670633613+674003582
1578+678904552+682711200+682676547+680930284+681785339+685910308+690108332
1568+691660858+692250546+694659553+699964499+709374537+725105386+745352730
1558+757578527+756482030+753367602+754783770+760501992+768601320+777388967
1548+786179840+795790891+807511980+821461538+835989085+846218101+845071801
1538+835629886+828652557+827668493+829522839+829888337+828718186+829406056
1528+833575878+839881163+846502220+853366217+860357572+865460305+867707376
1518+868482702+868229860+866758939+865549110+866880372+872116163+881435445
1508+892458463+897340006+890989268+881971580+878131930+879951099+884984302
1498+889723035+890781429+888199086+886135852+888101205+893578661+898230239
1488+898186362+894753238+891675712+890676422+891236334+892458388+894508797
1478+898139634+903370324+909400867+914697037+916223087+912163372+906010946
1468+902748009+903844580+906649013+907656329+907762385+910899765+918380302
1458+926003649+926231739+919262360+912713233+909684761+909081946+909294885
1448+909105498+908123084+907211550+907255352+907909545+908667994+910099763
1438+912480268+913951489+912738210+910516115+909421268+909129274+908599590
1428+908430604+909924476+912679031+915155317+917257854+920103539+922918023
1418+922956800+919976031+916497529+913913986+912188724+911034324+910042159
1408+908943187+907868217+906820474+905766280+905412482+906509129+908530135
1398+910082362+910378856+909234206+906537106+903196238+901052148+900702475
1388+900221694+896989959+891598982+887807710+888265390+892478640+898207813
1378+903608615+907982075+911246212+913668270+915953069+918352775+919875975
1368+919708714+919094424+920115990+922975326+925832788+927089419+926952686
1358+926566935+926644040+927215728+928224393+929908403+932273757+934550981
1348+935836489+936162310+936461805+937618455+939798022+942391841+944401972
1338+945347934+945833966+946597665+947377116+947485798+946964364+946375501
1328+946058680+946172163+946830180+947860598+948950494+950050215+951177464
1318+952113975+952759767+953359731+953945069+954013698+953309028+952565954
1308+952720539+953677226+954571285+954986587+955093019+954880755+954203161
1298+953256374+952447596+951870734+951000977+949109279+946173363+943138740
1288+940958723+939593034+938226145+936278193+933881412+931338521+928563340
1278+925415610+922154848+919221407+917097269+916398298+917141596+917934848
1268+916959485+913890435+910177993+907373860+905578468+903679269+900971818
1258+897905843+895081234+892469189+889823317+887073863+884386963+882299352
1248+881326088+881224832+881296236+881305537+881499575+881965430+882578295
1238+883421875+884688557+886260960+887798335+889107095+890180115+891032696
1228+891795645+892751733+893894882+894910598+895975818+897806687+900546840
1218+903365974+905434459+906679015+907478192+908236791+909279734+910786207
1208+912740685+915005682+917526446+920410009+923480634+925934794+927239954
1198+928230019+930224099+933121537+935400411+936071630+935797487+935997225
1188+937652358+940838790+944591360+947672710+950014438+952467323+954978861
1178+956544813+957260210+958617048+961168865+963515242+964549560+965311159
1168+967302089+970364614+973236701+975257857+976743554+978289780+980347539
1158+982819250+984823756+985782843+986302852+987074052+987916732+988482119
1148+988796164+988837567+988741336+989596916+992619013+996972522+999811607
1138+999753478+998921599+999882862+1002358698+1004406631+1005107477+1004817958
1128+1004301774+1004610044+1006805062+1011171772+1016755061+1021498895
1120+1023347465+1022126836+1019811135+1018665060+1019828236+1022836457
1111+1025768923+1027120361+1027382053+1027239394+1025938509+1023209456
1103+1020567859+1019397933+1019943893+1022095934+1025439426+1028991133
1094+1032423806+1037083860+1043255262+1047644698+1046592004+1041279408
1085+1036902648+1036936250+1040135059+1042956217+1043762220+1044090966
1077+1046083696+1049550197+1052279850+1052906291+1052310602+1052340229
1068+1054445166+1058930308+1064033716+1066676813+1065702199+1063622314
1060+1063813651+1066443023+1068667592+1068762399+1068221688+1069187001
1051+1071299739+1072517143+1072032087+1070659347+1069504947+1069463169
1043+1070631145+1071950106+1072573772+1073081855+1073741823+1072787311
1034+1068790300+1063282692+1058923258+1056751566+1056403469+1057182469
1025+1058224662+1059268505+1061210457+1064339585+1067100215+1068149909
1017+1068092530+1067894817+1067339781+1066012945+1064465369+1063763398
1008+1064230003+1064598802+1063103505+1059867119+1056674086+1054386437
1000+1052813510+1052402783+1053517956+1054800839+1054501570+1052565994
991+1049928522+1047253472+1045279494+1044434114+1043835275+1042413407
983+1040316721+1037677449+1033671438+1028645885+1025154558+1024679927
974+1025098004+1022987967+1017519660+1010881653+1005684414+1002594738
965+1000286088+997537009+994316074+990752367+986743506+982790448+979635218
955+976922516+973491942+969227690+965697810+964296493+964147609+962760693
945+959315944+956162738+956047681+958761358+961074508+960151573+957042921
935+955482369+957450122+961556940+965332086+967278688+966790631+964199962
925+960868020+957972306+955968851+955261030+955938324+956902137+956500110
915+954318143+951851083+951057906+952098299+952888325+951586165+948844587
905+946438055+944776397+943260323+942139375+942384941+944016597+945884969
895+947157577+947696187+946876158+944003546+940252552+938049808+938042308
885+938305800+937035217+934906804+934026321+935214324+937109847+937920275
875+937447894+936856856+936835404+936849355+936154660+934920380+934018371
865+933721426+933053583+930929370+927916648+925980397+926231964+927814717
855+929115601+929485601+929545529+930297678+932243530+935054338+937871597
845+939821949+940497293+940253452+939658588+938632296+936819953+934424522
835+931843154+929328240+927683083+928014005+930058788+931977713+932534624
825+932451819+933095661+934975433+937896348+941481582+944980935+947407343
815+948494989+948878264+948876464+948049460+946585890+945932972+947083472
805+949146856+950542547+950994002+951115510+950731935+949281790+947226356
795+945406213+943761581+942165252+941476182+942503074+944982210+948285500
785+952062971+955191500+955581076+952573605+948293676+945226726+943639923
776+942540576+942001441+942924976+944966084+946374226+946256618+945693931
766+945955098+946481858+945801413+944128054+943158391+943400132+944034898
756+945360985+948582895+952987557+956044081+956351076+954325569+951035404
746+948186869+947423469+948129940+948054335+947431720+949122180+953626823
736+957936004+959909157+959848329+957889351+954145557+950557923+948810384
726+947643158+945174973+942431969+941702621+943246897+945736309+948444286
716+951208441+953073362+952958455+951301672+949591110+948855537+949364521
706+950500920+950524621+947848447+942988355+938210694+935075865+933262697
696+931564211+929336716+926570761+922565425+916346845+909328337+904790167
686+903689620+903650693+902475141+900173616+897639351+895741277+894970452
676+894722636+893950986+891734741+886247084+876368865+867148215+866973603
666+872717852+875415178+873685941+871375790+871432044+873758245+876465022
656+877688876+876607081+873268838+867688175+860823128+856574101+858551605
646+864637801+868548256+867474486+864696305+863817248+864046763+862301549
636+857488260+851947274+848950979+848452872+847062506+842940763+838063720
626+834712502+832876532+832054854+832427253+833695735+835229285+836516144
616+835941757+832546661+829948716+833146475+841000536+846369236+845113279
606+840865827+838291210+837275569+835393621+831609474
##END=
