##TITLE=<SNM>
##JCAMP-DX=4.24
##DATA TYPE=INFRARED SPECTRUM
##DATE=2/5/2025
##SAMPLING PROCEDURE=Instrument type and / or accessory
##ORIGIN=Admin
##XUNITS=1/CM
##YUNITS=ABSORBANCE
##RESOLUTION=4
##FIRSTX=4497.3318
##LASTX=599.83466
##DELTAX=-1.4281778
##MAXY=1.7421165
##MINY=0.19107363
##XFACTOR=1
##YFACTOR=1.6224724e-09
##NPOINTS=2730
##FIRSTY=0.21012901
##XYDATA=(X++(Y..Y))
4497+129511608+129552432+129840083+130360911+131004643+131439636+131366309
4487+130915354+130489288+130356962+130555102+130854426+130737648+129890137
4477+128817859+128490120+129242566+130447546+131322629+131594298+131269498
4467+130381897+129303227+128832756+129541898+131149625+132706931+133454656
4457+133494139+133410875+133281350+132559258+131099654+129688708+129262238
4447+129937463+130881014+130985769+129953150+128694129+128229903+128549974
4437+129063767+129512306+129733362+129280239+128111840+126959935+126357440
4427+126023750+125608182+125263553+125136259+124972881+124596061+124270379
4417+124267302+124477823+124736047+125127240+125650576+125911721+125509506
4407+124533838+123419653+122581114+122362915+122838603+123420773+123278216
4397+122424992+121848773+122349249+123633076+124710386+124965736+124652810
4387+124335541+124071513+123424493+122235227+121006432+120351486+120301965
4377+120416024+120482508+120749127+121316795+121730682+121512015+120783898
4367+120037643+119536450+119212678+118930961+118646388+118389349+118221681
4357+118218751+118384040+118590869+118711063+118707876+118531539+118149429
4347+117778368+117766952+118154691+118671194+119152935+119614791+119967447
4337+120024178+119829160+119744399+120001071+120224450+119816486+118927003
4327+118466037+118902646+119652924+119943816+119719841+119353932+118955272
4317+118428437+117933985+117794918+118033056+118411152+118897099+119663780
4307+120611887+121259274+121210515+120609591+120071698+120108802+120605402
4297+120991140+120924426+120610491+120490186+120814160+121469639+122103874
4287+122406540+122247763+121619130+120694370+119908558+119621698+119679623
4277+119617032+119354281+119405712+120213603+121457488+122312769+122349607
4267+121823351+121173603+120748254+120896157+121686386+122526340+122631894
4257+122027241+121637150+122151026+123128274+123622138+123533987+123611429
4247+124141974+124650937+124943721+125301337+125588206+125340755+124744230
4237+124478457+124714078+125097281+125465321+125819759+125896704+125498439
4227+125037373+125111251+125612902+125801299+125336301+124747436+124674338
4217+125091752+125571601+125889715+126057456+126104424+126071453+125970031
4207+125740931+125476360+125429043+125516312+125260191+124553171+123997185
4197+124177600+124950921+125634045+125760254+125620378+125916037+126744749
4187+127348520+127191975+126707222+126502009+126489179+126332882+126185622
4177+126459854+127255677+128363240+129504206+130345932+130607388+130418717
4167+130383164+130987331+131959142+132460922+132075662+131322289+130904921
4157+130826800+130723403+130720621+131284477+132328954+133069175+132863091
4147+131828331+130543668+129489585+128878640+128721948+128875251+129163737
4137+129544635+130043651+130589819+131044751+131384659+131775154+132322176
4127+132717217+132439964+131464920+130396775+129764607+129591493+129692519
4117+129937160+130184436+130268150+130105690+129795236+129583778+129594349
4107+129662055+129679285+129899312+130554450+131409447+132017315+132223611
4097+132200917+132117193+131938193+131584857+131149892+130805079+130622175
4087+130638863+130912755+131370322+131791943+132023220+132094977+132195222
4077+132550827+133159704+133646000+133573748+132905861+132063594+131549727
4067+131491462+131549176+131428165+131327891+131533297+131850942+131967261
4057+132029420+132253946+132357306+132042452+131636142+131629281+132030568
4047+132641034+133421795+134187989+134508758+134254814+133721844+133041210
4037+132035160+130818763+130008641+130090518+130905490+131869641+132493058
4027+132722985+132970748+133657931+134614184+135184414+135022955+134498572
4017+134232184+134412911+134647688+134449878+133830906+133294602+133255909
4007+133682958+134304748+134915619+135429651+135819109+136076019+136208842
3997+136239756+136140584+135821570+135335513+135000491+135105264+135583331
3987+136152689+136593633+136716427+136372495+135765556+135489726+136004171
3977+137155102+138337517+139053152+139203452+138920973+138312912+137456786
3967+136607345+136285943+136934543+138367962+139790306+140528332+140566631
3957+140281212+140017460+140078112+140833515+142539247+144797549+146350272
3947+146213812+145067124+144390798+144437894+144184263+143082458+141685766
3937+140837005+141331512+143618835+146828237+148776249+148253511+146715602
3927+146385916+147560349+148585374+148338915+147939676+149136106+151694640
3917+153132615+151414576+147449587+143801923+141964645+141982867+143931503
3907+148508254+155733534+163634159+169214608+170971129+168984965+163706200
3897+157010473+152374448+152207184+155633040+158698590+158474200+157261184
3887+158641537+161998833+164143204+164938283+166108978+165898972+162143411
3878+158048162+157952371+161789708+166902643+171584249+174215954+173068495
3868+170283652+169783681+171233963+170747511+166948454+162849054+161731737
3858+165305083+174438910+187399293+194939216+188482702+175407663+165200511
3848+160753800+161745532+166415676+172456292+178469153+184170724+188434962
3838+188843146+185167415+180349937+176449651+173235097+170428892+168911693
3828+169147287+170658644+174073268+180886002+189026390+192227076+189465341
3818+186072888+183197765+177944017+171152664+167011145+167955174+173371078
3808+179579270+182665024+183982723+187303777+191513939+192159848+189729516
3798+187715378+185934500+182878080+179609724+178069878+178620417+180796731
3788+184398162+188957104+193425453+197643311+202868551+209278960+214489119
3778+216805383+218309282+222504602+231492750+245270143+261037907+274309690
3768+283226495+289239429+293929779+299183949+307517573+319193835+330992486
3758+340303570+349317746+362511922+382492511+407537945+430345146+445182015
3748+456082007+468469955+481338973+489438509+492905557+497196723+504972791
3738+515332273+525922169+534357187+539273433+541384630+543031620+546198012
3728+550464088+552817161+550887077+546177991+541335734+536615369+531713488
3718+528271422+528656976+533940848+543002341+551616158+554277638+550442193
3708+544700579+541465746+543009468+548480184+553726731+555293340+554258057
3698+553244669+553626659+556687249+563886254+575094285+586621965+591718735
3688+587999746+581699584+578310199+578227724+580746151+586454518+595996419
3678+607154929+612695188+607387364+598510915+593918505+590684627+582436233
3668+570880927+562310129+558926548+559200422+560557999+561708195+563318264
3658+565786398+568179882+571483119+579485633+593330090+606950195+609694516
3648+599668936+586081307+575930271+570882948+569873748+570738535+572349853
3638+575682627+581776621+589616942+597403039+605079624+613068215+617916681
3628+614931842+607366424+601781530+601265707+605991728+613860520+620889800
3618+624154023+624590898+624504419+624898019+626642802+630955644+636523345
3608+638998238+636908495+634253150+634496863+636963233+639785878+643412988
3598+649144462+655973416+661292922+663994996+665280128+666762536+668583732
3588+669037654+666435871+661464116+656611463+654138774+654929058+658010331
3578+661267941+663346737+664527388+665778648+668198362+673273715+681121163
3568+686987829+683966144+673542776+664339515+660807701+660989843+661602468
3558+662073876+663555770+665858587+666929615+665510468+663434024+663730417
3548+666892658+670036237+669898694+666225809+661582483+658737281+658640884
3538+660147538+661282489+661230396+661023347+661852573+663267458+664008736
3528+664064503+664389331+664971905+664649281+662679080+659509198+655941748
3518+652517573+649908517+648882455+649605511+651372630+653059222+654058834
3508+654854409+656087814+657084487+656397139+654147737+652107442+650963675
3498+649876188+648821471+649066213+651180055+654311217+657147528+658483650
3488+657899312+656348573+655377616+655601418+655884439+654841845+652763123
3478+650976018+650018948+649036676+647205928+645096274+644019000+644873795
3468+647499456+650610192+652468125+652192598+650690940+649926812+651333616
3458+654774984+658261612+658881143+655461670+650167953+646150623+644436038
3448+644001734+643749351+643321145+642507496+641001062+638923736+637065215
3438+636287567+636658463+637317450+637544117+637582177+637919936+638441306
3428+638978033+639947153+641560418+643070306+643494764+642563924+640843313
3418+639602634+639998511+641298998+640874246+637412893+633049134+631028824
3408+632423725+635554005+637556314+636661255+633644640+630685040+628947824
3398+628160552+627882527+627782969+627250945+626005564+624668193+624221251
3388+625139013+626878286+628070399+627755049+626502394+625351059+624340573
3378+623410982+623516196+625265755+627425666+628074955+626783211+624845412
3368+623776441+624143957+625592347+627363066+628631299+628981328+628678101
3358+628178700+627698915+627637491+628651798+630658442+632449955+632774048
3348+631297077+628722847+626747135+626917741+628689931+629938031+629803206
3338+629236943+628789561+627952988+626814070+626710251+628587582+631314710
3328+632422476+630959905+628710944+627874371+628669505+629783295+630227297
3318+629843911+628747902+627333383+626576749+627570263+630388499+633489904
3308+634876649+634374455+633763226+634148891+634421993+632836795+629308580
3298+625614389+623740365+624131466+625434745+626314154+627137575+628985663
3288+631561142+633371243+633730751+633187706+632350251+631668340+631859299
3278+633314154+635290380+636648544+637137439+637047875+636135477+634025675
3268+631466434+630090489+630557342+631636526+631630795+630408484+629524961
3258+630338904+632379493+633736335+633098876+631124560+629551044+629554130
3248+631013762+632786245+633723404+633594163+632715710+631079227+628734823
3238+626549123+625461784+625265902+624976636+624135360+623082039+622263834
3228+621810501+621547905+621283987+621355771+622440980+624423672+626114305
3218+626498720+625592273+623935218+622291828+621511462+621509919+621014779
3208+619259783+617233447+616299521+616441326+616596723+616000152+614932761
3198+614630489+615973959+617906321+618010874+615252997+611193750+608081839
3188+607061067+608083125+609876768+610424663+609302276+608612100+609681989
3178+610420695+608304354+604501972+602235231+602458518+603425140+603468820
3168+602453669+600999401+599637122+598651397+598001815+597406419+596764037
3158+596162434+595500287+594498728+593098060+591696913+590914013+590883558
3148+590774119+589609595+587537008+585544507+584244608+583754868+584086676
3138+584852163+585317363+585203883+584683063+583661262+582018203+580326982
3128+579590848+580287747+581762074+582530757+581504878+579128918+576930543
3118+575854078+575472382+574991348+574493342+574459251+574556383+574000994
3108+572806897+571684070+571013878+570741988+570902639+571443296+571701630
3098+570694708+568162395+565168923+563354854+563524505+565067713+566653499
3088+567293861+566888946+566068684+565587761+565715716+566059279+565862443
3078+564607693+562582423+560604654+559004908+557605085+556828246+557473272
3068+558949950+559293514+557708279+555568536+554338621+554154459+554572929
3058+555141102+555193673+554360112+553203487+552441085+551799659+550392267
3048+548139963+546089051+545029190+544555211+544039351+543728997+544002063
3038+544268846+543763934+542809178+542174621+541836237+541236544+540212392
3028+539065759+538113832+537408373+536625986+535389238+533947020+533124260
3018+533326937+533973691+534119059+533373924+532157454+531280764+531237488
3008+531677670+531667714+530652820+529029415+527660854+527043858+527027179
2998+527124422+526936072+526279583+525143530+523730077+522268388+520627644
2988+518524271+516257162+514718840+514365284+514692977+515036063+515312582
2978+515628299+515682192+515022765+513691823+512293873+511413068+511101723
2968+510913372+510351187+509362009+508392264+507759507+507120689+505999588
2958+504664385+503897355+503985082+504379196+504308588+503484615+502185487
2948+500837279+499752034+499207151+499277282+499439255+498903668+497556268
2938+496095461+495160616+494777781+494660994+494599423+494392888+493757890
2928+492728081+491920787+491747131+491550038+490327690+488143423+486000374
2918+484624136+484085425+484153829+484471383+484741290+484896870+484812522
2908+484138400+482804519+481356607+480455303+480261111+480361881+480097338
2898+479037551+477383692+475890005+475128633+474922796+474801307+474738744
2888+474871217+474786649+473926013+472458960+471039225+470003942+469320562
2878+468880857+468462020+467800424+466851804+465708991+464495020+463503821
2868+463017718+462909197+462820367+462659422+462517875+462234891+461488470
2858+460281405+458984481+457858568+456802455+455657071+454511871+453578937
2848+452986260+452760989+452753752+452618413+452164234+451596722+451159369
2838+450762059+450171807+449337548+448358142+447347252+446460900+445873367
2828+445565144+445190391+444344670+443038415+441744357+440867336+440329397
2818+439772833+439040299+438363788+438031466+437853219+437196877+435785628
2808+434155500+432963314+432191397+431445123+430677542+430105475+429636785
2798+428945176+428035055+427250906+426745442+426350079+425952219+425586833
2788+425158187+424476717+423604105+422836119+422317982+421904287+421394672
2778+420743180+419990330+419112244+418067960+416954133+415916866+414895727
2768+413682710+412322085+411247052+410828251+410850367+410641003+409786870
2758+408517940+407316385+406446234+405938897+405635340+405181676+404406490
2748+403665874+403402139+403471976+403251334+402308114+400809100+399360820
2738+398454741+398007212+397565891+396912341+396179807+395485369+394797580
2728+394070740+393238245+392201161+391025139+390011016+389390236+389052109
2718+388732314+388382101+388111570+387796661+387079079+385868046+384566237
2708+383628380+383066562+382540489+381841092+381125713+380645378+380389212
2698+380121326+379656236+378960806+378098187+377193724+376358289+375582148
2688+374793076+374044304+373525285+373307214+373160891+372758254+372019732
2678+371119641+370217125+369382572+368708633+368224661+367733194+367000366
2668+366121435+365466085+365227258+365225201+365183431+364980423+364548764
2658+363767296+362666621+361595667+360939288+360721879+360643997+360436617
2648+360037764+359469480+358691907+357671943+356619356+355988583+355981934
2638+356146001+355826610+354978097+354138438+353698036+353553954+353367183
2628+352889199+352123565+351260504+350411330+349546249+348758646+348299067
2618+348211119+348196094+347970603+347584314+347245893+346939912+346433971
2608+345709335+345112654+344904392+344899579+344742456+344318695+343762719
2598+343245610+342856639+342585447+342340742+341994203+341466073+340831186
2588+340303570+340028447+339929257+339847665+339739768+339576399+339164321
2578+338352362+337384344+336708127+336401704+336103217+335539415+334825764
2568+334214057+333799040+333514439+333255077+332961989+332656448+332407923
2558+332237464+332061163+331806540+331575795+331529286+331582004+331429435
2548+330919416+330212414+329570988+329137418+328857593+328532655+328039315
2538+327506813+327147343+326968948+326808518+326588464+326409371+326415763
2528+326623180+326856239+326896099+326720864+326498973+326333803+326171316
2518+325956662+325704610+325439553+325209580+325089193+325060061+324999665
2508+324839639+324612568+324330723+323949393+323463143+322977959+322653278
2498+322551774+322574147+322579694+322519702+322409749+322253727+322042967
2488+321782576+321512560+321303343+321178401+321059557+320846813+320520332
2478+320142125+319810281+319610028+319541183+319479061+319263488+318859125
2468+318401824+318052235+317818956+317576639+317255852+316956005+316843627
2458+316950348+317094210+317024336+316642640+316073438+315537299+315174595
2448+314990029+314957774+315096566+315345900+315467903+315258209+314807998
2438+314399777+314197283+314145925+314084758+313869590+313490685+313130406
2428+313000541+313087828+313175225+313122471+312989410+312885003+312830522
2418+312779936+312682730+312538721+312431302+312449744+312550330+312585414
2408+312518516+312505584+312667006+312865533+312843527+312534460+312116026
2398+311816253+311753286+311860117+311898139+311682861+311325594+311088421
2388+311010098+310863407+310459411+309772026+308739425+307176508+305006862
2378+302443028+299842789+297495336+295583179+294166199+293090671+292041391
2368+290807875+289486356+288371078+287661780+287407616+287808397+289321463
2358+292200664+296091876+300477548+305497024+311611701+318265897+323820043
2348+326925194+327545681+326934746+326383582+325767283+324086165+321083362
2338+317481674+313997030+310698164+307351247+304048175+301283795+299524592
2328+298783186+298521858+298038381+297128096+296273411+296050693+296519291
2318+297265345+297834381+298056401+298091448+298251290+298756974+299586971
2308+300519042+301336163+301937088+302228871+302121415+301756177+301509213
2298+301612443+301960305+302376443+302838924+303326717+303666515+303721014
2288+303610914+303588045+303752884+304004954+304204582+304287277+304242054
2278+304058957+303760562+303455223+303244812+303089892+302892468+302668263
2268+302514078+302491393+302629230+302923015+303269628+303495266+303483988
2258+303278004+303077016+303088460+303323980+303592362+303719949+303733946
2248+303793955+303958041+304113585+304194296+304297931+304489036+304710156
2238+304978464+305409260+305993101+306579845+307077171+307503191+307903109
2228+308310301+308741409+309218915+309817837+310630128+311654500+312767335
2218+313841963+314901860+316117522+317612715+319306728+321004121+322623815
2208+324276976+326080870+327967090+329786156+331520469+333236671+334948318
2198+336697473+338611467+340733429+342937277+345064234+347024002+348781497
2188+350353396+351821036+353279933+354703415+355901260+356765459+357488038
2178+358318953+359215004+359930161+360296392+360259618+359827041+359104205
2168+358254260+357355087+356398641+355420704+354438763+353245217+351545216
2158+349346107+346924886+344456936+341948355+339383200+336755187+334088564
2148+331332560+328286077+325244186+323579893+324648166+328200443+332797996
2138+337503224+342247541+347014157+351653479+356178366+360671035+365143425
2128+369621399+374182508+378943356+384014301+389378186+394939532+400695877
2118+406663790+412721158+418693553+424511360+430292907+436401743+443290320
2108+451251946+460639443+472296363+487273603+506041836+528218778+552577563
2098+576657845+597208628+612468889+623427366+631895154+638539467+643125779
2088+645228747+644402681+640289908+632543487+620807436+604993512+585414422
2078+563069849+539813062+517306111+496070039+476197346+458122449+442183437
2068+428351911+416519389+406367213+397369936+389431124+382882510+377736034
2058+373586525+370050596+366852904+363876368+361302506+359345750+357986447
2048+357143372+356802820+357007115+357938065+359816901+362796486+367301462
2038+374202236+384372008+398395154+416603663+438814220+464099436+491162353
2028+518598994+544655356+567409104+585570848+599145839+609484565+618191693
2018+625583971+630805022+633421940+633835598+632218586+628181271+621452095
2008+612184876+600654845+587161336+572206542+556379614+540024005+523222446
1998+506177946+489558456+474219688+460361124+447258459+434240583+421572736
1988+409956447+399750305+390979218+383494988+376957873+371061339+365758401
1978+361071320+356902855+353145329+349767075+346846416+344637645+343294396
1968+342364107+340997053+338921159+336730169+335011028+333755323+332744948
1958+331935707+331243106+330422660+329396487+328405509+327730394+327448659
1948+327562727+328257275+329665181+331108759+331170109+329341455+326886253
1938+325240549+324607976+324486855+324562753+324711133+324750736+324575133
1928+324459779+325069465+326697021+328505029+329429734+329766979+330362632
1918+330625484+329304571+326935297+325388526+325509684+326529832+327199472
1908+326962776+326178663+325485180+325150287+325057379+325096761+325399694
1898+326162095+327184079+327863051+328137219+328866410+330368546+331359525
1888+330601311+328796463+327431686+326977765+327068946+327332460+327582161
1878+327786455+327995378+328279979+329175551+331858633+336770029+341767573
1868+343101087+339890022+335265174+332209176+331194098+331222533+331398539
1858+331414520+331292076+331135907+331105489+331515547+332721803+334882192
1848+338138185+342521819+346611704+347307464+343761910+339284524+336903347
1838+336669076+337043976+337368547+338807716+342623360+347695957+350823445
1828+350749531+349346694+347746801+345345713+342452937+340583799+340289757
1818+340703010+341026883+341629552+343385577+346167812+348452554+348880686
1808+347866417+347015847+347688794+350331648+354125323+357105496+357732375
1798+356737098+356613809+359340975+364385799+367923345+366255047+361233183
1788+357582451+357217103+358897964+360924740+362766142+364142784+364588844
1778+364807796+366841075+372200551+379911962+385802912+386057535+381934697
1768+376859454+372904284+371609050+373666906+377195965+379156137+379418732
1758+379794514+380370329+380945556+383481505+389798787+398026572+403208352
1748+403018312+400048499+397672906+397402559+399086359+401356260+402656196
1738+403843680+408045944+415905992+421710316+419660726+413302006+407690477
1728+403955728+402381147+403197515+405736771+409904318+417442918+429541600
1718+442735446+448944427+445437336+438334289+433134655+431714185+434518020
1708+441191503+449561497+456463189+461990333+469704022+480565367+489512792
1698+492504426+490999976+485899458+479285489+476015609+478262660+484399820
1688+492951294+505254343+521009818+531335722+528840624+521159852+517081245
1678+519124075+526148652+534509719+541051684+546983595+554059971+559103363
1668+558304409+555457224+556655655+562312958+567553407+568638505+568076210
1658+570837688+580218719+597117740+615559052+620343963+613219351+610103031
1648+613494363+615044441+608352149+599034710+594207478+595332657+601844717
1638+612681338+623194675+624310669+615053184+605852826+602959352+605290824
1628+609119032+612466978+615970763+619026136+619281898+617872082+619175729
1618+624406552+628861713+627752110+623982094+622381099+623573359+625540842
1608+626621054+626853525+627076445+627629703+628197950+628477003+628708152
1598+629457732+630869312+632314690+633035027+633037966+632963831+633147075
1588+633300709+633206368+633200049+633661465+634725440+637142877+642429099
1578+650574190+657085810+656420504+652096788+651899070+657150614+662510237
1568+663020366+660833049+660321010+663529980+672441403+689596298+710918261
1558+718596499+708557253+697014511+690923603+689742217+691965462+696170738
1548+702124250+711415165+725255728+742502832+760497827+773783221+772938492
1538+760563953+750992000+749541847+751962002+752059869+749964101+750572759
1528+755709756+763123782+770745959+778992223+786816673+789984204+787978368
1518+785198118+783254441+780944937+779082890+780596671+787755449+800855101
1508+815778815+820042723+806947553+790893811+783185816+784205486+790479124
1498+796475105+796557175+791124372+786968911+789162252+796872819+803901621
1488+804069508+798425468+792490397+789695305+790171122+792652775+796541745
1478+802154266+809398199+817092822+822808867+822964190+816743453+809059999
1468+805163167+806249551+809490703+811193459+812173747+816782101+827028102
1458+838407658+840255526+830286594+818647161+811734962+810061227+811743338
1448+813375486+812292849+809414804+807479209+807644452+809810682+814301036
1438+820687089+825368475+824752470+821281272+819313422+819427600+819569845
1428+818793080+818368475+819294612+821049829+823270944+826363237+828902934
1418+827421775+821952015+816449778+813188862+811727100+810964001+810572385
1408+810993904+812118348+812345676+810619555+809032226+810612061+815407625
1398+820451017+823031125+822443702+819399680+816064629+815007119+816669392
1388+818524019+817606918+814663776+813442200+815938474+820918311+826229221
1378+831187824+836391683+841714863+845623746+847242080+847737662+848526771
1368+850139816+853216974+858132007+862998253+864295361+860871479+855243309
1358+850322765+847361843+846188980+845712649+844747570+843052822+841348817
1348+840360446+840206813+840788211+842404709+845390980+849031389+851491073
1338+851540962+849980157+848560275+848217225+848808176+849909402+851391957
1328+853206834+854973954+856209784+856994558+858090127+860101473+862635807
1318+864642819+865737285+866676354+868078456+869479749+870202805+870432852
1308+870827774+871682936+872992240+874742754+876735585+878564937+880010756
1298+881083400+881624094+881290523+880003702+877994780+875308503+871752368
1288+867611162+863839970+861054429+858840589+856486193+853871552+851270725
1278+848831761+846683532+845201785+844800251+845501852+846825043+848137433
1268+849185831+850159360+851097400+851519654+850997255+849905434+849105818
1258+848878710+848655203+847971382+847295863+847505264+848773569+850481910
1248+852162257+853978530+856060853+857982635+859455638+861004100+863282303
1238+866132207+868777559+870644824+871802992+872874828+874347391+875904670
1228+877131389+878656926+881333873+884613084+887088271+888283103+888766267
1218+889138191+889860660+891365625+893637436+896107039+898287963+900310478
1208+902645330+905413677+908329487+911305545+914467272+917525841+919828071
1198+921168454+922199145+923922328+926643946+929463211+931308139+932311498
1188+933363350+934662882+935763006+936714051+938315340+941363035+945775507
1178+950203262+953082996+954604345+956434652+959026516+960756237+960523178
1168+959812686+960834560+963698644+966827969+969175091+970524438+970784756
1158+970556106+971068145+972502281+973882634+974939923+976258999+977707168
1148+978661594+979383548+980480586+981668364+982557618+983776622+985986422
1138+988601283+990454440+991156556+991531346+993221245+997277809+1002596434
1128+1006724636+1008634001+1009565062+1010951146+1012505558+1012749051
1120+1011349080+1010134851+1011125793+1013911187+1016121280+1016766307
1111+1016529354+1015603289+1014573627+1015194995+1017802509+1019981963
1103+1019850151+1019020411+1020490108+1025196402+1031624776+1037197253
1094+1039667150+1038788697+1036907399+1036641571+1038041541+1039146588
1085+1038991705+1038590171+1039330567+1041441764+1043473463+1043412039
1077+1041061170+1038389440+1037191596+1038252117+1041817289+1046743564
1068+1050505939+1051560289+1050909898+1050697412+1052322359+1055603848
1060+1058708192+1059372469+1056780826+1052095472+1047648100+1045953573
1051+1048144857+1052477022+1055561968+1055858950+1054901144+1055110839
1043+1057456271+1060970966+1064044377+1066427281+1069170941+1072229290
1034+1073741823+1072484171+1069470568+1066405312+1063875461+1061447738
1025+1058665430+1055697968+1053337401+1052522502+1053513150+1055359180
1017+1056452692+1055793558+1053758112+1051925086+1052052637+1054513276
1008+1057548187+1058488799+1055938301+1050902551+1046320648+1044948450
1000+1046697202+1048440222+1047481094+1044441261+1041656234+1040294837
991+1039719390+1038470629+1035619109+1031648582+1027934993+1025318149
983+1023532807+1021832035+1020089015+1018942896+1018703298+1018786985
974+1018378911+1017059541+1014773917+1011774567+1008441353+1004700652
965+1000286857+995627807+991879906+989992363+989713383+989366954+987045694
955+982410229+976838487+971779666+967822952+965402723+965000087+965913073
945+966070233+964279823+961718230+959965879+958928722+957901778+957260719
935+957740870+958847093+959145250+957951740+956089766+954854230+954209423
925+952694319+949724286+946859540+945941044+947169747+949337446+950965480
915+951343135+951029916+950944025+950934914+950194151+948889256+948122923
905+948387870+949082271+949473226+949337299+948647894+947040066+944290087
895+941224023+939075501+938205864+938424816+939745802+941663837+942575721
885+941234236+938433633+936184011+935587623+936248227+937342106+938322467
875+938462949+936948873+934080601+931536569+930864431+932146402+934123584
865+935269261+935105415+934622985+935064710+936285037+936801265+935898051
855+934559430+933862898+933913669+934668539+936504136+939036339+940448727
845+939425456+936780618+934221965+932472553+931189699+930157098+929760119
835+930344383+931807174+933843795+936116268+938219751+939899510+941102277
825+941488896+940351153+937718292+934964198+933460849+933602948+935227528
815+937773691+940742108+944550331+949608050+954622934+957494660+957688043
805+956091089+953383136+950105835+946998333+944345486+942218785+941360831
795+942618410+945521582+948338716+949688724+949563672+948964860+949287851
785+951655325+955464798+957647338+955363257+950102382+946456904+946533243
776+947936667+947094804+943478274+939871075+938873007+940179078+941449955
766+941599842+941999539+943618903+944998374+944768401+944336522+945448843
756+946801349+945977928+943448591+941692712+941660090+942553238+943930946
746+945848099+947297298+946788197+944802199+943870992+945653908+948894766
736+951341225+952637671+953639854+954797949+956476092+958268707+958283034
726+955673831+952699389+952070747+953364474+953395774+950650865+948027554
716+949002993+952360527+953677914+951977949+950410678+950666735+950684075
706+947917123+942629284+937628727+935723403+936727791+937112500+933732482
696+927970884+924097269+923917405+924717462+922969078+919140135+916117862
686+914580569+912651660+909105885+904250219+899037837+895365320+895075686
676+897589006+899675296+897741318+890271672+879689087+873641675+878196098
666+886853595+891315148+891470031+890204664+888436810+885118437+880008478
656+875038339+872661534+872856754+872657934+870031611+866772825+865472118
646+865898487+866149400+864770883+860585960+853291403+845735646+842182524
636+844020693+848877388+852843286+853187952+850163768+846493896+844799295
626+845620145+846383759+843979180+839950903+839207789+843905707+851214297
616+857026813+859178128+857497560+854123127+851400553+849699781+848373137
606+847506954+846877797+844736696+840091312+835536668
##END=
