##TITLE=<SNM>
##JCAMP-DX=4.24
##DATA TYPE=INFRARED SPECTRUM
##DATE=3/5/2025
##SAMPLING PROCEDURE=Instrument type and / or accessory
##ORIGIN=Admin
##XUNITS=1/CM
##YUNITS=ABSORBANCE
##RESOLUTION=4
##FIRSTX=4497.3318
##LASTX=599.83466
##DELTAX=-1.4281778
##MAXY=1.7419027
##MINY=0.21518423
##XFACTOR=1
##YFACTOR=1.6222733e-09
##NPOINTS=2730
##FIRSTY=0.23752232
##XYDATA=(X++(Y..Y))
4497+146413256+147187894+147445479+147172628+146484232+145563491+144658734
4487+143964706+143637202+143866294+144694235+145842276+146899841+147524657
4477+147460929+146765469+145996416+145741623+145912829+145828544+145130200
4467+144255671+143786942+143711429+143659440+143571417+143645653+143837618
4457+143868664+143630433+143308449+143069134+142776745+142153565+141192951
4447+140254823+139755599+139839874+140205782+140332806+140184693+140365479
4437+141158993+141948952+142084023+141664601+141081946+140472947+139895106
4427+139455329+139170482+139105009+139419277+139850713+139573582+138204339
4417+136625173+136134657+136949619+138097136+138659482+138544629+138124270
4407+137756405+137679992+137854579+137862055+137348061+136503164+135822731
4397+135512652+135311750+134819966+134017221+133510308+133990188+135369131
4387+136865022+137893791+138244479+137624412+135972535+134045576+132842983
4377+132643633+133042039+133504999+133678648+133604513+133672990+134119564
4367+134771605+135365778+135740137+135717403+135237909+134658267+134555327
4357+135069881+135648779+135654419+135110820+134647428+134845161+135743287
4347+136769815+137179923+136784530+136028897+135277185+134547730+133958581
4337+133735524+133789378+133860822+133948128+134167971+134450421+134732429
4327+135175301+135813509+136168147+135658442+134458357+133575846+133842221
4317+135012858+136069340+136322525+136046716+135957159+136288677+136709954
4307+137002049+137322710+137749792+138039278+137964389+137587514+137131314
4297+136783648+136658507+136796545+137153074+137651922+138218861+138682914
4287+138796840+138566361+138382672+138579781+138990201+139139785+138848379
4277+138485732+138498261+138764094+138765114+138428562+138318595+138880170
4267+139942585+141015334+141660302+141664500+141248550+140988963+141193842
4257+141517938+141534380+141392521+141516423+142021553+142813358+143777518
4247+144484414+144297437+143208889+142048347+141612713+142000776+142784195
4237+143397942+143480941+143180938+143004855+143206133+143498154+143481465
4227+143181342+142986695+143113058+143378745+143591579+143831500+144142379
4217+144315954+144329438+144551109+145105665+145477011+145164443+144338385
4207+143543760+143179983+143398135+144009384+144479132+144490954+144392156
4197+144662536+145187746+145468937+145361753+145243244+145524692+146196656
4187+146818009+146931384+146535918+146061696+145877134+146046118+146554178
4177+147399543+148330654+148877330+148902213+148879479+149336028+150129955
4167+150597132+150424080+150007028+149797436+149803333+150016222+150633258
4157+151343378+151159689+149684851+147901367+147074850+147423370+148288778
4147+149083688+149640954+150017251+150381827+150886535+151419497+151695673
4137+151669577+151598170+151636372+151677174+151705942+151988916+152672214
4127+153404802+153601038+152987805+151820677+150715816+150231095+150406223
4117+150811941+151171281+151605142+152130104+152377410+152069747+151442286
4107+150994637+150998697+151355879+151923295+152780445+153887860+154724288
4097+154767771+154171733+153504647+153072191+152865704+152867256+153141963
4087+153761157+154622146+155332505+155497566+155138933+154661497+154552834
4077+155168381+156397511+157532582+157918367+157632997+157169669+156756842
4067+156363029+156053758+155996864+156231054+156561212+156705698+156640078
4057+156686758+157004589+157229943+157026451+156686556+156718466+157124403
4047+157525032+157711293+157668544+157345697+156826743+156482898+156567109
4037+156859883+157058471+157313732+158033258+159281713+160614913+161418668
4027+161359680+160675628+160037374+159933451+160231700+160499912+160577528
4017+160611588+160698922+160782711+160770899+160551332+160087214+159636617
4007+159632943+160229532+161152036+161986489+162451250+162502357+162281412
3997+161878267+161269810+160651746+160510732+161050097+161832524+162316647
3987+162525522+162885221+163558765+164196670+164336489+163929082+163407372
3977+163258220+163566058+163950741+163974568+163657324+163456458+163630392
3967+163909425+164034456+164225806+164784790+165562606+166112754+166144976
3957+165722523+165246813+165243562+165952047+167132108+168249103+168784811
3947+168608875+168156257+167951185+167984638+167875902+167546845+167307089
3937+167400835+167932612+168998848+170355562+171104775+170530801+169272554
3927+168693545+169210975+169953666+170170790+170329752+171223873+172622931
3917+173254278+172114852+169780743+167982231+167852130+169035461+170675746
3907+172772230+175794342+179264441+181704476+182216946+180971687+178380828
3897+175343781+173443110+173707575+175442010+176587405+176180604+176019603
3887+177841390+180464674+181493948+181245649+181519061+181651532+180090793
3878+178152976+178180110+180368154+183479878+186466258+187943172+186719002
3868+184388622+183553397+183964901+183173693+180432433+177816719+177536400
3858+180507918+186602991+193689770+196106016+191096395+184152870+179695179
3848+178389242+179719594+182756531+186332868+189872960+193526565+196683242
3838+197546445+195704321+193115851+191182259+189613713+188157429+187480450
3828+187892726+188989917+191205094+195484295+200174192+201254096+198875768
3818+196990547+196129659+193863337+190267526+188015093+188848021+192583963
3808+197157519+200174468+202074275+204618583+206748539+206066342+203776928
3798+202345188+201343158+199542625+197566873+196677161+197102002+198434118
3788+200365248+202609525+204804035+207089867+210211364+214241311+217747950
3778+219380776+219911487+221479538+225707503+232605689+240251434+246287298
3768+250448835+254029985+257903157+262909489+270130411+279390318+288780840
3758+296945668+304975949+314751319+326950430+340235691+351271825+358637490
3748+365609397+375365276+386555835+394110608+397689370+402531377+411783457
3738+424938764+439442223+452734208+463271320+470101993+473842822+477298942
3728+482778559+489401900+494348766+496841672+498424383+500123674+502360603
3718+505880101+511256365+518961594+529631306+542144299+552355919+557533191
3708+559709753+562708221+568965802+577961170+586488746+591967959+594906502
3698+596863461+598949713+602568523+609181908+618976438+629577003+636069581
3688+635582757+630874196+625721063+621692512+619759251+621701697+628874874
3678+639364333+646551324+645324087+641127995+641050397+643752288+643781828
3668+640714948+638566603+639161005+641348076+643785062+646483793+649551409
3658+652258444+654287600+657065987+662737321+671847359+681468250+685714531
3648+682369223+676524837+672911611+672122846+672798007+673586111+674743172
3638+677841724+683230884+689418508+695534707+702504630+710229517+714633785
3628+711483649+703410527+696017710+692685189+694363831+700002392+706636425
3618+710916140+712092234+712039546+712776580+715156249+718556815+721001002
3608+720708540+718277948+716484304+717792005+722189073+727578453+731658222
3598+732969009+731551745+728935241+727083105+727465216+730910240+737040180
3588+743015292+745105072+743112216+739918210+737240642+734479743+731323728
3578+729437570+730249776+732229331+732231535+730202232+729891473+733863737
3568+739611272+741752269+738501901+733153598+729718862+729935490+732852980
3558+735826905+736419324+734213148+731395006+730953154+733775337+738462882
3548+743194664+746527259+747477245+745871645+742225058+737499301+733402411
3538+731543221+731516326+730925451+728367953+725720439+725828312+729306623
3528+734517146+738765558+739266344+735816691+731996537+731454087+733498233
3518+734315509+732362041+730078781+730204216+732842913+735799055+736989036
3508+736843246+737709903+740763116+744476646+746627710+746841913+746116416
3498+745103969+743627258+740843947+736478110+732404367+731327476+733470824
3488+736281690+737838792+738292108+737412885+734311468+730221926+728284183
3478+730131615+734591805+738873872+740067968+736951780+731273466+726723333
3468+726384577+730668408+737135120+742709457+746150880+747739947+747500907
3458+745497985+743017938+741751387+742032459+742454839+741014501+736789677
3448+731263545+727657300+728170652+732124471+736850521+739887494+740539140
3438+739489438+737358435+734652649+732749369+733356190+736536014+740059959
3428+741505293+741412411+742574175+745532081+747820043+747640892+745856067
3418+744146341+742901174+741323129+738740794+735423484+732823513+732616145
3408+735013670+738384843+740715720+741455619+741021923+739018119+735201566
3398+731559755+730635340+732257181+733947728+734444839+734873465+736013037
3388+736591127+735300033+733416446+733516236+736068737+739088736+740694116
3378+740591681+739236583+736985215+734521702+733314526+734925270+739361945
3368+745018950+750149891+752844287+750947547+744824735+738681935+736483180
3358+738171890+741027728+742806381+742566606+740747391+739525885+740975702
3348+744480467+747307280+747356954+745135641+743381605+744441154+747750969
3338+750548388+751099142+749801802+747472396+744965895+743615794+743735057
3328+743693466+742780809+743334429+746980134+751412326+752923428+750971870
3318+748216850+746567675+745806980+745411422+745518927+746024857+746159477
3308+745621289+745360057+746433789+748300107+749105038+747916306+745608429
3298+743894368+744198734+746419754+748273579+747374516+744579302+743051152
3288+743966014+745385997+745491077+745061643+745793533+747328369+747671387
3278+746655119+746625653+748594699+750400908+750376144+750151434+751587069
3268+753326702+752634346+749493542+746760641+746432687+747281046+747295522
3258+746355236+745242925+744274715+743336780+742734441+743299745+745298919
3248+747512297+748214793+747467252+746907900+746781877+745641350+743676785
3238+743663411+747279430+752069924+753734238+751295782+747737154+745407968
3228+743621967+741195563+738830223+737519215+736596123+735087226+733663716
3218+733726765+735434653+737634363+739132458+739448214+739145685+739514789
3208+741028022+742526925+743013823+743272776+744229523+745339702+745792430
3198+745640982+745158935+743949186+741574073+738948236+738159839+740096700
3188+742512743+742030181+738159471+733471706+730276818+728938254+728958168
3178+730185919+732584547+735315831+736874623+736560852+735277400+734035760
3168+732387833+729616868+726672189+725503885+726622441+728164626+727943443
3158+725868066+723590465+722688610+723790191+726077492+727203617+725337667
3148+721623622+719045550+719067448+720732863+722500934+723420132+722753789
3138+720392858+717747622+716505614+716234022+714912579+712222960+710133401
3128+710132813+711596665+712696630+712108694+709932646+707365375+705414552
3118+704101707+703213152+703138788+704029106+704788404+704117212+702577672
3108+702091730+703268558+704695963+704702282+703188976+701467714+700374436
3098+699368308+697974706+697037138+697133988+697039049+695548963+693680441
3088+693422589+695069414+696852696+696982026+695480550+693711818+692420283
3078+691184742+689813038+689006269+689244501+689995055+690486875+690591442
3068+690394801+689353549+686884819+683710727+681342815+680312365+680256738
3058+681333336+683993121+687614945+690552055+691371242+689518004+685628188
3048+681568922+679105849+678278506+677818797+677013278+676214519+675756427
3038+675472048+675276217+675316559+675314942+674519784+672768834+670948149
3028+669868980+669187279+667910294+665701546+663379929+662229334+662777737
3018+664143636+665017568+665228390+665296435+664940043+663644761+661984048
3008+660785102+660039471+659666913+660072979+660964694+660806338+658623309
2998+655333335+652408643+650259269+648532496+647172475+646562420+646879792
2988+647621014+647792229+646778166+645045072+643542201+642508297+641512898
2978+640522129+639993125+639993787+640191750+640521100+641009614+641236602
2968+640703705+639497263+638054501+636652447+635497958+634799871+634250440
2958+632991825+630759269+628547728+627563352+627916364+628614230+628585940
2948+627680925+626511959+625449691+624444004+623691393+623504306+623399739
2938+622477676+620771184+619074759+617671971+616238614+614733060+613713779
2928+613721936+614428143+614627980+613512877+611649536+610134723+609339198
2918+608951429+608556385+607751711+606385444+604939926+603963522+603228363
2908+602125642+600653486+599453291+598942254+598838754+598566059+597804225
2898+596554980+594894010+592956891+591105490+589684038+588680152+588030894
2888+587950357+588381811+588532672+587671636+586049722+584456908+583307379
2878+582578208+582125958+581662355+580785520+579383173+577834595+576532626
2868+575294513+573642618+571711305+570382698+570284452+571066346+571961698
2858+572628004+573006477+572803040+571713032+569948414+567963863+565849393
2848+563576127+561536243+560144441+559173806+558151659+557209866+556885843
2838+557122348+557071755+556076430+554447131+553005287+552100566+551338842
2828+550241266+548957557+548054893+547628950+547064712+545882740+544411833
2818+543248783+542430515+541691461+541262578+541633152+542406449+542203306
2808+540200494+537178621+534597572+533206615+532837180+532920105+532906291
2798+532548649+531975152+531324792+530385865+528925062+527282537+526180367
2788+525854140+525768716+525332375+524553089+523799082+523154416+522264759
2778+520831917+519100734+517643532+516687851+515910696+514883920+513438145
2768+511637815+509748276+508204291+507272124+506707298+506007521+505031962
2758+504071872+503269329+502363175+501138877+499748177+498479899+497511763
2748+496840974+496222138+495346149+494195297+492948073+491622626+490177401
2738+488751834+487459013+486204440+484937302+483799934+482911599+482195987
2728+481448188+480600527+479945243+479771860+479707526+478919680+477153225
2718+475066495+473372127+472091983+470883006+469780175+469181657+469077679
2708+468823722+468010854+467033679+466350289+465729542+464699827+463283261
2698+461911115+460945477+460465928+460256869+459929944+459229101+458203795
2688+457006869+455670914+454244318+452980853+452110265+451491723+450784671
2678+449936311+449194722+448645915+448040968+447142676+446022651+444908871
2668+443884740+442899482+441986861+441258756+440734566+440313914+439795125
2658+438928027+437733379+436685624+436209051+436117491+435898071+435366827
2648+434729877+434156270+433566093+432798197+431867793+430995442+430312088
2638+429630865+428695722+427601158+426737330+426324173+426183490+425971933
2628+425485329+424737861+423886085+423093866+422392766+421704048+421002727
2618+420331719+419679926+419039596+418504347+418077668+417540509+416782460
2608+416067104+415652183+415348441+414799377+414049154+413474592+413236323
2598+413088770+412690089+411919143+410938955+410036880+409370023+408897050
2588+408552599+408307571+408049462+407637995+407121116+406737242+406671438
2578+406821637+406788533+406230100+405305061+404556638+404297390+404328657
2568+404277844+403977630+403502306+403021213+402656150+402404361+402175132
2558+401911916+401681768+401612326+401708662+401784387+401641977+401259131
2548+400763048+400309769+399998937+399787600+399513362+399129524+398854404
2538+398916534+399165053+399133676+398581783+397826195+397431997+397670853
2528+398314232+398856903+398945009+398654604+398326099+398150145+398017692
2518+397743637+397333750+397011013+396957591+397044815+396964572+396637830
2508+396260055+395934783+395558000+395105786+394744655+394577408+394512118
2498+394467845+394497495+394583397+394507048+394089261+393422331+392752902
2488+392296940+392210267+392479325+392760103+392602923+391973873+391322558
2478+391018963+390968223+390908408+390795024+390696190+390575384+390372939
2468+390109356+389810464+389496178+389239355+389082469+388967836+388855628
2458+388798385+388819805+388804116+388576025+388088908+387524008+387164273
2448+387157402+387426790+387791228+388105625+388271880+388193180+387841968
2438+387377006+387024876+386800863+386525082+386132132+385746347+385438675
2428+385118436+384693448+384210151+383828077+383703671+383874077+384213936
2418+384505148+384557909+384305385+383863459+383490644+383374614+383437663
2408+383472383+383465366+383581211+383809192+383888847+383666121+383315608
2398+383120805+383160155+383301389+383439537+383599582+383792622+383938375
2388+383957370+383737436+383012785+381530599+379351575+376770342+373949923
2378+370800043+367223705+363375151+359589020+356058021+352703528+349462199
2368+346613526+344665826+343850717+343834294+344181610+345032395+346933029
2358+350088861+354204122+359098926+365136829+372505250+380095552+385917893
2348+388604941+388261886+386327927+384348813+382466734+379750550+375779756
2338+371182521+366877528+363214774+359956691+356924384+354406090+352856850
2328+352345593+352421648+352534003+352570524+352906819+353858642+355222999
2318+356482274+357318326+357802578+358222018+358869659+359903085+361264392
2308+362742978+364109502+365154281+365732518+365933934+366102320+366518013
2298+367111865+367590128+367812377+367960886+368290897+368778787+369142233
2288+369191981+369007575+368778676+368656879+368743882+369011580+369222109
2278+369132019+368786135+368419088+368118727+367822150+367561029+367411417
2268+367259749+366925549+366497842+366287203+366425645+366701610+366839133
2258+366816059+366806323+366885023+366945683+366887668+366738167+366614643
2248+366676038+367022987+367532187+367904745+367976721+367865872+367760424
2238+367724014+367770932+367963604+368321870+368726651+369010221+369119306
2228+369148295+369209984+369308488+369387078+369453800+369554766+369667415
2218+369740824+369784473+369843076+369982877+370297273+370787882+371306266
2208+371732026+372081180+372386428+372662797+373000157+373501163+374135651
2198+374742619+375149714+375333679+375511213+375958503+376701893+377495765
2188+378090094+378436199+378683285+379011643+379447249+379905452+380404841
2178+381047412+381773606+382366870+382755227+383139028+383777043+384744960
2168+385903160+387046627+388113524+389240127+390565831+392081342+393808777
2158+395996509+398891440+402371809+405983675+409280227+412057254+414414437
2148+416642254+418913058+421118059+423125831+425037929+427021782+429071881
2138+431106658+433172078+435423446+437990753+440902071+444033763+447140104
2128+450037166+452734722+455299678+457637683+459495146+460623916+460916929
2118+460460600+459434008+457915926+455903156+453515808+450972971+448351727
2108+445539060+442412805+438975313+435361683+431770355+428348773+425117805
2098+421983687+418821646+415633114+412620684+409991247+407722463+405647932
2088+403677232+401807570+400065292+398566425+397447612+396617843+395779367
2078+394797967+393849266+393111645+392539507+392024760+391575082+391246576
2068+391034358+390871189+390673998+390404830+390070998+389644613+389118990
2058+388670929+388514741+388543142+388420866+388075864+387759521+387611085
2048+387536353+387529115+387734536+388135826+388489573+388645944+388702600
2038+388814551+389070014+389539239+390235452+391051737+391879411+392697165
2028+393441105+393927562+393982931+393564336+392808638+392045923+391581548
2018+391313777+390765962+389659163+388251415+386975458+385984909+385183248
2008+384493501+383927793+383467938+383020427+382525373+382021942+381539931
1998+381051196+380657696+380615774+380920066+381079487+380639141+379736221
1988+378837635+378208365+377847564+377631304+377379184+377002621+376630725
1978+376437501+376400980+376367435+376260775+376112046+375963206+375810729
1968+375584512+375211587+374778185+374498950+374419625+374343460+374141639
1958+373892680+373644565+373337076+373003133+372786946+372757663+372873362
1948+373129964+373652060+374483923+375198911+375041952+373835400+372335504
1938+371346682+371013400+371050840+371174475+371241785+371245459+371247774
1928+371374128+371858894+372753107+373582398+373873390+373931221+374262262
1918+374501706+373903445+372689545+371883695+372073464+372920722+373581884
1908+373489589+372826113+372162526+371751609+371421671+371061495+370904756
1898+371224590+371856249+372281678+372370996+372631567+373319403+373827831
1888+373504690+372564183+371615997+370965343+370665643+370657486+370759040
1878+370828995+370877457+371011600+371563787+373080033+375605933+377923472
1868+378280121+376485155+374118639+372514986+371835600+371652959+371573524
1858+371419099+371264051+371304466+371578704+371974814+372486144+373353021
1848+375040041+377740940+380363323+380764907+378559760+375975294+374770506
1838+374768816+375027622+375313214+376380001+378853397+381927553+383717081
1828+383570189+382615757+381580934+380254899+378867433+378182242+378377890
1818+378890506+379270560+379765430+380894751+382579346+383978570+384405799
1808+384135529+384020198+384766086+386624468+389165321+391291291+392099859
1798+391956715+392271920+394185487+397384563+399763130+399418606+397470906
1788+396512983+397533403+399720841+402021516+404118570+405896708+407124570
1778+408192056+410257659+414198545+419432766+423577346+424593210+423334412
1768+421763900+420919912+421469784+423741728+426771426+428926532+430065589
1758+431157471+432372143+433727388+436254720+440734456+445933993+449305791
1748+450017069+449562834+449517275+450559409+452710069+455271939+457233894
1738+458992229+462426120+467979073+472409061+472492244+470273208+468669224
1728+468269808+469064121+471110803+474102327+478042772+483874078+492135683
1718+500771205+505463858+504940292+502437686+500816985+501146960+503900032
1708+509094315+515472187+521057546+525892682+532122890+540148909+546744143
1698+549799340+550790293+550479240+549504232+549995135+553041734+557901487
1688+564173800+572909112+583717450+591471362+592494978+591094799+591872982
1678+596013374+602821598+610313397+616665696+622419184+628674780+633945192
1668+636074578+636848426+639726089+645340767+651297288+655463693+658864039
1658+663991233+672610479+685314196+699157486+706040920+705947156+707321432
1648+712415852+717355076+718126499+716571676+716607535+719765388+726058828
1638+734459609+741446360+741940973+736970445+733126556+733062112+734954075
1628+736213131+736267288+736142881+735726821+733878139+731285737+729844003
1618+729228144+726495683+720474057+714108897+709748204+707104143+704830290
1608+701921397+698351526+694861531+692190135+690392156+688940943+687586213
1598+686670175+686359196+686171815+685597546+684682244+683757168+682907853
1588+681772543+679963468+677804615+676172561+675624305+676433866+679160594
1578+683875255+688402387+689574145+688514889+689081663+692284928+696055554
1568+698611435+700850605+704137199+709086564+717135436+730402106+747093077
1558+757182127+757544765+757232757+760505463+766299587+772971317+779981949
1548+787762976+797115288+808250587+820327202+831798611+839111112+837289325
1538+829683113+825173176+826231182+829578180+831010214+830553591+831384756
1528+834744539+839401810+844415252+850289105+856662494+861470110+864112040
1518+865976300+867343155+867887589+868666875+871211880+876054548+882730540
1508+889344953+891558992+887623176+883087593+882173172+884602075+888205234
1498+890423167+889966912+888429871+888981874+893242704+899761443+904276965
1488+903622085+899725069+896340889+894928328+894954267+895708422+897184766
1478+899589640+902817522+906646346+910251856+911401422+909134917+906436332
1468+906498793+909332218+912272856+913167877+913580630+916684914+923113268
1458+929042674+928659167+923304250+919350284+918267882+918126501+917384765
1448+915676729+913400671+911411783+910529548+911311626+914174225+918871690
1438+923466500+924727687+922026971+918899981+917994231+918798207+919496736
1428+919325227+919194500+920034704+921543968+922899139+923785122+923884838
1418+922504242+919862239+917193268+915409545+914754151+914808602+914762602
1408+914322513+913826798+913339092+912759092+912685094+913694382+915153163
1398+915944500+915877484+915147358+913491128+911175463+909232649+907843676
1388+905619350+901382916+896638421+894453996+895954810+899327747+902190198
1378+904499030+908059863+913286552+918018260+920447016+921491428+922746662
1368+924543098+926869786+929938063+933031691+934370696+933246114+931196824
1358+930072977+930288796+931138552+931866106+932309428+932884946+934109611
1348+936050441+938197830+939819891+940494537+940491892+940655318+941627423
1338+943182100+944669687+945802425+946588104+947099692+947664848+948671710
1328+950063549+951611613+953254763+954552471+954758737+953970707+953158868
1318+952830620+952721278+952792997+953427521+954574075+955700567+956630052
1308+957606933+958561990+958882742+958061792+956298791+954389265+953167245
1298+952982215+953590506+954376700+954430930+952886688+949888440+946687673
1288+944222544+942137026+939573724+936435638+933419240+931039203+929046715
1278+926961713+924839528+923051690+921552713+919914339+918032957+916377976
1268+915406973+914962843+914464776+913373482+911090149+907023313+901529661
1258+896324943+893140122+892222248+892539694+893007927+893141372+892855229
1248+892197190+891371904+890784850+890816006+891484406+892471722+893575802
1238+895011804+896992902+899052480+900283465+900457325+900322190+900585259
1228+901208982+901751579+901974232+902102827+902573044+903497605+904732412
1218+906506288+909235441+912526592+915228851+916910065+918532714+921029955
1208+923832665+925740795+926761839+927811028+929098594+930190550+931164786
1198+932505333+934262823+936096368+937901841+939989710+942505322+945000654
1188+947183756+949623167+952518024+954549237+954712663+954203060+954642414
1178+956114716+958352710+961698826+965730831+968846063+969996732+969550397
1168+968476812+967931863+969022716+971699917+974416652+976060611+977572888
1158+980390883+984037396+986483347+986673888+985595453+984853203+985033824
1148+985728310+986837755+989016669+992522463+996313297+998750944+998899967
1138+997350801+996311753+998035661+1002226463+1005866216+1006716119+1006054259
1128+1006794892+1010213977+1015243291+1019589435+1021115747+1019586201
1120+1017512368+1017874786+1020712694+1023297233+1023519960+1021896723
1111+1020669559+1021430842+1023799121+1026453102+1028756569+1030745162
1103+1032122672+1032548285+1032417853+1032127522+1031492262+1030751849
1094+1031036522+1033378715+1037501250+1041564706+1043630015+1043769118
1085+1044150568+1045422115+1046128579+1046590052+1048687767+1052461553
1077+1056139150+1059124465+1062189288+1064849809+1065292322+1063066820
1068+1060114426+1058752788+1059194788+1059954454+1060436428+1061696365
1060+1064529129+1068246187+1071536088+1073200475+1072512528+1070312378
1051+1069025766+1070413343+1073104359+1073741823+1071509340+1069200435
1043+1069190956+1070722118+1071654248+1070983497+1068914072+1066390744
1034+1065081353+1065812067+1067305606+1067829539+1066987058+1065716245
1025+1064749431+1063787834+1062734604+1062610492+1064608270+1068395283
1017+1071428656+1071174479+1068439226+1066686660+1067635838+1069269656
1008+1068718902+1065989601+1064007034+1065147341+1068123103+1069189854
1000+1066816871+1062883995+1059028349+1055097236+1051160539+1048030683
991+1045875872+1044204578+1042432244+1040170736+1037989838+1037182922
983+1038232037+1040243337+1041664422+1041061421+1037893943+1033032463
974+1028250786+1024940604+1023067673+1020830781+1016164619+1009585625
965+1004263187+1002551110+1003401601+1003425042+1000146089+994394953+989277680
955+986497897+984606227+981377023+976770382+972295055+968815421+966483810
945+965267815+964257499+962080496+959049989+957273615+957985149+960318965
935+962924961+965234968+966940947+967727434+967783134+967449815+966409886
925+964082831+960699239+957335928+955044438+954408224+955418246+957026345
915+957447842+956017425+953915154+952243639+950777068+949254136+948238896
905+947949815+947690494+947070592+946836623+947984499+950379379+952397880
895+951981599+948652605+944284122+941240388+940244916+940235951+940066573
885+939872872+940146890+940287977+939573724+938691488+938626456+938917154
875+938381538+936939289+935621742+935324944+936139135+937578296+938888128
865+939352246+938658642+936833768+934413389+932539209+932386879+934499658
855+938049322+940896636+941301526+939532573+937326177+936145307+936069840
845+936099307+935572655+934906019+934592394+934339686+933829201+933604049
835+934456597+936135975+937395912+937759579+938503593+940784942+943534964
825+944713776+944127604+943396082+943652463+944668291+945739818+946252655
815+946087465+946054177+946965291+948447735+949393974+949403967+949224155
805+949598917+950156358+949913865+948680749+947133126+945860917+945158274
795+945083395+945331326+945725856+946630210+948155714+949590320+950505843
785+951490440+952753831+952986992+950881046+947350268+944893736+944799825
776+946169325+947593056+948509093+948841309+948477642+947636704+947142091
766+947928358+949865219+951179093+950298327+948105525+946910841+947793370
756+950254384+953550973+957291103+961098985+963958424+964625943+963110799
746+960800204+958775972+956824708+954577749+952608849+951864541+952903589
736+955491802+957880877+957345113+953024027+947681015+945556111+948176289
726+952433960+954008844+952648236+951562526+952320355+953187600+951935525
716+948465371+945220367+945832920+951946548+960628328+966097363+965305879
706+960871483+957426091+956756075+956421654+952288537+943004492+931600906
696+922677074+919086407+920815679+925567155+930146093+932225437+931359736
686+928595604+925364930+922697135+921211164+920883872+920567895+918901304
676+915893209+912347441+907992111+902024201+895866557+894165429+898920578
666+904162552+905090347+902208349+897523228+892281108+887311462+883827712
656+882464385+882340199+882479963+883575446+886040281+888175179+888713662
646+888768553+889351713+889110028+886206279+881094297+875904423+871894463
636+868674591+865694860+863499927+863512199+866333353+870349118+872890009
626+872797273+871277060+869789620+867997740+865111774+861708636+859099406
616+858536968+860223841+862778693+865188784+867592335+868623079+866498836
606+861803208+857074439+854011526+852480731+852240515
##END=
