##TITLE=<SNM>
##JCAMP-DX=4.24
##DATA TYPE=INFRARED SPECTRUM
##DATE=2/5/2025
##SAMPLING PROCEDURE=Instrument type and / or accessory
##ORIGIN=Admin
##XUNITS=1/CM
##YUNITS=ABSORBANCE
##RESOLUTION=4
##FIRSTX=4497.3318
##LASTX=599.83466
##DELTAX=-1.4281778
##MAXY=1.8723503
##MINY=0.40713081
##XFACTOR=1
##YFACTOR=1.7437621e-09
##NPOINTS=2730
##FIRSTY=0.43458971
##XYDATA=(X++(Y..Y))
4497+249225341+247995384+248080291+249435268+250938901+251494626+250839347
4487+249059150+246303205+243588516+242646265+243991347+246065881+247216948
4477+247690381+248544682+249509869+249362068+247949888+246466490+245849751
4467+245814305+245438221+244396963+243482126+243673697+244855356+245947391
4457+246320535+246471737+247045578+247777100+247906152+247230108+246190867
4447+245284250+244898391+245183482+245574845+245225133+244302058+243928469
4437+244695232+246116060+247440342+248244568+248381021+247906836+247068890
4427+246157471+245394520+244954722+244919669+245190763+245543894+245779576
4417+245696668+245045936+243983143+243383785+243960908+245292881+246312109
4407+246445622+245833942+244811945+243660691+242627431+241855285+241453804
4397+241764635+243126124+245080356+246328226+245936470+244234891+242326701
4387+241176489+241086283+241525022+241675865+241356677+240964990+240692289
4377+240457922+240216463+239786698+239041555+238576890+239307556+241167089
4367+242900593+243315627+242398448+241083173+240028071+238974388+237587622
4357+236420234+236354348+237474925+239062850+240309608+240725377+240357052
4347+239850686+239888986+240524354+241274009+241629908+241302158+240344439
4337+239247465+238570156+238427106+238567695+238711565+238557526+237966525
4327+237437103+237707753+238743799+239789142+240203645+239631735+237908485
4317+235594696+233994927+233920496+234881103+235881599+236523838+236924259
4307+237113847+237206821+237645321+238594357+239566824+240065278+240039966
4297+239447770+238220068+236862407+236188260+236469609+237436317+238715462
4287+239812436+240226923+239977687+239612012+239524319+239525208+239172334
4277+238392036+237571625+237011781+236587057+236040202+235271440+234373659
4267+233762885+234089183+235573930+237545920+238961143+239342610+239043350
4257+238701208+238655388+238803241+238788115+238425944+238051245+238086298
4247+238337225+238340763+238198841+238287269+238495606+238516525+238441821
4237+238476464+238513688+238386481+238217367+238245721+238395761+238246593
4227+237718025+237579948+238613020+240262113+240926826+239889824+238195440
4217+237225980+237260931+237771570+238266367+238384994+237858580+236950357
4207+236464994+236917628+238029266+239155055+239800097+239709191+238945607
4197+238001203+237436607+237279526+237111694+236771330+236559883+236723613
4187+237177408+237745558+238248729+238412254+238038717+237264298+236509653
4177+236221843+236597158+237439410+238335602+238953794+239201525+239197594
4167+239010245+238530796+237847214+237417842+237460569+237613600+237567831
4157+237424883+237207009+236748668+236191285+235938922+236128527+236613206
4147+237325825+238294857+239373937+240138495+240116533+239239518+238036222
4137+237211402+237089356+237515943+238032479+238100329+237563780+236895427
4127+236621427+236722263+236925592+237153566+237289353+237002586+236287318
4117+235746548+235966216+236903152+237965876+238426183+237860135+236545167
4107+235380975+235114205+235660034+236377712+236825389+236931779+236669401
4097+236054336+235360722+234854151+234424180+233887118+233478408+233677191
4087+234596182+235747266+236435188+236362125+235837727+235384633+235181918
4077+235003490+234664118+234324369+234326454+234839999+235607770+236040117
4067+235799820+235254759+234992381+235069204+235148796+235131945+235249495
4057+235675450+236267219+236607361+236370294+235742343+235248470+235162879
4047+235377984+235664067+235745591+235399758+234753810+234243376+234132252
4037+234276190+234472666+234878095+235804486+237094313+238035128+238052492
4027+237192687+235899186+234759724+234410695+235101369+236324422+237337583
4017+237974575+238455340+238669539+238373885+237838361+237532008+237410065
4007+237167615+236863176+236713991+236688611+236747249+236994912+237292737
3997+237267750+236921422+236699275+236840172+237181664+237595364+238080214
3987+238536966+238840687+238920586+238614849+237799052+236805939+236346299
3977+236875174+238222956+239678906+240370178+239957640+239029848+238469918
3967+238615754+239370656+240638299+242083584+242932724+242651461+241541480
3957+240331912+239577386+239622899+240685213+242637497+244735754+245864688
3947+245609420+244903159+244838299+245167981+244783643+243438630+241978270
3937+241255260+241811720+243850228+246572778+248157627+247596911+246105652
3927+245542543+246210812+246957475+247088647+247349231+248566439+250206850
3917+250742152+249201842+246232329+243484997+242216516+242713107+244923548
3907+249177043+255488511+262142309+266258308+266523557+263664126+258732161
3897+253293691+249860317+250202834+253355406+255627084+254607001+252863481
3887+253836564+256949554+259257344+260303354+261316566+260959727+257779758
3878+254449526+254202906+257026497+261378127+266303393+269989849+269872469
3868+267055167+265184833+265067932+264473428+262149572+259545820+258774922
3858+261320497+267911981+277038974+281999789+276766734+266584640+258692390
3848+255709735+257473490+262054394+267068412+271700349+276422491+280239742
3838+280422067+276697363+272202699+268997590+266732202+264897297+263855202
3828+263685627+264222073+266702874+272688147+279965213+282747324+280259311
3818+277110174+274100327+268980960+263063999+259986353+261329897+266222212
3808+271885699+275711872+278736759+283236532+287483703+287700688+285023001
3798+282783830+280602598+277129846+273794743+272859021+274734892+278512168
3788+283318055+288418024+292987254+297143878+302381599+309426776+316556689
3778+322040586+327209841+334630982+345396147+358766978+372201797+382550800
3768+389190447+393585214+396435074+398626527+402052211+406760936+409666786
3758+408756836+407046661+409457662+418382146+431291730+440727605+443111467
3748+444576321+450557424+458639467+462120251+461748663+464490611+474140224
3738+490399232+509093375+523419480+529801670+531342271+533680432+540346261
3728+551454917+563922533+573592073+579138044+582075409+583482188+583725151
3718+583571402+584183937+587033661+592602533+597626550+596738169+589769832
3708+581535954+575914511+574013055+574144859+573115274+570041490+567452334
3698+567659235+570848860+576590487+584856495+594839379+603205813+604893703
3688+599337136+592265297+587874255+586499607+587698357+591585082+598164364
3678+606084864+611208418+609631688+604861298+602471592+601641388+597445456
3668+588948106+580631440+576085487+575585273+577246842+579384220+581592764
3658+582854682+581362243+578756714+580060880+587479389+596828614+599187283
3648+591141815+579938988+572414892+569637532+569235658+568378656+566236732
3638+563835506+562013386+561375522+563617872+570185395+578768130+582540689
3628+578027346+571035766+567053331+567215147+571179158+576579890+578862677
3618+576926355+575393788+577681838+582084023+584601295+583493605+580206562
3608+577123173+575987386+577575943+581442638+585700918+588449601+590341623
3598+593617659+598083148+600838462+600614640+600082159+602601277+608167757
3588+612726425+612297787+608159006+604402649+602655216+601499740+599119399
3578+595887867+593936164+594553142+597407104+601734567+606913154+611647516
3568+613655892+611677527+607246493+602654532+598840750+595820597+593548202
3558+592189414+592021855+593130844+594866724+596227974+597196203+598391945
3548+599424846+599193983+597652596+595788945+594104474+592400588+590529553
3538+588709449+587655698+588205407+590187122+592204932+592943119+592451108
3528+591953013+592245335+592614291+591755033+589377085+586209541+582933641
3518+580319225+579254262+579622193+580078860+579301432+576881441+573269160
3508+569757851+568051162+568894320+571224858+573080135+573306418+572084185
3498+570147692+568305336+567301012+567308737+567650416+567511946+566938618
3488+566601142+566856035+567544180+567991105+566790406+563014532+558066740
3478+554427831+552667818+551699282+551235915+551719620+552592380+552676227
3468+551677576+549993003+547692852+544926054+542713750+542231959+543550824
3458+545683245+547446744+547881261+546758668+545155891+544404613+544448092
3448+544500424+544619615+544984333+544540861+542278720+539134351+536868074
3438+535814323+535008935+533832164+532512924+531354542+530419538+529961675
3428+530183172+530479902+529943217+528657850+527452332+526580290+525776543
3418+525007662+524338556+523728995+523281318+523131602+522940801+522101949
3408+520796860+520169764+520781649+521444192+520723438+519254584+518909384
3398+519940952+520641231+519694912+517556885+515471942+514118007+513310227
3388+512530304+511634643+511041592+511206450+512020861+512847612+513155726
3378+512901278+512230668+511341091+510779418+511061519+511866360+512409985
3368+512557000+512735292+512958122+512897039+512730301+512767662+512484228
3358+511152613+509227914+508095545+508510168+509815633+510647511+510247279
3348+509118567+508303984+508128974+508001374+507336541+506127879+504633936
3338+503218748+502487261+502930255+504298272+505568667+505756461+504835403
3328+503773482+503540670+504203999+505060010+505320850+504580305+503081953
3318+501661979+500990379+500781324+500183282+498935925+497614703+496746831
3308+496230893+495695096+495154001+495195976+496273689+497880362+498962655
3298+499078292+498512723+497600039+496685235+496188645+496177946+496439299
3288+496975745+497736492+498289346+498501784+498929568+499896190+500786553
3278+500836014+500245971+499857770+499871682+499627352+498833107+498066960
3268+497541280+496441589+494369498+492555581+492610374+494515864+496495357
3258+496879695+495658658+493913105+492435296+491570022+491621192+492517605
3248+493572040+494163451+494262031+493910883+492738316+490586548+488209283
3238+486627665+486046679+486017933+486221382+486346623+485831472+484580971
3228+483345476+482760388+482613476+482362104+481837997+481292971+480940319
3218+480550546+479687152+478317186+476870721+475788326+475246854+475079399
3208+474883982+474478451+474066084+473713603+473127422+472197169+471242783
3198+470460297+469495418+467877430+465805305+464182019+463654323+463877222
3188+463995285+463554957+462637830+461421784+460149611+459360460+459391429
3178+459590058+458892411+457309220+455803006+454798989+453988337+453227625
3168+452516510+451628984+450545665+449527155+448512678+447343940+446451833
3158+446347887+446649779+446363610+445007488+443042933+441229939+439903144
3148+439007243+438488434+438254700+437954039+437242206+436220620+435334700
3138+434907361+434892663+434955626+434752860+434129831+433064253+431717941
3128+430570942+430062934+430004860+429762136+429097371+428365543+427805750
3118+427208323+426462924+425895099+425731335+425662117+425279966+424625832
3108+424022048+423611526+423299482+422973560+422541026+421901522+421132093
3098+420524480+420185843+419830354+419230466+418606788+418304861+418284865
3088+418124758+417504977+416613007+415862754+415216926+414270061+413082796
3078+412267017+412103560+412193766+411985497+411218358+410087288+409244130
3068+409238626+409825559+410227330+409992571+409175288+407949876+406563879
3058+405416026+404742032+404357352+403921639+403306027+402606158+401994033
3048+401617899+401462030+401268904+400715982+399673681+398313902+397057897
3038+396319506+396166987+396332085+396545993+396624577+396326718+395553632
3028+394623789+393941079+393467492+392863264+392027796+391157566+390367389
3018+389595021+388898980+388567760+388763245+389168126+389144199+388270721
3008+386721951+385140880+384086034+383533488+383017038+382289448+381562985
2998+381009755+380439401+379679167+378896100+378344852+378105000+378097207
2988+378044772+377542883+376522493+375501385+375074012+375283545+375610629
2978+375473356+374707755+373596066+372491828+371559251+370852853+370350451
2968+369889649+369361884+368852749+368327445+367561571+366687000+366223907
2958+366289468+366350379+365947275+365150604+364205823+363221050+362271655
2948+361480624+360968720+360797230+360879677+360981333+360920216+360716733
2938+360456747+360087004+359497645+358795520+358298587+358158647+358157485
2928+358013307+357708749+357331554+356787246+355917938+354816538+353805787
2918+353134083+352826107+352745165+352640432+352229808+351425959+350419617
2908+349449679+348641317+348102307+347910890+347920598+347815421+347396559
2898+346672147+345804617+345135478+345018201+345402505+345772863+345680162
2888+345158516+344513543+343918782+343349043+342764537+342223852+341803076
2878+341471035+341135064+340795196+340551823+340450474+340369669+340085893
2868+339526852+338942483+338596941+338319728+337733649+336904471+336269581
2858+335922740+335524422+334974747+334634742+334717359+334892711+334725768
2848+334219025+333675195+333255479+332917149+332615906+332374481+332180911
2838+331885957+331304733+330533116+329988911+329907661+330010445+329883665
2828+329411685+328717969+328019672+327557947+327363624+327149647+326631009
2818+325863153+325209087+325019413+325271469+325525848+325352445+324740047
2808+324010611+323458987+323106951+322729791+322169177+321586381+321234583
2798+321062547+320793879+320347741+319926999+319683796+319522903+319294980
2788+318982253+318593744+318095034+317554793+317119558+316757131+316274657
2778+315594237+314774732+313878968+313039843+312472565+312223483+312076878
2768+311841127+311565316+311359611+311144437+310728002+310052915+309216012
2758+308306233+307400181+306648356+306160310+305855513+305589409+305343472
2748+305155336+304975062+304704036+304277175+303686722+303049679+302595165
2738+302422172+302341264+302106266+301689489+301197957+300677678+300144034
2728+299660809+299266216+298916914+298560570+298167071+297671984+297008450
2718+296247362+295611105+295248848+295046698+294770476+294368534+294013216
2708+293834343+293723014+293461217+292988177+292454465+292012667+291653521
2698+291286171+290884024+290500779+290217824+290099419+290109946+290066707
2688+289774590+289228505+288614158+288106732+287736476+287453965+287241799
2678+287101962+286965543+286692911+286216829+285668658+285275655+285104200
2668+284998527+284815228+284578794+284340992+284067214+283765356+283551635
2658+283485255+283459841+283321644+283030570+282678517+282398022+282279737
2648+282315337+282341315+282106538+281530014+280826795+280256047+279878511
2638+279650622+279545855+279518647+279543667+279645341+279725958+279561493
2628+279118380+278617396+278200962+277817785+277444573+277145330+276925696
2618+276733663+276597210+276619856+276798711+276937916+276850411+276579966
2608+276281440+275986128+275671555+275412048+275255803+275107421+274902895
2598+274746258+274737046+274790403+274745984+274570564+274347939+274120187
2588+273860475+273593584+273429564+273468275+273719646+274062830+274253119
2578+274104207+273738720+273523102+273669963+274012070+274234336+274208512
2568+274008943+273724004+273414849+273200649+273225414+273511839+273899989
2558+274161171+274190498+274087407+274027879+274088996+274201437+274177065
2548+273796435+273042081+272249238+271837229+271877290+272058573+272054402
2538+271804928+271461778+271174926+270987269+270872162+270770181+270590369
2528+270289434+269974809+269824085+269863171+269905454+269761874+269459726
2518+269184786+269049307+269022098+269052571+269123566+269194476+269228487
2508+269239493+269208251+269038881+268702278+268310607+267955580+267598535
2498+267217444+266932780+266862366+266950657+267065097+267174136+267317716
2488+267494008+267662318+267764880+267703268+267405700+266943427+266507287
2478+266281568+266347727+266610293+266799916+266667000+266216008+265691234
2468+265339693+265230039+265266664+265311801+265291429+265215785+265103071
2458+264911090+264609334+264300349+264163230+264238737+264332890+264179962
2448+263713741+263159400+262807244+262722149+262759151+262787179+262735565
2438+262510565+262089618+261657613+261453344+261495250+261598735+261638249
2428+261651460+261679848+261657135+261520528+261328307+261206569+261218276
2418+261291972+261294262+261212226+261177669+261239384+261271856+261214397
2408+261191017+261277547+261364147+261354131+261316002+261372504+261589609
2398+262017682+262720594+263762877+265318210+267821571+271903439+278175770
2388+287193159+299536490+315718111+335949094+360033852+387409994+417200316
2378+448302188+479568917+510023662+539033686+566116755+590238121+609765680
2368+623930208+633553707+639470548+641717170+640582613+636757346+630136158
2358+619260792+602819629+581283694+556416074+531374778+511232086+500654339
2348+501589138+512795315+529441259+544677382+554554303+559436124+561079133
2338+561124390+560815422+560959634+561984024+563483333+564199814+563159735
2328+560390749+556303822+551026074+544498749+536957391+528929526+520534618
2318+511325094+501241921+491130446+481792023+472891193+463256517+452133847
2308+439788055+427015949+414522629+402763223+391975737+382121411+372886353
2298+363919039+355102536+346563108+338464350+330870694+323779714+317186965
2288+311104376+305573548+300670500+296467389+292959670+290017348+287420501
2278+284993485+282729533+280745836+279080472+277590597+276124615+274723270
2268+273519034+272501310+271536995+270572509+269664645+268855309+268134350
2258+267487548+266900546+266349145+265818646+265294539+264731927+264102386
2248+263486604+263031629+262769559+262567067+262318054+262069912+261865796
2238+261607571+261220481+260837203+260654160+260669217+260692050+260571697
2228+260294108+259887261+259385765+258912537+258644724+258628812+258725752
2218+258772409+258706661+258544589+258347839+258198961+258124685+258084572
2208+258083684+258199149+258439651+258684170+258813051+258821819+258772204
2198+258685468+258515107+258226443+257889036+257651235+257618352+257783876
2188+258043076+258237433+258256950+258145963+258050476+258049622+258097801
2178+258111901+258067123+258011407+257978558+257901923+257694782+257413501
2168+257221520+257194944+257278535+257408528+257561457+257684510+257680545
2158+257515961+257303471+257202173+257240047+257305060+257301129+257236543
2148+257162608+257105781+257090109+257181664+257435993+257785483+258065533
2138+258202089+258303232+258535309+258988984+259675557+260559443+261558572
2128+262564554+263533843+264574264+265864980+267433353+269093213+270664252
2118+272142540+273579895+274914004+276020498+276850428+277406444+277613601
2108+277320904+276466876+275198446+273798401+272501310+271368787+270323513
2098+269279759+268213549+267154294+266190115+265432018+264885368+264413234
2088+263900868+263392212+263014539+262826796+262756860+262659870+262456318
2078+262216038+262076885+262100966+262232497+262360576+262432801+262543208
2068+262836145+263265227+263578689+263639413+263591866+263603403+263658606
2058+263704717+263770756+263866567+263968155+264112453+264342256+264613145
2048+264869354+265126964+265431779+265788789+266106558+266224587+266104918
2038+265931548+265895094+265988922+266107994+266220178+266377687+266638202
2028+266989248+267345420+267644595+267907640+268210472+268672283+269372956
2018+270141359+270591702+270562852+270337408+270262755+270363898+270444994
2008+270402882+270326880+270356481+270507683+270665363+270738700+270750151
1998+270787716+271018220+271679925+272776011+273820328+274239805+273994621
1988+273459302+272910721+272480921+272318626+272469453+272764492+272990022
1978+273072195+273086773+273166485+273377368+273724671+274306066+275212905
1968+276146799+276502168+276102072+275461679+275100602+275053192+275186910
1958+275538656+276129657+276769144+277234288+277513706+277791243+278227948
1948+278878578+279895157+281473375+283201239+283937837+283122382+281645155
1938+280657391+280373136+280423417+280579388+280809516+281084131+281349654
1928+281674705+282417044+283858193+285535503+286659105+287292252+287963681
1918+288266086+287365640+285747806+284839121+285257367+286386336+287203072
1908+287195928+286648885+286136912+285886480+285787422+285821860+286193568
1898+287060090+288184085+288996582+289391312+290095112+291466479+292487348
1888+292067836+290743161+289763003+289498710+289599307+289755825+289829760
1878+289827162+289946661+290456890+291772165+294549492+298884715+303077434
1868+304337164+302041184+298587061+296331107+295735595+296016362+296346728
1858+296446128+296484993+296667215+297013167+297614867+298784836+300796767
1848+303842146+307915640+311752734+312676732+309947601+306379585+304559003
1838+304547860+305056278+305488812+306766624+309966299+314206360+316808779
1828+316749064+315747439+314843472+313335856+311201999+309696537+309458257
1818+309873803+310271985+310927350+312560753+315055705+317101716+317524474
1808+316680119+315976524+316627924+319041968+322489049+325247747+326029002
1798+325510843+325769837+328362275+332786336+335901787+334695244+330693052
1788+327832665+327780982+329547626+331673382+333650243+335213847+335926945
1778+336315761+338129028+342773868+349512607+354760104+355172710+351809306
1768+347667141+344567311+343804787+345915469+349223602+351079870+351398511
1758+351828652+352550295+353404255+355909837+361336070+367911147+371769570
1748+371596885+369706196+368544909+369029741+370947878+373225674+374632966
1738+375878476+379511472+386038866+390826277+389241480+384154295+379629843
1728+376541600+375027730+375195117+376541395+379136841+384475261+393491932
1718+403417562+407809355+404233785+397367515+391837678+389501636+390863775
1708+395522151+401531385+406343886+410203916+415908523+423749176+429314117
1698+429874218+427133124+421729109+415153178+411238047+411647611+415145077
1688+420866912+429938958+441461587+447646379+443262994+435281923+430704695
1678+431284347+435795468+440998631+444440893+447478547+451559903+453885758
1668+451516458+447880762+447908791+451720556+455324942+455899296+455591080
1658+458332413+466612949+481012613+496744404+501777206+497306350+496110198
1648+500688931+504652804+502289691+497271382+495456474+498515970+506221741
1638+517945257+530708031+537611422+536089553+533154513+534781730+541518657
1628+550972648+561023998+571586705+582568650+592331062+600684986+610473035
1618+623665506+637220713+645521108+649044825+652298916+657197829+663081856
1608+668621810+673050588+676675688+680185458+683509144+686053557+687855818
1598+689666761+692045734+694855328+697632996+700301694+703208432+706517693
1588+710042982+713566493+716820107+719374022+721162884+723167226+727084989
1578+733706040+740815753+744352458+745212332+748537726+756490699+766423747
1568+774282652+780212551+787126402+796562243+809482355+828037925+851375370
1558+867278445+868480476+865353813+864404794+865170805+865740818+865097109
1548+864319750+865838372+870322730+875826247+880324003+881506893+875403283
1538+864448889+856317077+852784747+850252434+845631966+840841409+839281359
1528+841108983+844168171+847242468+850825114+854375218+855947847+855476687
1518+854045161+851066846+846580301+843169452+843367159+847861361+856013954
1508+864474320+864599766+852776475+839535808+832337360+831035997+833546433
1498+837127301+838260491+835745542+832926309+833386052+836944771+839773712
1488+838342937+833583075+828878588+826275657+825697782+826103313+827062518
1478+829078756+832632894+837390295+841376489+840997141+835374603+828952284
1468+826056552+827216404+829665176+830270054+829917300+832408936+839466692
1458+847432928+847919196+839369685+829787546+823955612+821973692+822397613
1448+823096012+822348118+820233027+817883586+816208891+816348352+819591506
1438+825208711+829018254+827670951+823883967+821630782+821307014+821149505
1428+820221884+819237794+818942670+819497301+821303527+824437505+826761651
1418+825320758+821094746+817499726+815610849+814476634+813267083+812228371
1408+812303776+813581554+814258487+812744104+810442722+810007727+812118921
1398+815335824+817681231+817527208+814572548+811038577+809848509+811492235
1388+813428693+812674920+809784179+808332348+810487842+815326663+820571904
1378+825036572+829334982+834128272+838264182+840035611+839884665+839649222
1368+840167963+841309834+843056379+845202303+846897233+847488507+847099794
1358+845942814+844125649+842289002+841457636+841970429+843106216+844013260
1348+844598108+845312914+846582899+848721097+851780490+855008878+856900763
1338+856552589+854782664+853199233+852650003+853090399+854352522+856383868
1328+858909549+861394965+863548749+865701236+868412933+871629220+874629411
1318+876980971+878905944+880590141+882101585+883952521+886690743+890055174
1308+893335995+896384245+899638201+903228230+906618296+909340863+911501006
1298+913094828+913686648+913428577+913313864+913776615+914095666+913621498
1288+912710216+912092349+911868459+911476122+910634638+909826516+909355083
1278+908660854+907363251+906110767+905537062+905430279+905575688+906362617
1268+907992876+909951006+911689279+913274828+915073397+917011086+918431333
1258+918958141+919344872+920677819+922713198+924144657+924781666+925875684
1248+927739130+928978829+928847162+928350229+928303674+928265117+927745282
1238+926880897+925784213+924395345+922989113+922056774+921728357+921684126
1228+921410400+920457074+918845546+917389682+917082799+917899399+918898733
1218+919716016+920879422+922426346+923590915+924111022+924416606+924561536
1208+924450036+924775924+926386152+929172092+932427005+935540268+937857715
1198+939127699+940373210+942920425+946369011+948652207+948531615+947432675
1188+948157189+951825699+956658094+959976105+960827638+960251541+959937138
1178+960889917+962614586+964163834+966205914+970088879+974721380+977150395
1168+976504773+974687130+973441278+973333469+974603932+976908048+979107773
1158+980481396+981406898+982204219+982621508+983091984+984928017+988540674
1148+992100350+993030842+991190845+989269221+989829937+992688958+995537382
1138+996948810+997861323+999772828+1002478442+1004231686+1003969376+1003196598
1128+1004962695+1010315471+1016306281+1018649364+1016427694+1012757954
1120+1010965947+1011526253+1012720901+1013618374+1015295052+1018177179
1111+1020896670+1023112460+1026186894+1030402652+1033413028+1032306842
1103+1027151499+1021144008+1017153302+1016112676+1018350822+1023623202
1094+1029475304+1032649411+1032804869+1032075569+1032070921+1033903535
1085+1038656833+1045380156+1050473562+1051139010+1048961982+1048410564
1077+1052088098+1058165319+1061407858+1058645708+1053106437+1050672636
1068+1053386043+1056826356+1055304590+1049597077+1045530487+1046730741
1060+1052098284+1057813795+1060917761+1061706400+1062127860+1063133415
1051+1064538486+1065530163+1064543681+1061018802+1057203311+1055901264
1043+1057801216+1062350724+1068399165+1073053131+1073741823+1071549618
1034+1069162783+1066977209+1064462055+1063314441+1065018464+1067074421
1025+1065936446+1062751128+1061877855+1064563848+1067664260+1068584566
1017+1068187922+1068025765+1067924724+1067186400+1065923799+1064490153
1008+1062783532+1060639933+1058565244+1057688075+1058516912+1059765840
1000+1059673003+1058063731+1056093639+1054741345+1053836283+1052233506
991+1049258884+1046164967+1045441342+1047969415+1051842810+1054322004
983+1053547312+1049204261+1043537698+1040209227+1040372478+1041256689
974+1039962162+1037292713+1036072907+1037151679+1038771479+1038743040
965+1036113583+1031540217+1026649781+1023083338+1021907558+1023328420
957+1026094125+1027349685+1024799871+1019465075+1014193924+1009714968
948+1004990655+1000295739+996863834+994636149+993049984+992831563+994534834
938+996399921+995775218+992263875+988045587+985359731+984434571+983845758
928+982820104+982418333+983793050+986377523+988538350+989118070+987798112
918+984834769+980694142+976074768+972302482+970886884+971929150+973835597
908+975387785+976572589+977022283+975964224+973942517+972407625+971697604
898+971027439+970163122+969758069+969990094+970156354+970092981+970891191
888+973165979+975342597+975035851+971833715+967708197+965051258+964763107
878+965831010+966623818+966599823+966161683+965228934+963295621+960767478
868+959042741+959089365+960389635+961370306+960810684+958880720+956840213
858+955836777+956134773+957343162+958993178+960732682+962194357+963112202
848+963488405+963180839+961895678+960078103+958674674+957935325+957184149
838+955680704+953257499+950372022+948286327+948549799+951395147+954939578
828+956731106+956250854+955050600+954400397+954716782+956393596+958768741
818+959918475+959394607+959525044+962076430+965490150+967565591+969011474
808+971287288+973258884+973310567+972282588+971573525+970536180+967764186
798+963244417+958528308+955739701+956128620+959189244+963444584+967539476
788+970244679+970935558+970487164+970999410+973181771+974876496+974047455
778+972001479+971564159+972827307+973131045+971394960+969661746+969618267
768+970366913+970423312+970053877+970668805+972891432+975981862+978593749
758+979377603+977423985+973312139+969245823+967155343+966712554+966479777
748+966102548+966105420+966967481+968828876+971069345+972738435+973943611
738+975341913+976419182+976300708+975403987+974742367+974451755+973641240
728+971343961+968309930+967659112+971552264+977284387+979232399+975497371
718+969820622+966476017+966375318+968093287+970867195+975159794+979967783
708+982306285+981221565+978763974+975529639+970484976+965398475+963873837
698+965750478+966438007+963065578+958285208+956144207+957398468+959812307
688+960792363+959185279+955782770+952248116+949419175+947031861+945274515
678+946308919+951688836+958214179+960374595+956390588+948118905+937279430
668+926906123+922945223+925384767+928057224+928408543+929240661+933289681
658+938528563+940383806+937030656+930527121+924512588+922491155+925565178
648+930468875+931897531+927655795+920000475+912539923+908573349+910800419
638+919776791+932436986+942301601+941848421+930416782+916667356+907592336
628+903334603+902484916+905017843+908523034+907408029+899731311+891947537
618+891804726+900345350+912149158+917851613+912851113+904123652+899497851
608+899178321+901442854+908201248+918033801+917843682+902516910+886388988
##END=
