##TITLE=<SNM>
##JCAMP-DX=4.24
##DATA TYPE=INFRARED SPECTRUM
##DATE=2/5/2025
##SAMPLING PROCEDURE=Instrument type and / or accessory
##ORIGIN=Admin
##XUNITS=1/CM
##YUNITS=ABSORBANCE
##RESOLUTION=4
##FIRSTX=4497.3318
##LASTX=599.83466
##DELTAX=-1.4281778
##MAXY=1.8638822
##MINY=0.39849603
##XFACTOR=1
##YFACTOR=1.7358756e-09
##NPOINTS=2730
##FIRSTY=0.42317346
##XYDATA=(X++(Y..Y))
4497+243780988+243996280+244455691+244877795+245086804+244785927+243578125
4487+241539060+239474484+238437611+238981405+240709360+242382324+242795054
4477+241872112+240677409+240348685+241361247+243503820+245900229+247252383
4467+246874247+245499500+244427518+244031321+243722718+243185534+242881274
4457+243242602+243967540+244249000+243519529+242102667+241054875+241007748
4447+241538425+242142189+242947596+243792834+243742874+242476115+241159191
4437+241045656+241972719+242855693+243007205+242542145+242009734+241878327
4427+242114479+242172920+241577672+240507047+239582302+239247671+239503928
4417+240020578+240330280+240198135+239944419+240096823+240733739+241431431
4407+241831233+241947533+241788089+241096131+239949432+239155751+239247173
4397+239444954+238651788+237238600+236620552+237274276+238345022+239064758
4387+239556480+240176004+240803821+240995678+240522292+239601359+238655428
4377+237974698+237705771+237860871+238071322+237760573+236881376+236056379
4367+235785787+235937573+236082355+235961953+235569464+235024863+234459763
4357+233954324+233619676+233729520+234593334+236158188+237809348+238784311
4347+238787316+237990441+236664057+235242062+234411194+234467918+234809296
4337+234634933+233871400+232982468+232453525+232756978+234030328+235557635
4327+236319589+236158583+235708048+235385401+235237220+235338875+235583680
4317+235447929+234599137+233532580+233203203+234076958+235664234+236913875
4307+236984507+235731294+233751633+232124663+231840937+233137208+235266527
4297+236946805+237280457+236416144+235243315+234598021+234809742+235512946
4287+235783229+235055234+233846866+232977678+232486763+231975057+231514530
4277+231557297+232186813+232844966+232809856+231939226+230877872+230402254
4267+230671283+231299787+232040555+233046077+234286293+235105092+234884133
4257+233955543+233322181+233594078+234505655+235301035+235556056+235638911
4247+236046988+236463856+236215960+235486661+235166898+235551987+235993646
4237+235842443+235085176+234010121+232853001+231954025+231752227+232293532
4227+233035021+233379455+233241557+232977867+232922928+233126100+233411646
4217+233567724+233578025+233708574+234180827+234675811+234476451+233307227
4207+231805930+230990428+231337454+232425746+233455459+234022568+234245707
4197+234345919+234474168+234737429+234974199+234802892+234184450+233498655
4187+232914069+232171653+231131484+230161225+229786455+230118476+230838453
4177+231673973+232628678+233748130+234924290+235932474+236516631+236547741
4167+236162188+235658345+235315251+235239383+235173594+234699761+233963028
4157+233693002+234099157+234427899+234000249+233063314+232304657+232066908
4147+232265736+232641193+232926018+233018882+233023999+233034059+232991361
4137+232872916+232889690+233310008+234073112+234740502+234943056+234766323
4127+234587222+234619293+234751095+234801467+234760366+234686936+234470133
4117+233901599+233042146+232313482+232099408+232289772+232266938+231490683
4107+230267567+229680062+230417619+231965700+233208234+233467357+232830321
4097+231894863+231262909+230985501+230641960+230065546+229599078+229564862
4087+229842150+230099282+230270074+230603348+231217979+231865350+232288879
4077+232522782+232575009+232207209+231427606+230848428+231078125+231898743
4067+232477458+232432390+232247692+232458744+232952938+233350388+233530915
4057+233467477+233118889+232734779+232641279+232691154+232478934+232042838
4047+231894228+232313052+232947427+233200885+232830459+232115546+231547150
4037+231402059+231595222+231906005+232272621+232742573+233166531+233265319
4027+233083779+232983979+233101411+233254314+233394597+233606473+233771033
4017+233733331+233529644+233123129+232357484+231398162+230737708+230676674
4007+231159915+231975538+232876899+233710119+234470356+235055389+235228911
3997+235090224+235159258+235627202+235968082+235701095+235087271+234687572
3987+234696963+235067458+235719070+236286797+236264822+235702022+235234765
3977+235287043+235693592+236085239+236266401+236299244+236456473+236974034
3967+237780935+238617794+239308138+239720559+239713555+239349223+238922500
3957+238640045+238529497+238685146+239364005+240703986+242250522+242998346
3947+242558661+241978178+242330149+242975186+242395492+240432913+238405661
3937+237588528+238713182+241844333+245664592+247715022+246738205+244354226
3927+243229451+244253498+246002725+246844134+247146814+248350839+250385457
3917+251247296+249367195+245547520+241848093+239641327+239356210+241296041
3907+245864227+252650716+259584939+264030628+265093545+263250064+258814899
3897+253113045+249101890+249021611+252113978+254640472+253892854+252365204
3887+253758391+257423944+259757654+260075082+260256158+259546739+256569247
3878+253884081+254566614+258029768+262158080+266354277+269683792+269707004
3868+266985750+265097150+265040271+264415888+261776219+258988730+258704746
3858+262524198+271137618+282574495+288143500+280953483+268761056+259986973
3848+256540644+257475707+261026696+265685376+271054402+277043983+281858004
3838+282463003+278766375+274065030+270318116+267073189+264114908+262445669
3828+262430132+263506784+266369076+272422266+279456272+281691538+278664720
3818+275279631+272470492+268087365+263167415+260830992+262512094+267501251
3808+273008243+276207689+278338519+282043801+285483417+284696672+281306192
3798+279328402+278458166+276582443+274148692+273111837+274129120+276749320
3788+280605118+285215006+289699066+294174301+300254411+308424335+316217858
3778+321404898+325690354+332398863+343013302+356657598+370497649+381384037
3768+388832748+394225913+397941581+400514070+403749983+407926178+410446955
3758+409861030+409211547+412806212+422138304+434066371+441885165+443682635
3748+445500055+452019986+461246733+466444795+466844443+468793785+476648633
3738+490924763+508491401+523182905+530685250+533071804+535281420+540215501
3728+548502376+559152320+569756320+577962985+582714667+584083956+583425579
3718+583249156+585998789+592524180+600351559+603412903+597924487+587995207
3708+579583620+575047470+574541275+576938165+579571121+580126143+579069527
3698+578241389+578668540+580515524+583735230+588071847+592036733+592928395
3688+590355734+587056435+585264872+586022207+589782033+595999421+603393056
3678+610234347+613080398+609928748+606036244+606461404+607490414+601556167
3668+590001858+580765016+576932190+576167369+575592226+575148730+576409857
3658+579488987+582450204+584048520+585582832+588938305+593989749+596925420
3648+593380887+584473749+574736240+567890555+565539024+566525318+568193132
3638+569413672+570925630+573054143+575926084+581034836+588535258+592532902
3628+586733394+576565335+570672327+571132854+576102061+582653067+587543951
3618+589342108+589628684+589802566+589541468+588750757+588203564+587558373
3608+585664553+583398728+583078090+585316858+588588000+591400676+594034799
3598+597638254+601932569+604689207+604311157+602454628+602424754+605430129
3588+608850980+608976516+606190143+603944644+604122784+605915516+607288238
3578+607061408+605850825+604932793+604840083+605651877+607630371+610406512
3568+612137162+611123673+608096255+604902988+602438489+600998810+600630856
3558+600746022+600786127+600823486+600666703+599743177+598943058+600541511
3548+604735081+608126265+607560049+604275309+602033657+602844420+605569949
3538+606905312+604161448+598375743+593402862+591619127+592291650+593643083
3528+594937517+596123927+596194592+593454505+588009903+582386338+578715582
3518+577215333+577592764+579453826+581329241+581634084+580644768+579707507
3508+579149120+578692096+578560860+578680146+578093878+576191543+573564115
3498+571277103+569864825+569036515+568224859+567206151+566172231+565759776
3488+566887367+569676968+572592483+573579326+571944957+568506422+564724827
3478+562159239+561524006+561724568+560805162+558364905+556138807+555752380
3468+556821803+557634936+557015807+555182867+553311230+552566427+553003777
3458+553299521+552274392+550460715+549238423+549180977+550011244+551268422
3448+552185528+551634832+549248449+545988157+543073226+541027397+539934865
3438+539767163+539887239+539266565+537977076+537285599+537870185+538870935
3428+538864960+537341602+535006759+532890059+531544978+530968702+530714746
3418+530060867+528769318+527596746+527170831+526864408+525986241+525244014
3408+525482758+525962136+525424420+523993050+522753624+522185211+521863199
3398+521260517+520425786+519906990+520110779+520920616+521864057+522286367
3388+521412595+518909982+515601653+513271034+513329235+515404662+517559888
3378+518345346+518226677+518430364+519103299+519288375+518364197+516937154
3368+516061802+515887851+515654429+514988258+514481239+514679226+515125880
3358+514908356+513901048+512957091+512776822+513021541+512831452+511831183
3348+510293197+508891529+508524193+509618957+511389507+512325772+511732293
3338+510530809+510243409+511290067+512541305+512508719+510842760+508579956
3328+506906236+505998505+505489254+505511882+506209197+506662685+505706710
3318+503558351+501428088+500061615+499710623+500706463+502888643+504882452
3308+505066120+503325821+501081971+499709867+499641056+500630818+502054050
3298+503120177+503473882+503523053+503804925+504217689+504112000+503181984
3288+502221992+502493048+504101218+505637864+505713337+504314588+502536381
3278+501536661+501856613+503172232+504478856+504841831+504090161+502751845
3268+501394712+500181966+499144166+498536849+498521466+498748605+498620769
3258+497796545+496452632+495409991+495656736+497262743+499143617+500216303
3248+500241094+499295043+497382956+495109336+493661966+493379957+493214933
3238+492331993+491349579+491062076+490913569+489902621+488197758+486681954
3228+485625578+484781164+484196235+484154824+484666307+485466049+486221599
3218+486498045+485829265+484255500+482704535+482133821+482230411+481815243
3208+480565619+479291272+478477487+477657555+476387501+474996305+474125280
3198+473993942+474241786+474319833+474025360+473638726+473455882+473296490
3188+472704590+471569342+470242391+469054368+467972170+466697961+464981939
3178+462996886+461352490+460387107+459601135+458310650+456655404+455317087
3168+454531493+454043290+453682306+453409533+453158290+452912678+452548603
3158+451671192+450171766+448705030+447974409+447859826+447735355+447273351
3148+446527691+445533602+444191577+442533962+440984576+440112384+440018026
3138+440219652+440243517+439981972+439406004+438445360+437310044+436409180
3128+435834723+435361491+434902029+434453726+433742539+432540403+431166823
3118+430092111+429289726+428496817+427805786+427528275+427743259+428205193
3108+428398510+427730485+426114589+424269906+423099566+422951952+423575339
3098+424403889+424794884+424396850+423453614+422539634+421992646+421746760
3088+421581118+421307247+420811009+420143225+419553728+419232850+418953587
3078+418188320+416800421+415426738+414807162+414882120+414943686+414515916
3068+413661854+412635557+411710280+411157249+411046306+411185096+411285051
3058+411043800+410299272+409291620+408432957+407721736+406810983+405702930
3048+404888389+404643807+404560369+404023305+403011704+402118497+401781686
3038+401798512+401677131+401174747+400366249+399480219+398808074+398495161
3028+398285740+397731405+396755515+395724411+394907123+394255511+393768820
3018+393550471+393379988+392786680+391682988+390439510+389368404+388610931
3008+388325797+388486906+388695640+388517569+387769299+386450520+384840805
2998+383544860+382952376+382804350+382591770+382104323+381431593+380793854
2988+380428818+380271486+379810135+378703524+377451908+376916287+377164680
2978+377322698+376726472+375717275+375023154+374869290+374960077+374864689
2968+374226984+373005653+371632691+370666655+370303577+370343648+370427636
2958+370206815+369575840+368836875+368343178+368003036+367464221+366651363
2948+365755066+364915803+364270062+363977237+363893936+363603994+362991218
2938+362415250+362230380+362405017+362553799+362207546+361247142+360109799
2928+359351949+359051604+358779827+358108540+357060611+356069098+355536600
2918+355468854+355509818+355265407+354636561+353882625+353291480+352858629
2908+352418257+351931978+351480790+351129180+350884358+350644068+350224951
2898+349586422+348912697+348378105+347995729+347744108+347617542+347482323
2888+347124670+346549698+346024858+345735672+345609106+345496653+345309654
2878+345022357+344746082+344645543+344627962+344383724+343838419+343255687
2868+342850442+342572863+342256551+341783354+341132875+340349683+339444802
2858+338400032+337352550+336639749+336472185+336643733+336746778+336606683
2848+336341258+336136645+336119099+336253905+336266438+335873795+335108906
2838+334225382+333423855+332846754+332586446+332511866+332303338+331772214
2828+331011136+330252942+329675532+329287800+328983231+328727730+328592717
2818+328572149+328514566+328274002+327816359+327198672+326550494+326022735
2808+325642076+325290672+324915197+324592842+324279586+323749767+322969083
2798+322271047+321958032+321937910+321901479+321673722+321284891+320852245
2788+320476084+320160699+319813793+319379465+318916363+318462566+317918257
2778+317184202+316326946+315520131+314920883+314608692+314479791+314239879
2768+313684547+312935144+312285901+311917947+311798626+311707289+311371783
2758+310734284+310045657+309585748+309354763+309096412+308577718+307837448
2748+307168840+306803907+306621474+306263718+305549132+304660458+303906968
2738+303433462+303199627+303084736+302930220+302618887+302178893+301709061
2728+301233014+300740004+300252282+299753470+299231892+298807727+298554561
2718+298272895+297754099+297126248+296631075+296264528+295914841+295633381
2708+295517082+295457644+295189095+294575597+293806347+293257677+293123832
2698+293229830+293236834+292956130+292434724+291831698+291282445+290833558
2688+290451216+290100705+289827211+289711667+289734742+289748202+289592244
2678+289187995+288557672+287840236+287222720+286783671+286482948+286316105
2668+286334750+286486880+286584363+286475171+286144815+285643840+285053897
2658+284547358+284295617+284227802+284053507+283626459+283116590+282751828
2648+282575405+282496705+282398690+282177663+281826860+281462786+281175042
2638+280917687+280613187+280284909+280033202+279929298+279956527+280043949
2628+280138582+280192971+280067470+279589294+278822808+278129905+277816066
2618+277842076+277965019+277976625+277765488+277385824+277095076+277091144
2608+277225265+277172059+276827729+276370653+276019523+275876269+275922058
2598+276063182+276226489+276409299+276582305+276621037+276440408+276115443
2588+275772555+275458475+275206957+275113200+275215987+275371619+275369611
2578+275170216+274920844+274716608+274486860+274196112+273995584+274032908
2568+274244218+274469846+274646870+274771410+274826229+274858059+274971783
2558+275153357+275264729+275280661+275331239+275451470+275486339+275287133
2548+274858059+274315999+273802919+273397091+273075423+272785259+272486819
2538+272117337+271667746+271286280+271137669+271196523+271298796+271310676
2528+271184110+270955375+270713402+270516738+270381398+270329241+270324416
2518+270216135+269923584+269596679+269417629+269356561+269292849+269243747
2508+269296987+269417544+269459366+269324800+269062053+268834159+268778808
2498+268904704+269146763+269421286+269569347+269421218+269002307+268515547
2488+268103778+267777989+267519999+267329549+267251913+267381192+267692301
2478+267913620+267775620+267358255+266986609+266802614+266651515+266403654
2468+266162849+266067684+266081384+266080835+265997602+265801195+265480213
2458+265101322+264793423+264607660+264442757+264176972+263841912+263582600
2448+263491143+263570856+263767092+263944047+263965783+263845861+263673764
2438+263444102+263129558+262832149+262683006+262640669+262489792+262065319
2428+261496991+261165468+261326217+261832635+262296596+262476659+262458786
2418+262474667+262597851+262676654+262561007+262308236+262121306+262139521
2408+262333525+262582142+262790172+262917837+262974029+263016710+263093453
2398+263223538+263526064+264271622+265753999+268295533+272407157+278736399
2388+287875448+300352340+316643704+336977762+361194263+388834156+419140243
2378+450919350+482767749+513625665+542855667+569784786+593590136+613762604
2368+630361559+643408770+652252316+656269325+655920393+652134128+644833134
2358+632755530+615123926+592408877+565728735+538396501+516554743+505435105
2348+506772048+518937933+536665371+552330464+561531526+565467328+566899900
2338+567224693+566829372+566459185+567198150+568961626+570110266+569252563
2328+566620466+563013783+558281913+551562381+542617850+532431936+522361668
2318+512918943+503725847+494487426+485297180+475914200+465568001+453843380
2308+441195096+428432813+416176931+404744415+394140276+384161551+374614338
2298+365390408+356461740+347924617+339902651+332367376+325205516+318423216
2288+312150236+306497381+301483193+297068047+293241745+290046109+287459422
2278+285306737+283368073+281544920+279863303+278366487+277060894+275905387
2268+274790518+273609190+272421133+271429242+270690379+270000808+269195744
2258+268393668+267787157+267345739+266885796+266322138+265709670+265117375
2248+264580431+264120522+263721544+263338687+262991953+262745843+262536886
2238+262189945+261701863+261320980+261218656+261255878+261205265+261058526
2228+260967121+260970864+260940664+260773993+260518578+260276279+260080696
2218+259908977+259745585+259600751+259504316+259478821+259492109+259472537
2208+259407967+259369338+259388481+259401889+259378231+259388086+259463438
2198+259505655+259427487+259285435+259194133+259186837+259204074+259173325
2188+259098282+259069113+259126455+259140207+258955663+258656795+258520666
2178+258673534+258942186+259095226+259093149+259036905+258996833+258974051
2168+258952934+258925481+258890286+258834282+258722172+258554110+258421243
2158+258403199+258424179+258335315+258129912+257938809+257831283+257757923
2148+257671428+257599543+257619648+257803470+258136813+258503635+258821801
2138+259149135+259581471+260112715+260682245+261305958+262069422+263004949
2128+264055608+265175919+266379549+267676661+269080784+270672009+272493154
2118+274388605+276101382+277504321+278615395+279439362+279899167+279914396
2108+279507452+278793346+277853888+276700424+275360065+273891646+272351205
2098+270847694+269534220+268461620+267564499+266807765+266198628+265693634
2088+265238430+264838267+264493816+264154292+263796347+263481838+263299183
2078+263270734+263329382+263391995+263449252+263545069+263695671+263911101
2068+264238023+264642031+264933209+264986019+264920710+264886940+264847315
2058+264738587+264644899+264683184+264886287+265229742+265628514+265951436
2048+266145903+266293827+266512982+266835732+267161229+267356830+267441453
2038+267554387+267731068+267882459+267976337+268070574+268215493+268427816
2028+268683729+268903451+269016334+269054568+269191864+269681217+270593172
2018+271548459+271949292+271626868+271039105+270734897+270853514+271172298
2008+271428520+271515118+271471167+271392844+271384483+271536596+271845543
1998+272211385+272676737+273523692+274807515+275933852+276168957+275512624
1988+274608121+273992768+273794043+273874357+274023637+274147594+274301835
1978+274504732+274683301+274822297+274974530+275214322+275725736+276653864
1968+277671559+278083997+277663009+276975395+276649383+276772944+277133482
1958+277590661+278029710+278285400+278296680+278213310+278325506+278888563
1948+279977799+281586931+283666032+285628491+286244427+285001292+283053427
1938+281839307+281613370+281837453+282152992+282515075+282857586+283038542
1928+283162326+283794109+285327133+287136449+288275560+288956255+289885378
1918+290476626+289565014+287618660+286317170+286468853+287503923+288369128
1908+288477186+288027510+287576305+287412484+287465294+287652876+288098209
1898+288965114+290054316+290804921+291143140+291851236+293276047+294327341
1888+293865303+292423496+291289621+290918336+291045692+291390572+291768415
1878+292054339+292264103+292608400+293716315+296567826+301326582+305925911
1868+307087186+304202334+300123862+297482356+296731510+297051462+297599479
1858+297969048+298154364+298334015+298656095+299302969+300550018+302620123
1848+305769781+310105815+314290800+315319089+312255376+308142154+305883093
1838+305695510+306306708+307051648+308754416+312386920+316916340+319552214
1828+319384101+318308977+317309635+315534415+313022909+311241372+310933472
1818+311422602+311906684+312598093+314255193+316789430+318859261+319296404
1808+318520905+317943048+318727819+321298145+324973742+327973416+328850416
1798+328245227+328420689+331157034+335954247+339343096+337964846+333468012
1788+330124797+329711586+331186770+333115887+335111653+336902255+337857097
1778+338389560+340361324+345299627+352388453+357827938+358202280+354703209
1768+350362711+346951508+345887304+347937150+351454282+353550930+353987284
1758+354470919+355174002+355899920+358343851+364032863+371182122+375478805
1748+375143505+372558002+370646637+370808570+373003593+375880204+377716818
1738+379143723+383168287+390545989+395971019+393907953+387601734+381892773
1728+378046693+376410229+376981355+378810724+381730771+387529627+397438270
1718+408321808+412871486+408541461+400723903+394506377+391862399+393253147
1708+398095857+404255079+409210826+413448965+419879448+428497401+434307828
1698+434480165+431059348+424769028+417259300+412724352+412967492+416653802
1688+422830433+432717925+445457099+452583730+448041057+439256913+433960579
1678+434173021+438702578+444218669+448117250+451701786+456336791+458807677
1668+455837944+451274428+450610661+454068425+457437977+457749584+457320922
1658+460347723+469496421+485469208+503079626+508682108+503363935+501670678
1648+506572516+510801281+507680809+501370505+498566036+501126026+508858497
1638+521229030+534917415+541986771+539686506+536232107+538167955+545614091
1628+555535301+565774060+576703026+588139972+597782882+605476140+614826431
1618+628030081+641401982+648914972+651875159+655629697+661904222+669060932
1608+674966266+679024068+682114735+685051436+687680272+689670715+691529236
1598+694160338+697710983+701300360+704008789+705932893+707916057+710504444
1588+713534129+716400027+718556180+720150650+722178727+725872900+732144816
1578+740857401+749054108+752359450+752501811+755551549+763454400+772547438
1568+778567596+782942533+789524992+799729448+814313855+835640456+861968094
1558+877624432+875574379+869868405+867847470+868652465+870086651+870802507
1548+871289199+873524739+878552010+885786184+894025812+898148647+889222487
1538+872039667+860145078+856344735+855404864+851957573+847079806+845481490
1528+848402190+853089868+857187638+861216871+864594183+864183170+860399927
1518+856855737+853830928+850092528+847170181+847462113+851471912+858542505
1508+866345642+867411391+856923037+844044627+837133357+836835313+840578245
1498+844362587+844219471+840253211+837220436+838682571+843273763+845693280
1488+842463068+836202414+831143897+828796418+828258427+828080219+828166336
1478+829955908+834605541+841368612+846898438+846531926+839950909+832884299
1468+830094149+831816764+834629783+834807442+833555930+835656114+843390508
1458+852663953+853883532+845445162+836307417+831053042+828855272+827829628
1448+826368866+823773337+820829220+818710562+817776323+818422613+821751853
1438+827439491+831222254+829059508+824081408+821291875+820981676+820564070
1428+819300333+819005928+820490589+822615358+824747957+827258811+828837691
1418+826682087+821297369+816165509+813123668+811851073+811348380+811054868
1408+811353325+812488092+813185749+812252746+811046146+811640450+813924199
1398+816426401+818348101+818906008+817020017+813874617+812552714+813967258
1388+815389425+813726625+810178383+808820564+811367197+816309724+821801024
1378+827403918+832884299+836883728+838225821+838003043+838335425+839617978
1368+840978133+842600621+845486709+849047175+850998199+850291751+848360711
1358+846873372+846182719+845760856+845182759+844796194+845301908+846650251
1348+847925456+848467018+848655322+849611949+852335692+856662695+860761426
1338+862462340+861576585+859823753+858569287+857853088+857371958+857440426
1328+858707459+861266728+864352176+867083611+869491317+872347463+875841246
1318+879167877+881823907+884392310+887409771+890382663+892689418+894716465
1308+897255406+900424019+903899534+907591373+911364521+914512737+916270995
1298+916633799+916297777+916186251+917006080+918761246+920564485+921132624
1288+919754064+916922297+913896939+911677193+910603203+910520588+910702231
1278+910014118+908022027+905675166+904242217+904095324+905011021+906936911
1268+909644310+912123574+913545466+914591026+916400719+918477417+919405682
1258+919527372+920766661+923710023+926652835+927856345+927604449+927345205
1248+927758622+928635656+929881537+931445722+932708840+933091079+932849210
1238+932295836+930914117+928282535+925264799+923334239+922939227+923196891
1228+923270167+923388560+924000788+924627712+924449572+923612849+923086052
1218+923330874+923787418+923838305+923691343+923824090+924336397+925447265
1208+927557819+930160765+931981241+932839046+933952112+935959930+938156944
1198+940019860+942040726+944398644+946058628+946422600+946951457+949329496
1188+952715255+954800606+955192734+955612880+957198285+959712298+962790192
1178+966070194+968477350+969049609+968480372+968664349+970451037+972767269
1168+974355421+975504129+977343352+980285822+983704544+986052984+985244899
1158+980755345+975590383+974195754+978109066+984864034+991128739+995650020
1148+998684650+1000818896+1002950121+1005308519+1006607691+1005693574
1140+1003626902+1002818061+1004616561+1008169404+1011033928+1011414931
1131+1010515784+1011723963+1016042176+1019469826+1017565088+1012059160
1123+1009104399+1011954501+1018389998+1024105312+1026463092+1025539909
1114+1023874568+1024897465+1030007007+1037089618+1042540812+1044564906
1105+1043418190+1039515591+1033897107+1029763284+1030288913+1034796529
1097+1038746375+1038887225+1037280188+1037996731+1042273534+1047936243
1088+1051538600+1051267407+1048797757+1047382732+1048460362+1051080957
1080+1053883813+1055884557+1055588367+1052086411+1047643143+1046491963
1071+1050773092+1058443963+1064501823+1065346305+1062466055+1060004096
1063+1059491583+1059429296+1058769890+1058230662+1058683292+1059984250
1054+1061237204+1061740515+1062055866+1063705549+1067430488+1071532447
1045+1073659414+1073741823+1072350490+1069698992+1067366690+1067092888
1037+1067999314+1067671877+1066039499+1065406944+1066643555+1067637678
1028+1066023430+1062234212+1058897005+1058204360+1060291359+1063612290
1020+1066111126+1066550021+1065861153+1066215304+1067802014+1068115167
1011+1065847075+1062675235+1060212865+1059137638+1060695642+1064822804
1003+1068099441+1067683620+1065316981+1063773605+1062456372+1058826958
994+1052724117+1047733999+1047261935+1050650921+1053920828+1053968968
985+1051406403+1048929817+1047963370+1048068578+1048559940+1049096557
977+1049065860+1047884738+1045616097+1042606602+1039547868+1037207256
968+1035950456+1035721360+1035900667+1035207405+1032666334+1028702135
960+1024429865+1020446781+1017262991+1015748389+1015851949+1016146972
951+1015879694+1015771326+1015960179+1015243980+1012853717+1009192576
943+1004569520+998885384+993094391+989147498+987699990+987541765+987667782
933+988182424+988751455+988135314+986055937+983943049+982967948+982490596
923+981398407+980197850+980375784+981858865+982437992+980354084+976746027
913+974627988+975716606+978580650+979888887+978115727+974898219+972598881
903+972423900+974255913+976657163+977686447+976729889+975028631+973672528
893+972305025+970605759+968969948+967968408+967755794+967690966+966873540
883+965391902+964642807+965569424+967076678+967206059+965466207+963082400
873+961509356+961452082+962758602+964545222+965507205+964480050+961497887
863+958453575+957560402+959071228+961773819+964877260+967649074+968640107
853+967340042+965070577+962757160+960202355+958089809+957816350+959273541
843+961057894+962179064+961712631+958565239+953857851+951395412+953405015
833+957603873+959885288+958600606+955812378+954852455+957315924+962350748
823+967360301+970044419+970132734+968909858+968136865+968939250+970833070
813+972263958+972181275+970440667+967412493+964273136+962949653+964712443
803+968914253+973235419+974878167+972760745+968854370+966098213+965852360
793+967624352+970191999+972592494+974466535+975799770+976182901+974766022
783+971305203+966992690+964221081+965092964+969253639+973173887+973134812
773+969487886+965921171+964978485+966312612+968471925+970523076+971916949
763+971905618+970418005+969162578+969949100+972503562+974572637+974483841
753+972982218+971524959+970405300+968951131+967000175+965654991+965967320
743+967556159+969388103+970831078+971794779+973397833+977027865+981878300
733+985133853+984973912+981427250+974551004+965361205+957933508+957241962
723+964275745+974373002+980673554+979491814+972739937+965511875+962070559
713+963536609+967878720+971639026+972318005+970590788+969998408+972669134
703+976322447+976792313+973388287+969723712+969278568+972161566+974964627
693+973364389+966422010+957885505+952057291+949954978+950133873+951093522
683+951680134+950594881+947022054+941490511+936076882+933718346+935761806
673+940404777+944816936+948109711+951431260+954936786+956589148+954879100
663+949208287+940499891+932360664+928188314+927793508+927940745+926244500
653+923288228+920496223+918186583+916752124+918063932+921806589+923749304
643+920780258+914502917+908920693+906129512+905609788+905882973+905926444
633+905754072+905591521+904984513+903252558+901598204+902818814+906042503
623+905000857+895589035+882330583+873589361+873379494+878646161+882910809
613+883382324+883482519+886661089+891246786+893373067+891379945+886415580
603+881440501+879377607+881113614
##END=
