##TITLE=<SNM>
##JCAMP-DX=4.24
##DATA TYPE=INFRARED SPECTRUM
##DATE=2/5/2025
##SAMPLING PROCEDURE=Instrument type and / or accessory
##ORIGIN=Admin
##XUNITS=1/CM
##YUNITS=ABSORBANCE
##RESOLUTION=4
##FIRSTX=4497.3318
##LASTX=599.83466
##DELTAX=-1.4281778
##MAXY=1.7267945
##MINY=0.21033765
##XFACTOR=1
##YFACTOR=1.6082027e-09
##NPOINTS=2730
##FIRSTY=0.23327722
##XYDATA=(X++(Y..Y))
4497+145054612+145311653+145779785+145855402+144855686+142836667+140776591
4487+139664092+139780803+141055526+143311998+145725413+146931440+146359439
4477+144897503+143885852+143865143+144421661+144901932+145002066+144781505
4467+144413804+144092265+144067266+144508805+145311180+146101426+146431712
4457+146176006+145756361+145548345+145175354+144150945+143020248+142805858
4447+143469858+143970078+143651346+142712432+141607800+140745096+140439531
4437+140620296+140873417+140951805+140891041+140655302+140143621+139510411
4427+139026425+138627823+137996753+137102852+136275033+135708379+135332385
4417+135256999+135854425+137150728+138546257+139388743+139494594+139007430
4407+138165223+137400643+137243719+137795882+138547656+138881528+138570996
4397+137820686+137019479+136396155+135880249+135394910+135073973+134948534
4387+134766120+134418414+134103343+133866659+133488608+132931164+132468748
4377+132348776+132584181+132983070+133206430+132959999+132310620+131734106
4367+131680310+132088761+132504060+132604751+132369160+131971596+131869340
4357+132578186+133969101+135200108+135629111+135402165+135063781+134926380
4347+134805518+134282644+133340662+132503745+132138249+132069600+132109896
4337+132322341+132532589+132264652+131470098+130790513+130829670+131556547
4327+132517996+133253694+133451110+133070891+132454868+132101891+132238412
4317+132702764+133177650+133335733+132963603+132278023+131918522+132289049
4307+133071734+133630605+133692556+133513885+133606635+134227679+134892930
4297+134707004+133545055+132491255+132665589+133964079+135330365+136028343
4287+136209423+136295131+136328172+136158174+135830344+135437514+134940973
4277+134424131+134154601+134191849+134306382+134421963+134751962+135394243
4267+136100986+136574659+136806571+136907030+136769147+136284466+135783366
4257+135813146+136447608+137159688+137427124+137175680+136643930+136072615
4247+135643473+135533609+135761407+136057752+136227602+136530832+137254902
4237+138079051+138368031+137971532+137327425+136934179+136967220+137221379
4227+137371437+137388616+137430784+137354323+136942360+136520696+136590828
4217+136955110+137037362+136896606+137107262+137783762+138389824+138437987
4207+138005815+137601829+137648668+138093923+138542634+138721676+138687050
4197+138612896+138532469+138374026+138164769+138029999+138006056+138054877
4187+138262457+138788102+139574094+140253670+140448797+140181898+139913989
4177+140062416+140600625+141271714+141944470+142538283+142867457+142827957
4167+142615790+142619673+143067624+143719746+144010847+143650577+142905029
4157+142140301+141404612+140685490+140235732+140312230+140766593+141145366
4147+141207437+141189462+141431779+141831475+141934500+141616501+141272826
4137+141189156+141203740+141200785+141425312+142030354+142733298+143153730
4127+143173318+142831617+142175316+141345163+140607862+140222639+140315741
4117+140787737+141332145+141696677+141948139+142310596+142784714+143150562
4107+143275982+143193944+143004423+142855791+142808999+142685571+142350207
4097+142058791+142182099+142685543+143156306+143214625+142752488+141991901
4087+141443306+141606003+142537060+143750054+144620532+144846282+144503394
4077+143925315+143597373+143812533+144314188+144554467+144377455+144150120
4067+144203926+144429926+144478349+144210301+143808280+143450827+143150886
4057+143018201+143257849+143721173+143940205+143782104+143611040+143721275
4047+144015952+144239460+144264366+144214860+144349537+144678118+144820162
4037+144455704+143762285+143247555+143318809+144040266+145058800+145795879
4027+146000392+146046026+146402868+146970180+147293165+147301198+147389139
4017+147761973+148058940+147782784+146909415+145914138+145311180+145305806
4007+145775004+146438439+147112659+147813416+148512867+148925980+148798576
3997+148324430+148007255+148103230+148394164+148581452+148711015+149041903
3987+149610457+150141958+150351808+150178418+149791861+149499528+149616591
3977+150334666+151545511+152639737+152741021+151558260+149863041+148775180
3967+148754341+149525852+150676923+151944474+153112335+153951050+154266168
3957+154019320+153517711+153365771+154038991+155493923+157086793+157900472
3947+157636232+157141276+157328202+157791841+157405645+156155199+155168186
3937+155203239+156295371+158327789+160846064+162577105+162392513+160926787
3927+160016226+160511590+161444871+161607354+161399543+162116969+163889799
3917+165114542+164010605+160653689+156972325+154829052+154781454+156769628
3907+161155558+167982135+175440338+180530927+181803981+179695807+174936616
3897+169134587+165191410+165207329+168363123+170933194+170225515+168575345
3887+169357502+171844737+173242101+173892592+175494098+176022578+172996633
3878+169356390+169407982+173193067+178091299+182573629+185433551+184855314
3868+182242194+181345087+182428973+182039572+178513389+174368609+172724666
3858+175296979+182970758+194269066+200906048+195034712+183096735+173725457
3848+169724666+170847764+175399439+181224132+187034760+192377988+196022308
3838+196114928+193107478+189720671+187290216+185120684+182803809+181147635
3828+180644636+181118855+183516621+189404562+196956515+200515572+198923610
3818+196578455+194203280+189229236+182823378+178891635+179419114+183859230
3808+189397557+192897869+195162152+198902280+202673652+202481110+199417955
3798+197138624+195316501+192193137+188765801+187134052+187641795+189471720
3788+192208777+195668005+199236272+202878072+207755790+213984524+219012347
3778+220804560+221209027+223555590+229615077+239171244+249989161+259053299
3768+265699862+271467868+277295415+283914069+292911439+304841354+317624957
3758+328978730+340059534+354408878+374457013+398573467+419597653+432405180
3748+441784465+453319475+465372476+472026303+474065837+477916931+486436949
3738+498439174+511023435+520556122+524168457+523037557+521601370+522870181
3728+526689216+530861089+532862967+531869904+529143891+526530290+525416031
3718+526537517+530369339+537679698+548190957+557779498+560767212+557943427
3708+555109784+555671731+559643539+565267314+570256795+573365223+574554534
3698+574096882+573460697+575640218+582902914+594587844+606312616+611074160
3688+605840583+596208345+588885273+586599122+589161465+594725606+601748246
3678+609685673+615557584+614720630+610198623+607953501+606004216+598492382
3668+586711793+576908288+571984260+571631273+574657458+579991661+586486785
3658+592015975+594659227+596631232+603077618+615772919+629598342+633895414
3648+624938944+611905147+603433681+601729085+604751675+608336620+609245625
3638+607943161+607211354+608758248+612838947+619857176+629354469+636517095
3628+635492603+629423183+625299862+626348890+633358521+645100046+656872777
3618+663883594+667061960+669683344+672306878+674347190+676461258+678711717
3608+679057217+676166904+671965529+669500772+669859615+672114151+675268500
3598+678958556+682061387+682688936+680840387+679246608+680372727+683857381
3588+687120398+688578823+689107562+689649347+690239092+690947586+691587069
3578+691073600+688714621+685812893+684990912+688060239+694652097+702058745
3568+706156122+704741061+700385430+697514242+697893173+699254567+697887465
3558+693600103+690101440+689958822+691849401+693111763+693260533+693835823
3548+695637895+697210474+696329044+692864479+688899639+686096869+684896624
3538+685955733+689710501+694300073+696542749+695568736+693715147+693361493
3528+694241366+694862466+694645722+693447182+691664679+690724616+691010593
3518+690626029+688334430+686208725+686891720+690007523+693390327+695926467
3508+697358429+696995509+694659287+691692550+689804048+689581077+690209886
3498+690837435+691530956+692342930+692510899+691543039+690462507+691021490
3488+693914397+698085974+701556172+702865234+702046663+700256451+698327698
3478+696119342+693171805+689640600+686437255+684207847+682330982+679721310
3468+676901787+676038148+678082463+681134666+682768843+683033843+683858863
3458+686304273+689318450+690823055+689675365+686843019+685096838+686884604
3448+691299536+693981407+692090532+687690351+684038915+681894011+681047272
3438+682036925+684591152+686735907+686625089+684260328+681275431+679389745
3428+678845884+678752486+678791699+679403088+680502522+681270687+681093452
3418+679994389+678508834+677511324+677840442+679802329+682951045+686346599
3408+688934849+689459289+687031966+682967426+680489698+681082630+682717548
3398+683019092+682274869+681722113+681416196+681449553+682666328+684444309
3388+684858153+684337790+685117148+686532877+685139090+680228923+675161610
3378+672980904+674124887+677388794+680692877+681691203+679794324+677284202
3368+677248474+680762629+686006287+689636746+689397616+686226960+683579557
3358+683824246+685838541+687085707+686892313+685713120+683262521+679952138
3348+677903227+678660941+681393069+683848411+684333565+683101298+681827446
3338+681310344+680728976+679782093+679871415+682009499+684802633+685577988
3328+683544199+680886271+680152277+681469493+683036363+683751381+684060411
3318+684459949+684563429+684114449+684258994+686413683+689959564+692632021
3308+693223174+692234484+690344721+688414338+687912802+689058639+689869649
3298+688722627+686376694+684557054+684027944+684412212+684939395+685346716
3288+685875900+686249716+685890725+685351015+686091754+688551544+691392415
3278+692932601+692826823+692144570+691716048+690951144+688921358+686178926
3268+684509613+684930722+686700105+688468598+689791521+690763458+690987540
3258+690017159+688623002+688420045+689738150+690949884+690389567+688166609
3248+685803627+684822943+685766194+687946900+689848746+690068010+688450882
3238+686368762+685419359+685844174+686733758+687486653+688208564+688568074
3228+687714442+685709339+683698233+682682042+683127242+685029976+687405115
3218+688559624+687834896+686366242+685355463+684546899+683167788+681423831
3208+680153019+679554082+679065149+678334491+677628220+677150183+676608916
3198+675803466+675049384+674590397+674086861+673177115+672364696+672845180
3188+675173471+678394014+680702365+680801323+678663016+675385248+672511465
3178+671020647+670740304+671034287+671519514+671725139+671125980+669987556
3168+669136741+668580130+667380997+665011048+662035194+659617729+658717398
3158+659375931+660572988+661092536+660602935+659627366+658498282+656947570
3148+655031789+653803896+654246353+655831607+656788052+655772602+653205626
3138+650990526+650796613+652489794+654366140+654977159+654217369+652599203
3128+650572530+648934350+648749332+650010212+651010688+650051871+647495791
3118+644992934+643330737+642166963+641149067+640404918+640063050+639819251
3108+639276946+638532427+637947204+637415055+636591962+635855448+636120744
3098+637456565+638534206+637758109+634892703+631543403+629739404+629958594
3088+630856183+631062401+630833278+631428953+633203895+635009302+635376003
3078+633823735+631223698+629201176+628783329+629353431+629394200+628292839
3068+626692611+625414238+624702186+624086201+622859938+621103379+619836087
3058+619678237+620015064+619945349+619396373+618806703+618189309+617040730
3048+615286395+613978223+614414527+616509693+618551747+618812447+617145729
3038+614832560+613246194+612906735+613360162+613626793+613119846+612263805
3028+611757044+611375963+610246323+608177880+606014964+604762386+604673880
3018+604933283+604327490+602561925+600576540+599278190+598530817+597684300
3008+596481461+595123365+593941578+593209401+592868311+592428115+591552652
2998+590651579+590448808+591008458+591607802+591604763+591041184+590351851
2988+589815032+589375281+588857438+588214286+587492375+586621619+585452359
2978+584076399+582866074+581971709+580988764+579481861+577684347+576276180
2968+575627765+575628617+576004879+576395189+576433734+576142272+575867006
2958+575577618+574703416+573003934+571159091+569975154+569326591+568528516
2948+567537528+566934144+566851271+566804794+566549950+566319715+566153303
2938+565643577+564464087+562800186+561193621+560152746+559821812+559683753
2928+558796726+556852147+554792303+553796757+553852425+553878332+553196264
2918+552215172+551420173+550426961+548691788+546665189+545390633+545185490
2908+545424434+545418801+544933388+544083536+543230867+542757055+542650981
2898+542531082+542065202+541059426+539378920+537238872+535298259+534032932
2888+533301347+532885872+532985386+533549113+533602631+532226412+529999636
2878+528398186+527918851+527787501+527373842+526858223+526452384+525949255
2868+525153367+524106303+522977812+522122845+521848691+521874264+521528986
2858+520644258+519704899+519076386+518582783+517854497+516755767+515417537
2848+514104028+513168302+512863904+512911382+512505246+511213382+509639395
2838+508721496+508615310+508610826+507990912+506759201+505460962+504401185
2828+503420798+502456829+501654973+500804343+499482865+497919219+496901435
2818+496719456+496813522+496493002+495591298+494409289+493287617+492336213
2808+491521496+490872822+490452269+490132231+489570024+488500463+486980032
2798+485288926+483673466+482265409+481136029+480298963+479724377+479363792
2788+479084301+478645291+477895991+476925276+475876915+474778408+473690686
2778+472785092+472079451+471364693+470568582+469837739+469114346+468104048
2768+466793134+465530401+464549939+463820282+463266711+462774960+462148152
2758+461314942+460433734+459688362+459119669+458661943+458222747+457682000
2748+456850123+455568414+453973116+452527404+451626516+451202702+450770030
2738+449896717+448683240+447647851+447046914+446562613+445810125+444835037
2728+443941599+443295926+442757551+441937497+440567430+438934662+437724706
2718+437343885+437542135+437702580+437414008+436744319+435951692+435064072
2708+433976128+432825844+431908019+431298520+430835456+430357011+429799918
2698+429164735+428438784+427538971+426442132+425321794+424343779+423452861
2688+422583365+421846926+421263370+420601242+419768068+419066875+418736719
2678+418475537+417800436+416739956+415765794+415154924+414762576+414295398
2668+413574673+412712405+412068845+411768487+411413239+410614497+409539265
2658+408609432+407950231+407355409+406604514+405764521+405187563+405063624
2648+405078042+404731356+403853558+402686336+401661955+401100897+400932780
2638+400766182+400276544+399427433+398441709+397691296+397404578+397400130
2628+397309845+397012934+396607244+396073315+395270237+394242520+393283962
2618+392622315+392190755+391760937+391171970+390417333+389637752+388992116
2608+388477683+388030149+387738353+387646955+387486177+386992351+386308577
2598+385686958+385055963+384242432+383385019+382797869+382522529+382271576
2588+381844241+381364461+380991201+380667383+380312468+379946435+379479406
2578+378738444+377819766+377073060+376666851+376447401+376230658+375956763
2568+375523572+374752701+373689959+372726732+372200031+372048926+372063936
2558+372219711+372502761+372657572+372410696+371843264+371324865+371078582
2548+370939893+370612108+370063800+369527277+369163135+368895615+368572130
2538+368160806+367745998+367384597+367074455+366859231+366771725+366641190
2528+366216968+365547909+364983070+364759507+364763139+364671408+364245630
2518+363561189+362954803+362664749+362597332+362521612+362373324+362279851
2508+362345045+362450563+362328626+361918673+361509573+361305282+361044990
2498+360401726+359558174+358973322+358764732+358702800+358625005+358527159
2488+358412338+358270573+358084628+357802950+357410750+356982785+356608895
2478+356355014+356278145+356335852+356306313+355964112+355389785+354968491
2468+354944771+355064558+354872498+354293724+353648904+353182060+352878996
2458+352673557+352578861+352635716+352832519+353023579+352954197+352513297
2448+351941194+351617413+351657403+351840865+351878002+351624454+351122475
2438+350585248+350276848+350307387+350559675+350793467+350808848+350604484
2428+350367392+350197459+349970708+349613125+349276928+349096987+349014671
2418+348917937+348756861+348580701+348604718+349025604+349639032+349917745
2408+349594334+348913378+348251027+347766800+347481342+347433864+347643863
2398+348035988+348456837+348751710+348860304+348828541+348689963+348427113
2388+348068492+347621884+346897527+345616115+343637438+340896896+337346457
2378+333213759+329051707+325267400+321859245+318786360+316204151+314092567
2368+312074974+309950826+308073905+306920415+306665423+307426806+309454517
2358+312783617+317067198+322126765+328414410+336230308+344428953+350745471
2348+353453694+352584272+350038533+347922205+346299517+343849104+340254782
2338+336471587+333247856+330421588+327606551+324975975+323068940+322069799
2328+321617817+321207345+320566899+319832497+319481771+319946466+321218464
2318+322850418+324315625+325394118+326254274+327177659+328267382+329457657
2308+330683178+331917929+333082408+334016059+334612105+334964350+335305662
2298+335782440+336333231+336818236+337217626+337596557+337877049+337853848
2288+337552452+337344492+337540851+338058917+338594549+338938123+339033189
2278+338876932+338497408+338019519+337670646+337630803+337860890+338122850
2268+338204388+338122479+338070888+338170439+338364760+338570903+338764001
2258+338900652+338945869+338955876+338982487+338983710+338934602+338897465
2248+338932192+339049015+339229103+339416901+339568636+339740979+340025029
2238+340375162+340642534+340841524+341227201+341970275+342893512+343695553
2228+344301790+344836682+345426130+346175394+347151371+348249619+349231600
2218+350004695+350767597+351794277+353146553+354692187+356341671+358105754
2208+359942331+361747294+363533985+365452509+367572062+369775117+371919317
2198+373994246+376093821+378313185+380641253+382915766+384993771+386934347
2188+388815734+390517847+391964671+393343522+394803355+396217490+397419477
2178+398379739+399096869+399563973+399823376+399928709+399886865+399653665
2168+399187043+398513203+397658533+396548091+395093966+393308275+391278044
2158+389118686+386885572+384482377+381787609+378804787+375613783+372353990
2148+369133818+365868280+362782980+361069488+361999693+365332870+369561042
2138+373625692+377526599+381566528+385829354+390172013+394354931+398309097
2128+402195698+406179366+410407056+415067344+420179281+425499252+430765666
2118+435909514+441071930+446434857+451954819+457379344+462542909+467471125
2108+472298715+477269813+482729770+489120636+497034491+506992845+518877914
2098+531550348+543204886+552428283+559020327+563634768+566812874+568504536
2088+568209812+565490581+560272645+552450929+541768106+528492214+513488822
2078+497633204+481868614+467231291+454202684+442721822+432858497+424722747
2068+418060358+412482282+407650281+403229901+399194530+395825847+393121404
2058+390770171+388653287+386810335+385229973+383947226+382920065+381932747
2048+380974337+380307094+380032532+380015335+380119074+380319844+380887981
2038+382383506+385233828+389668773+396125797+405195717+417141866+431730710
2028+448231444+465330558+481345101+494818241+505161901+512883177+518816946
2018+523038335+525044365+524824470+522984187+519952294+515669454+509954689
2008+502817006+494363924+484687025+474095524+463255703+452768127+442771598
1998+433261074+424622084+417418762+411579615+406169915+400312940+394103979
1988+388247226+383239028+379254545+376308712+374173259+372409177+370675745
1978+368925487+367298649+365895114+364697908+363776191+363397594+363638095
1968+363969956+363628199+362463683+361078680+360045848+359385239+358893674
1958+358564926+358402961+358164647+357650547+357060432+356791429+356990605
1948+357531575+358410448+359757276+361134645+361375479+359937254+357841681
1938+356436663+356040795+356189454+356417317+356491220+356344414+356066702
1928+355952511+356456529+357712183+359099039+359959677+360571029+361325889
1918+361464023+360087803+357959207+356706667+356931157+357932337+358630713
1908+358489911+357784974+357084338+356625091+356333592+356212433+356443631
1898+357154201+358097748+358720479+358949046+359518332+360729621+361509017
1888+360806267+359232355+358057646+357674712+357778600+358028960+358172096
1878+358130067+358056386+358184624+359028286+361494006+365795341+370002461
1868+370985221+368131007+364123322+361449383+360483931+360363736+360317853
1858+360155147+360049110+360147956+360432673+360967157+362004918+363784271
1848+366591377+370547804+374276331+374813780+371474895+367445751+365421376
1838+365267713+365558323+365807608+367135201+370659919+375304827+378134245
1828+378109079+377071392+375981039+374003882+371269085+369319503+368916740
1818+369399559+369967177+370748018+372379749+374719418+376420679+376351483
1808+375104205+374332482+375231739+377955972+381535358+384173347+384667099
1798+383876918+384063567+386868894+391674543+394944639+393296193+388473124
1788+384930134+384500835+386021970+387942458+389877734+391597860+392526804
1778+393148979+395344659+400603328+408027248+413622892+413760507+409671988
1768+404692996+400962022+400077109+402619327+406542805+408740041+409105518
1758+409519659+410174227+410874160+413385430+419314455+426835035+431405483
1748+431105792+428487521+426646608+426905751+429045948+431671891+433246471
1738+434667981+439071646+447237899+453807890+452945621+447645591+442836458
1728+439881507+439176868+440884429+444184435+448769004+456264270+468038373
1718+481137215+488000596+485701992+479779712+475559954+474975286+478441853
1708+485531466+494198549+501588816+507845218+516262979+527632429+536957750
1698+540520902+540439105+537972828+534282439+533051692+536364002+543104779
1688+552229144+565162686+581429590+592134947+590460705+584404221+582428805
1678+586495939+595022925+604217451+611049698+617043176+624581287+631266098
1668+632986780+632052425+633910536+639552694+645107014+647353989+648380557
1658+652452508+662352230+678668501+695758350+700108496+693791867+691257580
1648+694957124+697661085+693064693+685053845+679869710+679487443+684106517
1638+693049052+701879138+702090842+692755663+683178388+678768201+678638110
1628+680019073+681407672+682716733+682921765+680780493+678396237+679386632
1618+683673030+686007918+682064797+675319424+670849565+669765624+670431422
1608+670749273+670063535+669177139+668685833+668207648+667339339+666557830
1598+666629213+667472839+668124479+667886239+667085680+666410246+665979204
1588+665473741+664869097+664549466+664733965+665420593+667238898+671533153
1578+678395941+684112670+683836255+680197939+679767120+683812016+687983074
1568+688277724+686311463+685333373+687019142+693474979+707133174+724272094
1558+729753103+720441718+709928161+703961702+701894260+702201289+703562906
1548+705966360+711109504+720362181+733253174+748251860+761191999+763160854
1538+754404152+747075039+746604933+749229283+749070135+746652522+747147905
1528+752538036+760698988+769186984+777679353+785291404+789002882+788464284
1518+786696088+784504114+781125683+778229218+779127326+785844234+798341175
1508+813147282+819766715+811175758+798582009+792479308+793883991+799763871
1498+805009012+804709692+799588860+795701259+797078071+802569977+807284377
1488+807206619+803363864+799197105+796769856+796237263+796850505+798516556
1478+802282962+808959471+817663321+825107774+826462868+820962438+814674347
1468+813173078+816655433+820704109+821125366+820019854+822824552+831570876
1458+841823139+843966560+836198030+827181146+821822964+820238303+821275397
1448+822712622+822279505+820240156+818820647+819452421+822311898+827176328
1438+832743175+835574335+833498220+829613658+827777933+828211347+828661068
1428+827885490+827195453+828081478+830423631+833704586+837934945+841760354
1418+841850269+837429333+831754782+827691354+825810635+825198949+824912082
1408+824990804+825542892+825483814+824087358+823058418+824572660+828497546
1398+833098534+837101623+839287592+838095427+834294479+831098027+830163746
1388+829959233+828406742+826441890+827083819+831635439+838623722+845574719
1378+851172402+855681400+859518595+862239753+863495147+863924632+864112763
1368+864171767+864978404+867798964+871747349+873373668+870676305+866008160
1358+862844026+862103213+862366953+862085052+860983247+859501101+857821263
1348+856071450+854831029+854792187+856217996+858866733+861870532+863702403
1338+863320210+861501163+859963053+859508440+859779370+860227831+860773693
1328+861696485+863111917+864655586+866023059+867627808+869793986+871560552
1318+871683897+870712553+870513302+871862095+873718576+874782281+875002953
1308+875352308+876514823+878182949+879618025+880519246+881134786+881813630
1298+882581055+882943530+882178552+880104067+877403220+874938241+872911716
1288+870809806+868061147+864521196+860393057+856098728+852295482+849655640
1278+848294246+847549356+846662070+845605704+844959994+845110766+845922295
1268+847078361+848302993+849285975+849839250+850135160+850426623+850581249
1258+850290676+849691962+849403687+850013742+851759256+854402285+857102836
1248+858857764+859518892+859993445+861114301+862767751+864449665+866081470
1238+867838770+869763446+871864986+874153398+876457894+878457660+879806082
1228+880301464+880300130+880719682+882332066+885238538+888825115+891932912
1218+893682058+894646361+896361780+899352162+902763802+905923265+908787263
1208+910976272+912035455+912637060+914014539+916409470+919231809+922207070
1198+925399741+928505093+930915441+932482164+933877508+935994392+938886187
1188+941614609+943443292+944636792+945811834+947310360+949250529+951469632
1178+953745665+956450144+960088534+963976802+966622796+967607039+967863143
1168+968246670+968854724+969306150+969218163+968858430+969089332+970315002
1158+972062888+973999721+976398802+979105283+981057014+981632824+981876846
1148+983533483+987013096+990842211+993341066+994538197+995820647+998020553
1138+1000706426+1003184081+1005075919+1005762472+1004833231+1003418170
1130+1003408311+1005263309+1007921830+1010542770+1012987438+1015075784
1121+1016617378+1017631419+1017797757+1016796614+1015265324+1013812533
1113+1012096891+1010613783+1011313382+1014558535+1018002419+1020298094
1104+1023045789+1027155174+1030198038+1029621784+1026771647+1025621289
1095+1028359867+1033263213+1036580194+1036784188+1036577748+1039492819
1087+1045114370+1049377418+1049619661+1047325913+1045411688+1045144613
1078+1046271992+1048019063+1049282834+1049419225+1049082027+1049314411
1070+1050065454+1050354692+1049781404+1049590159+1051910444+1057236456
1061+1062705383+1064560751+1062797151+1060681008+1060072361+1060295479
1053+1060626599+1061227092+1061883180+1062697081+1064655336+1067178059
1044+1067726293+1065484581+1063086241+1063087279+1064956286+1066972953
1035+1069075012+1071848799+1073741823+1072334174+1068286832+1064650518
1027+1063082757+1063388823+1065283478+1068204108+1070241974+1069500938
1018+1066630714+1064263359+1063550269+1062642079+1059454745+1055128690
1010+1052844355+1053739647+1055958009+1057476698+1058396970+1059917883
1001+1061721585+1061495946+1057662680+1051962629+1048175765+1048029960
993+1049642640+1049984582+1047731974+1043496797+1038238091+1032500237
984+1027106844+1023462376+1022586135+1024257597+1027461166+1031066125
975+1033580027+1032835137+1027207878+1018005606+1009375067+1004776006
967+1004202717+1004865328+1003861590+1000325049+995545048+991383552+988685892
957+987001532+985259428+982288763+977516767+971681733+966425474+963295661
947+963088775+965323149+967952317+968109167+964290799+958183650+953140131
937+950794124+950496732+951604467+954056919+956775260+957918576+956924475
927+954767859+952611985+951377420+951704166+953209291+954390411+954029418
917+952657276+951984362+952738740+954033866+954989718+955483544+955026262
907+952697897+949134448+946587115+946144510+946551164+946328639+945934363
897+946753453+948542776+949377358+948344045+946599939+945176501+943728825
887+942123038+941311435+941821791+942712116+942566014+940837030+938300742
877+936576131+936826825+938572042+940337718+941364509+941721573+941402980
867+940189911+938550694+937619748+937492696+936934900+935435632+934217597
857+934375411+935116891+934981389+933938884+932949898+932345328+932238290
847+933596942+936852694+939933807+939805866+936119516+931455077+928331713
837+927857604+930156616+934233830+938134033+940465956+941394752+941790806
827+942367653+943463677+944449327+944055794+942184562+940604052+941331449
817+944639164+948799992+951251629+950659882+948470355+947330745+947995653
807+948763597+948090238+946618322+945975652+946725730+948164512+949208351
797+948982712+947227562+944841379+943727787+945325494+949067660+952765129
787+954709893+954936199+954444819+953638479+951996889+949503668+947415026
777+946841367+947206733+946811568+944956867+943002096+942993126+945422303
767+948687469+950973286+952442608+954372843+956280767+955897610+952493013
757+948389928+946192544+946406026+948019448+949754362+950702505+950760100
747+950432613+950085185+949972588+950824886+953276745+957220311+962096750
737+966331408+966922116+962350408+955450854+950723927+949789646+950922658
727+952318669+953942543+955653737+956035262+954451565+952435269+951557546
717+951822545+952993955+954781424+955348042+952498573+946622696+940534671
707+936660560+935293162+935273000+935958589+937831970+940754898+943134114
697+943509561+941814230+938723110+934422777+928892252+922923940+917772939
687+914339655+913049051+913275505+913350595+911561791+907457521+902446395
677+898257473+896269790+897079762+898416917+894360680+880658973+864287774
667+860754346+871124840+883116391+889147265+889011467+885986986+882508634
657+879330342+877015913+875717970+875037570+874726390+874789174+874776351
647+873268854+868759560+862188532+857924372+859109347+863146385+864982778
637+863991864+863728569+865745532+868020156+868411540+865965611+861003557
627+855970194+852495622+848185652+840603992+832798028+830147883+833921330
617+840545878+845110469+844607081+839637466+833772634+830183167+829362372
607+830284274+832042686+834226209+836686000+839035713+840354855
##END=
