##TITLE=<SNM>
##JCAMP-DX=4.24
##DATA TYPE=INFRARED SPECTRUM
##DATE=2/5/2025
##SAMPLING PROCEDURE=Instrument type and / or accessory
##ORIGIN=Admin
##XUNITS=1/CM
##YUNITS=ABSORBANCE
##RESOLUTION=4
##FIRSTX=4497.3318
##LASTX=599.83466
##DELTAX=-1.4281778
##MAXY=1.7737565
##MINY=0.23990402
##XFACTOR=1
##YFACTOR=1.6519395e-09
##NPOINTS=2730
##FIRSTY=0.25892159
##XYDATA=(X++(Y..Y))
4497+156737942+156250407+155870865+155771099+156279399+157171102+157698741
4487+157439946+156854828+156869315+157886672+159224019+159707260+158825570
4477+157028724+155170556+154105553+154432038+155990908+157741949+158588099
4467+158272800+157278859+156184901+155476727+155596771+156628380+158071482
4457+159242908+159755393+159527267+158701882+157738665+157241208+157438232
4447+157869407+157753405+156785317+155484737+154636729+154516270+154817047
4437+155238137+155906369+157090982+158590769+159639084+159561220+158416368
4427+156925656+155910139+155722461+155960437+155814740+154940915+153818669
4417+153148074+153215636+153873080+154692547+155042701+154495199+153425595
4407+152783902+152954640+153305209+153220796+153065140+153537052+154472125
4397+154961860+154592258+153915602+153522547+153341597+153153793+153059890
4387+153011433+152589566+151689889+150875708+150740744+151219809+151659274
4377+151501976+150793829+149938533+149188865+148631927+148353729+148285138
4367+148211712+148158185+148406471+148983308+149444873+149362436+148873891
4357+148513742+148556057+148871735+149401386+150206646+151022262+151368438
4347+151121306+150558983+150021566+149771087+149859162+150004093+149904860
4337+149588334+149163879+148550491+147787942+147208499+146966743+146828541
4327+146646500+146555890+146531752+146288986+145809326+145465278+145434221
4317+145438713+145272422+145225669+145750422+146869088+148107950+148982018
4307+149417956+149679530+150003371+150392638+150657432+150535891+149877059
4297+148904867+148186960+148033252+148126063+148123997+148253188+148795584
4287+149456131+149796606+149839128+149805022+149691545+149340678+148618189
4277+147567411+146568149+146101966+146298881+146982285+147991262+149135609
4267+150053453+150438543+150343801+150129964+150155735+150452263+150656404
4257+150459840+150112518+150156042+150679342+151202986+151331942+151168952
4247+151062845+151243343+151728948+152340639+152769722+152832233+152629166
4237+152294347+151748720+150948376+150195524+149864313+149961625+150266172
4227+150743081+151461078+152146574+152226621+151534269+150704744+150532508
4217+151072416+151780562+152315545+152671508+152794203+152611775+152229977
4207+151854818+151757867+152187310+152998046+153661190+153869670+153760144
4197+153482965+153025252+152477930+152064326+151871795+151798405+151734306
4187+151640512+151534648+151524221+151713324+152020072+152308527+152620055
4177+152981629+153217711+153299598+153542049+154119192+154750855+155073533
4167+155011328+154764638+154617624+154662185+154692385+154525056+154269725
4157+154114935+154087621+154148310+154322999+154595217+154784032+154706186
4147+154414430+154130089+153998535+154063410+154337197+154689589+154841330
4137+154665486+154347264+154163555+154220654+154441022+154752785+155192548
4127+155707252+155999441+155841187+155394587+154953526+154585240+154262743
4117+154116847+154347679+154993973+155862331+156577884+156729336+156172976
4107+155243369+154488686+154204507+154370122+154817949+155200179+155159335
4097+154762690+154383003+154167794+154064781+154092799+154134707+153921285
4087+153569832+153603406+154233517+155062077+155467671+155058920+154038406
4077+153221536+153290199+154058106+154816307+155171368+155156412+154839850
4067+154352135+154082209+154342970+154920637+155286162+155176185+154738894
4057+154259694+153974072+154023341+154368408+154738082+154802380+154517876
4047+154253632+154398897+154882643+155319754+155508876+155436352+155045317
4037+154466965+154179232+154512320+155322496+156342704+157342706+157896270
4027+157685589+157079617+156777920+156910737+156974475+156577451+155938969
4017+155657081+156012034+156590224+156792245+156588365+156455369+156696827
4007+157152538+157501591+157664446+157882415+158344331+158812977+158882687
3997+158530386+158086005+157797027+157781260+158184923+158975669+159773199
3987+160224743+160362250+160345292+160107947+159580109+159125715+159337063
3977+160252508+161144138+161350507+160977784+160478487+160008596+159609353
3967+159615830+160402102+161821896+163169544+163807737+163778403+163591446
3957+163519572+163472557+163505825+164012140+165240827+166728111+167441589
3947+166900906+165946529+165685605+166041514+166126522+165702852+165329245
3937+165456685+166328580+168230965+170860034+172702992+172359892+170560141
3927+169360373+169548900+169982619+169664487+169437516+170613271+172853651
3917+174203464+173154283+170366329+167823441+166743067+167046459+168671178
3907+172430684+178779028+186078483+191153759+192129857+189370173+184125061
3897+178439987+174982845+175362965+178687760+181540805+181266910+179872102
3887+180729113+183454935+185148985+185502873+186124794+185920157+183259228
3878+180519695+180865556+184114741+188337914+192408552+194905093+194119019
3868+191767616+191320961+192757154+192782357+189814951+186208954+184975540
3858+187727359+195149365+205723678+211634424+205655610+194094050+184994375
3848+180814049+181388144+185463688+191274344+197560339+203760207+208459296
3838+209227564+206012674+201814938+198573673+195957738+193660006+192392044
3828+192357207+193029570+195219869+200656412+207740857+210876024+208809648
3818+206028784+203772637+199653794+194217539+191097688+192622930+198235480
3808+204400367+207616826+209435700+213185608+217203098+217070318+213931704
3798+211836986+210783583+208940119+206806325+206223426+207843022+211146564
3788+215482438+220358327+225369450+230739134+237458433+245741599+253888882
3778+260443414+266723149+275212882+287305022+302850173+319506709+333175688
3768+341649564+345918416+347794804+349562623+353354187+358545971+361963152
3758+362562648+363734976+369595713+382062055+399531150+415498960+424575904
3748+430822786+440318024+452278178+460105976+462946898+467724573+479022989
3738+496508249+515782939+530460110+537548019+540167147+543166576+548562726
3728+555573348+562623118+568746854+573634433+576437037+575918219+572482023
3718+568248278+565678870+567003787+572490863+577715553+576222135+568018619
3708+558710644+552719148+551676894+554293425+557084374+557956863+558241331
3698+559808067+563068473+567744831+573614155+580408829+586544255+588432875
3688+584933247+580176175+577714326+577523562+578380104+580444261+585649467
3678+594934024+603672559+603958469+597755571+593610442+592968911+590413142
3668+583465880+575854679+570841788+568241892+566410930+565169362+565736168
3658+567746455+568974601+569756273+573899164+583503296+595448729+602051520
3648+598515882+588703415+578423835+570702946+566513149+565495576+566746489
3638+569572365+573061313+575961625+578493761+583062126+590892342+597449238
3628+595936444+588373124+582151751+581329307+586455025+595632961+604787733
3618+610235804+611798643+611264419+610156425+610105622+612459514+616235022
3608+618283881+617319636+615739117+615990822+617706503+618934865+619296692
3598+620565105+623838357+627837571+630599691+632433575+635832968+641753817
3588+646905045+647214264+643468127+639630991+638335084+639546127+641021793
3578+640279378+637582710+635711229+636193135+637945330+639844234+641990585
3568+643735347+643393366+641182645+639149663+638149480+637509753+636716607
3558+636020376+635629324+635385051+635125769+634408538+632808391+631155492
3548+630961878+632225817+633033107+631709128+628494112+625030926+623023850
3538+623069458+624031971+623786977+621418002+618627955+617960590+619697126
3528+621752118+622630561+622536604+621355220+618158678+613477449+609813577
3518+609102842+611015889+613503500+614444508+613554231+612366857+611616431
3508+610130518+607282957+604480065+603151648+602890381+602369868+601147098
3498+600024094+599995048+600972752+601731476+601244374+599818862+598606303
3488+598067749+597416042+595798684+593667415+592494258+593096496+594697365
3478+595605106+594561373+591713920+588367134+585705105+584039902+583194149
3468+583285760+584561281+586222190+586595130+585419483+584479304+584715494
3458+584568245+582789349+580889869+580778232+582034089+583202773+583838458
3448+583851484+582659492+580355031+578356831+577860925+578460638+578653422
3438+577356360+574874089+572489492+571146967+570698256+570513626+570319435
3428+570037060+569357752+568200217+567237740+567143495+567551362+567253760
3418+565607465+563560482+562618860+562810706+562629072+561137927+558902057
3408+556726805+554929796+553723119+553206935+553373019+554445364+556293573
3398+557651613+557218128+555321246+553408703+552315719+551733687+550963957
3388+549737183+548447662+547769327+547995595+548800648+549624824+550095076
3378+550048314+549438246+548348293+547021536+545795302+545095174+545420306
3368+546730898+548090562+548586792+548155978+547095936+545707155+544624959
3358+544369068+544546229+544325049+543540201+542767910+542453387+542334570
3348+541930528+541412504+541298342+541405505+541055838+540301804+539961013
3338+540399549+541018782+541101373+540906929+541360403+542388007+542547993
3328+541080842+539124425+537949030+537304540+536335316+535012203+533811191
3318+532792462+531981347+532037779+533329212+534678629+534527447+533210937
3308+532480068+533152196+534495947+535325356+534987054+533840922+532948479
3298+532904929+533313120+533519651+533232586+532454450+531564388+531356125
3288+532284866+533647272+534022737+532813895+530993685+529971385+530187947
3278+531231752+532741010+534509117+536004628+536396366+535177998+532796972
3268+530722099+530464152+532210790+534590193+535884693+535425157+533875596
3258+532354323+531381202+530739274+530167633+529645748+528973584+527761999
3248+526129090+524892248+524771447+525675291+526785884+527091314+526050468
3238+524241588+523125620+523565022+524836105+525611680+525380974+524322700
3228+522631699+520663050+518976126+517811808+517086135+516796905+516785467
3218+516507133+515698941+514831575+514426631+514355298+514047558+513064731
3208+511506835+510137105+509921264+511025650+512297383+512204762+510393212
3198+507862159+505692643+504206478+503188579+502208639+500802682+498953752
3188+497355842+496769299+497142130+497534121+496906121+495056902+492840588
3178+491414896+491215364+491598767+491494383+490465300+489001324+487694015
3168+486547991+485272145+483831659+482470227+481294435+480143576+479014186
3158+478279167+478173592+478338052+478271842+477912542+477435543+476899334
3148+476273570+475490058+474442573+473191767+472019223+471015144+469891021
3138+468461612+467031229+466047572+465540408+465106743+464421193+463545636
3128+462675781+461890861+461262139+460804444+460237096+459277217+458277793
3118+457953996+458279452+458370378+457784918+457133645+456970556+456889408
3108+456182389+454851663+453564992+452854618+452564557+452097806+451201069
3098+450169388+449246167+448336442+447380351+446562633+446091407+445961153
3088+445915437+445739720+445589765+445677876+445764797+445510854+444991207
3078+444283502+443144947+441655173+440442903+439879813+439734765+439750966
3068+439920008+440114271+439956053+439221973+438125813+437054695+436163407
3058+435312783+434265658+432898093+431435416+430443172+430244542+430449919
3048+430412430+429954915+429344017+428838694+428463121+427946396+426899632
3038+425324634+423792247+422880393+422661810+422815446+422891759+422450120
3028+421336641+419895000+418643654+417828822+417459635+417476125+417607426
3018+417380869+416605078+415644730+414992374+414722809+414479835+413853603
3008+412691306+411189553+409825595+409054026+408902195+408924349+408659005
2998+408034937+407219745+406337369+405551187+405130728+405124846+405125929
2988+404600833+403411258+401898392+400499941+399422724+398692433+398349080
2978+398403924+398583538+398351317+397443648+396287016+395557914+395364806
2968+395218170+394749542+394023580+393235377+392570645+392206257+391993736
2958+391369164+390048071+388606214+387896921+388029990+388307242+388063727
2948+387203108+386018260+384949667+384411726+384387804+384276997+383546345
2938+382410026+381503115+381075187+380859599+380591405+380293262+380048521
2928+379768311+379248447+378308377+376913966+375317463+373968696+373107139
2918+372564797+372108545+371757002+371599505+371554259+371465606+371256441
2908+370905187+370420322+369868778+369329719+368814293+368291435+367779472
2898+367341622+366934730+366335522+365373803+364208078+363179247+362451228
2888+361998476+361798620+361799991+361850794+361848124+361799630+361660824
2878+361301560+360639570+359651692+358347377+356880010+355596515+354854388
2868+354761695+355070842+355365376+355402721+355197452+354783416+354084082
2858+353088338+352034827+351303344+351052938+351028583+350884509+350604768
2848+350376804+350229086+350088584+349971572+349812740+349328525+348341837
2838+347079089+345950745+345185309+344783396+344650039+344637230+344574015
2828+344340170+343847006+343032788+342032606+341191255+340707761+340431376
2818+340114616+339644725+338989663+338177574+337358630+336703279+336236419
2808+335832882+335365445+334872642+334550253+334470982+334358840+333823064
2798+332850268+331921816+331521490+331574819+331539603+331069388+330352374
2788+329710915+329159985+328543747+327864041+327221319+326566474+325769539
2778+324879695+324083085+323456491+322961163+322562894+322178661+321679797
2768+321066265+320428234+319739652+318948346+318190740+317648506+317287401
2758+316937987+316539465+316135460+315678450+315012419+314108755+313181818
2748+312453150+311901029+311335125+310616849+309776183+308997830+308445962
2738+308060430+307642641+307147204+306717148+306433907+306203454+305912347
2728+305572891+305236466+304847651+304342833+303848840+303531718+303247684
2718+302668953+301794551+301005987+300562634+300322006+299999094+299475748
2708+298811485+298107479+297428639+296826383+296397228+296219815+296189615
2698+296049041+295676011+295212867+294814923+294424719+293911097+293291449
2688+292681526+292123596+291592276+291114212+290766819+290564220+290404144
2678+290129545+289643039+288989005+288314459+287740257+287299267+286982741
2668+286784184+286698147+286705057+286743340+286710938+286527102+286159070
2658+285610702+284986959+284489826+284199946+283975663+283698286+283431065
2648+283218328+282943963+282505446+281968335+281470066+281055055+280638799
2638+280120848+279542351+279102426+278974986+279109931+279233511+279084818
2628+278659380+278159884+277718426+277303054+276910883+276665203+276625874
2618+276629645+276458474+276118585+275785479+275480896+275057767+274562655
2608+274277538+274253039+274145678+273706691+273133336+272753703+272628482
2598+272626119+272675785+272754371+272750131+272540804+272179861+271843184
2588+271606092+271428354+271331222+271397341+271575729+271642787+271412099
2578+270904160+270277494+269679911+269241248+269095821+269226076+269354689
2568+269210958+268864809+268614962+268618498+268788496+268969644+269086332
2558+269176392+269337496+269586423+269764215+269648989+269178214+268518931
2548+267925009+267553549+267401790+267371752+267377362+267392715+267393112
2538+267287555+266982034+266520424+266093416+265850082+265734404+265579903
2528+265344163+265139418+265031498+264955564+264843765+264681055+264426427
2518+264043746+263624099+263351231+263336817+263546992+263846307+264068390
2508+264104309+263976165+263785907+263578455+263328987+263071473+262898100
2498+262804180+262702502+262618630+262664580+262787582+262763137+262475567
2488+262046935+261687436+261517004+261492252+261448016+261247836+260910779
2478+260567607+260317074+260142764+259956944+259716712+259466234+259242077
2468+259020409+258816873+258722646+258759070+258811551+258769426+258624053
2458+258416205+258207869+258081800+258041948+257961396+257734839+257429950
2448+257212919+257168809+257234838+257280987+257218547+257009581+256622335
2438+256091592+255612483+255427222+255580983+255868626+256022568+255919230
2428+255644902+255390960+255276978+255308874+255470411+255727727+255954518
2418+256000035+255850820+255651613+255575228+255684014+255882283+256029622
2408+256098141+256129929+256095345+255976239+255915532+256070286+256384268
2398+256674834+256865272+257067041+257574817+258805200+261140439+264886811
2388+270450019+278421386+289416175+303879653+322000779+343709138+368743970
2378+396664862+426668818+457450838+487501700+515642762+541048080+562731471
2368+579647254+591748234+600181121+605641244+607331090+604325058+596666772
2358+584243330+566369003+542835347+514723186+486096465+463710241+452896400
2348+455503008+470374371+492525632+513221794+525933167+531085657+532557427
2338+533073682+533128671+532387374+531084503+529666459+527821426+524701304
2328+519847064+513315390+505141966+495348658+484509885+473636509+463230752
2318+452899503+442052215+430683114+419379574+408690504+398557812+388428043
2308+377920535+367259969+357014306+347541872+338777503+330490566+322622176
2298+315315433+308705966+302783566+297413629+292427385+287714224+283275914
2288+279211230+275640918+272624585+270132176+268079709+266373752+264951379
2278+263828411+263068009+262624061+262271633+261778308+261100136+260350378
2268+259646570+259048733+258582198+258238936+257947342+257579346+257034080
2258+256328504+255583491+254923306+254416143+254089478+253931278+253858411
2248+253743166+253512948+253203205+252890305+252600353+252322002+252086786
2238+251964108+251961510+251994633+251990105+251967644+251986785+252060554
2228+252157614+252253844+252367194+252558661+252860574+253177822+253348199
2218+253356444+253379247+253564580+253888449+254259855+254643601+255058810
2208+255545281+256125257+256761195+257386056+257950824+258415050+258776714
2198+259128293+259574136+260105293+260650649+261201417+261798062+262425558
2188+262971635+263317838+263490939+263657691+263932741+264278457+264613042
2178+264914503+265195814+265427133+265503355+265340104+265017390+264732093
2168+264588885+264531136+264461066+264328989+264113618+263791788+263377697
2158+262981142+262746955+262711757+262787709+262891028+263048471+263393681
2148+264030251+264919176+266068772+267773250+270373183+273859858+277983878
2138+282580441+287575237+292904113+298571777+304614997+311030019+317826497
2128+324994795+332437314+340124754+348185279+356641150+365205987+373472141
2118+381202339+388366885+394926703+400735482+405786259+410363284+414781730
2108+419177156+423605128+428135752+432851511+437766693+442563311+446557510
2098+449298341+451101881+452717724+454501274+455985455+456245315+454608401
2088+450844655+444811160+436326856+425415162+412463486+398138652+383168859
2078+368243518+354083469+341308664+330160203+320624085+312742705+306496833
2068+301578620+297567517+294154792+291143042+288473850+286218803+284417050
2058+283029892+281995053+281171184+280412964+279792541+279527233+279720991
2048+280363460+281468676+283139129+285604297+289138708+293919630+300119516
2038+308015508+317754911+329121846+341597534+354396404+366531662+377300328
2028+386742562+395396016+403651562+411404491+418240478+423863364+428146793
2018+430780246+431297584+429588759+426001633+420878621+414311623+406345776
2008+397202406+387277941+377021670+366822083+356948890+347526681+338554266
1998+330097601+322542941+316396726+311614758+307399162+302986958+298403474
1988+294129679+290470372+287527501+285315301+283645679+282195396+280808617
1978+279557650+278523569+277665404+276904081+276301951+276112685+276466213
1968+276949147+276808862+275810051+274556756+273743242+273479467+273492817
1958+273591122+273707629+273772233+273746489+273688578+273728069+273979576
1948+274503554+275430617+276895891+278451189+278936956+277779367+275939007
1938+274724463+274446689+274675049+275043317+275445987+275871245+276312181
1928+276851619+277812779+279429145+281241958+282556465+283566588+284830725
1918+285793275+285424051+284204890+283724589+284663307+286296739+287524741
1908+287926564+287907892+288038904+288458930+288980472+289516536+290219262
1898+291290489+292632563+293775592+294567133+295583029+297034917+297886641
1888+297213683+295691219+294470759+293764245+293293470+293000631+292852228
1878+292674580+292404365+292269492+292933032+295328924+299548452+303540234
1868+304117684+300702054+296114529+293012701+291890977+291884483+292062996
1858+292014503+291818760+291714141+291801477+292159028+293013512+294630943
1848+297320755+301174542+304854326+305518661+302414289+298493173+296413357
1838+296195983+296502533+296799502+298150777+301658866+306269700+309127688
1828+309205300+308224782+307145653+305354958+303083621+301639689+301483473
1818+301884647+302208966+302773788+304286762+306617562+308455993+308659313
1808+307679444+307001976+307791550+310337433+313861055+316660952+317445294
1798+316896276+317179770+319950369+324683952+328068696+326915059+322779636
1788+319757801+319583671+321221849+323190967+325068438+326703584+327683886
1778+328454372+330673392+335724782+342852633+348371352+348870938+345518415
1768+341396343+338262763+337379990+339378334+342684889+344684496+345290595
1758+346103911+347145587+348108389+350595928+356114178+363013091+367273608
1748+367307886+365359803+364028752+364438820+366504456+369086313+370747799
1738+372190053+376261863+383620781+389113702+387397083+381621679+376476477
1728+373078166+371611160+372114679+373915656+377065617+383357385+393997962
1718+405872277+411504689+408049045+400879736+395177289+392896823+394542469
1708+399744572+406549276+412301371+417167843+424002892+433031631+439436622
1698+440342271+437840624+432747849+426447241+422843157+423803974+428129510
1688+434801939+444840963+457342088+464384822+460566955+452973543+448763648
1678+449676080+454431132+459899878+463930122+468078570+473754929+477899661
1668+477164462+474907990+476412376+482039304+487581693+489779965+490758354
1658+494776656+504562784+520767290+538347443+544463169+540276186+539412897
1648+544514585+548509433+545059634+538266007+534606105+535947366+542190244
1638+552753281+564251626+569220208+565540172+561022393+561504985+566955329
1628+574677120+582697377+590925862+598733130+604382789+608811302+615741137
1618+626526582+636771740+640823633+640608514+641170089+643818768+647184894
1608+649892386+651783929+653518228+655427306+657091390+658294495+659836263
1598+662724813+666993340+671751134+676138153+679906734+683110132+685734636
1588+687911151+690006844+692213595+694472016+697033666+700824906+706950626
1578+715254377+722437144+724254503+723175157+725665150+733826089+744115123
1568+751727983+757081412+763538867+772604300+785460108+805306006+832495380
1558+853507003+857661224+855496327+855141356+857150886+860066497+861985606
1548+862229012+862902440+866672391+873924002+882099230+884642551+874896834
1538+859646507+850428736+848530916+848520019+845036339+839149912+835719633
1528+836432678+839371598+842741115+846664342+850242555+850812356+848567502
1518+845928060+842675375+837871974+833409111+832469040+836989634+847086063
1508+859276742+863394954+853510828+840506292+833549540+833002904+836132984
1498+839188880+838702861+834893364+831967434+833164622+837695101+841074506
1488+839226044+833348277+827670835+824704998+824202526+824795780+826147469
1478+829177603+834486796+841309830+847086929+847809500+842463503+835899897
1468+833006729+834308986+836394937+835916278+834871571+838173544+847416138
1458+857557381+858472411+849141056+839613489+835221274+835301303+837190753
1448+837966724+836352865+833616291+831633679+831303027+833147663+837538002
1438+843132817+845968977+843630239+839337248+836714403+835576245+834051003
1428+832019896+831014013+831319047+831795036+832444866+834436138+836718300
1418+835603378+830324421+824284575+819993317+817497479+815746727+814232309
1408+813637035+814390924+815285820+815165164+815202039+817172961+820734577
1398+824091394+826136717+826281476+823898358+820091603+817616260+817628167
1388+818122196+816505163+813820402+813732723+817714185+824013963+830243887
1378+835494989+840074323+844036806+846650414+847685235+848292416+849464564
1368+850929333+852424988+854497877+856984477+858350527+857850797+856783142
1358+856530065+857020415+857430518+857282584+856583827+855487956+854224089
1348+853155424+852716888+853349110+855348898+858482153+861815806+864174389
1338+864962988+864693026+864607729+865579623+867280366+868743837+869812358
1328+871306281+873726130+876612587+879340285+881931451+884795898+888000090
1318+891228312+894313651+897250117+899839189+901986262+904047027+906302128
1308+908633939+911139374+914317226+918247957+922178472+925075320+926237942
1298+925573463+923750187+922002249+921251102+921235443+920800876+919230532
1288+916972256+914820132+912880817+910826258+908568126+906082608+903232809
1278+900400763+898649218+898676062+900118750+902075889+903770498+904794133
1268+905334203+906003300+907031843+908096756+909097804+910251044+911401399
1258+912242389+913110873+914548870+916384630+917962840+918813067+918737513
1248+917850482+916769838+916135306+915778026+914967056+913576615+912326964
1238+911631383+910887741+909391292+907475358+906229748+906382446+907664498
1228+908953333+909153009+908359718+907802907+908283442+909238306+909759180
1218+909833508+909915630+910045884+910273992+911282546+913558863+916346961
1208+918368181+919377600+920235116+921676072+923812392+926626974+929921226
1198+932984555+935396683+937815017+940736473+943181869+944220153+944837654
1188+946359793+948261439+949580583+951095433+953953241+957384892+959575118
1178+960075137+960075714+960934817+963133198+966068438+968705426+970667400
1168+972550355+974767571+976694545+977770283+978370103+978926626+979461644
1158+980407488+982628744+986232432+990127875+992815162+993334448+992052180
1148+990750211+991418154+994586408+999090043+1003531907+1007467978+1010647345
1138+1012067013+1011434574+1010354002+1009976227+1009300996+1007677179
1130+1006728954+1007813712+1009876570+1011537984+1013059113+1015146579
1121+1017890297+1021151786+1024538479+1027365690+1029490392+1031590486
1113+1034077664+1036449669+1037905635+1037846244+1035917249+1033132542
1104+1031895953+1033013545+1034324823+1033906926+1033095234+1034400306
1095+1038000169+1041814789+1044377017+1046392103+1049044535+1051490219
1087+1051364582+1048148917+1044173228+1041633587+1040460718+1039664974
1078+1039594038+1041515240+1045777705+1050767143+1053859626+1054391758
1070+1054580104+1056316207+1058662161+1059717909+1059511450+1059476668
1061+1060143600+1061420529+1063988169+1068088267+1071977071+1073719019
1053+1073741823+1073383316+1072220478+1069613148+1067180959+1067007045
1044+1068816105+1070810841+1072133593+1072584325+1071479867+1069250816
1035+1068239449+1069671528+1071857064+1072914905+1072867782+1071998937
1027+1069973098+1067327739+1065654923+1065791023+1066718464+1067336542
1018+1068150544+1069916739+1071708047+1071525762+1069078274+1066623281
1010+1066279062+1067520487+1067859221+1065858567+1062811114+1060530107
1001+1058764344+1056815071+1055990534+1057524869+1059705642+1059855669
993+1058418250+1057920179+1058541071+1058153411+1055956184+1053471749
984+1052257314+1052122008+1051615783+1049975873+1047963962+1046638107
975+1046085120+1045577019+1044197114+1041206381+1036677417+1032066042
967+1029340004+1028927374+1029034825+1027224755+1022241018+1014717496
958+1007178603+1002959724+1003774231+1007770703+1010492195+1008477469
950+1001954779+993978938+987658161+984285035+983166793+982939118+982906501
940+982751783+981947884+980459085+979093035+978538099+978555996+978609758
930+978689498+978599655+977483145+975176015+973081116+972804514+974422342
920+976503457+977568514+977361189+976736111+976577136+977093392+977946866
910+978474451+977637286+974793910+971177378+969412193+970701822+973274153
900+974400260+973441860+971640161+969742989+967575855+965086729+962661178
890+960745750+959605715+959315908+959902017+961058433+961458145+959444430
880+955274550+951639327+950875768+952794733+955834898+958734416+960648474
870+961124318+960120022+957697431+954471806+952001082+951541691+952956451
860+955582398+958863083+961781509+963235381+962768629+960341491+956661600
850+953743751+953314236+954877508+956543685+957246988+957319512+957402788
840+957375438+956466903+954626308+953193940+953597116+955736323+957962125
830+958872031+958636130+958602502+960103497+962755063+964135185+962341567
820+958810909+956925212+958183955+961283366+964412724+966521045+966639609
810+964845632+963666917+965606593+969744721+972876533+973472818+972550139
800+971119575+968905824+965748321+962808897+961558596+962269116+964007456
790+965670529+967235822+969608621+972802782+975089707+974690212+972134118
780+969674723+968856175+969391915+969658414+968231025+965293116+962436751
770+961238119+962290909+965035421+967967557+969796679+970666029+971632439
760+973038395+973803470+972904100+971391342+971446041+973068487+973255174
750+969745443+964824849+963625784+968592707+976406398+981041225+980250316
740+976869541+973653154+970388056+966345761+962603809+960793522+961340158
730+963534786+966187290+968201294+969171456+969530541+969669311+969306041
720+968633407+968622294+969050294+968521554+967931692+970615154+976990848
710+982038377+980714903+974485485+968955688+966630084+965596346+964503001
700+965072368+968369939+971245861+969222909+962220983+954284398+948421569
690+944727894+942727241+943016615+945276695+946438956+943535469+937578538
680+931991445+928485971+926570037+925892786+926902638+928697915+928566072
670+925532908+923643386+926826217+929973328+927811173+923261931+921649876
660+922997019+922635265+919059505+915468374+913890886+912970372+910717724
650+906347880+900245685+894138727+890865042+891941934+895758792+899722934
640+903189367+906502670+908035345+904797453+897139707+889514796+885321030
630+883560824+880646873+874228170+865582365+858836402+856961529+859488974
620+864041969+868556140+871525080+871765888+870275213+869799585+872378410
610+876318955+875446285+866436489+853730709+844721635+845233994+855924327
600+870232564
##END=
