##TITLE=<SNM>
##JCAMP-DX=4.24
##DATA TYPE=INFRARED SPECTRUM
##DATE=2/5/2025
##SAMPLING PROCEDURE=Instrument type and / or accessory
##ORIGIN=Admin
##XUNITS=1/CM
##YUNITS=ABSORBANCE
##RESOLUTION=4
##FIRSTX=4497.3318
##LASTX=599.83466
##DELTAX=-1.4281778
##MAXY=1.6976736
##MINY=0.30251643
##XFACTOR=1
##YFACTOR=1.5810817e-09
##NPOINTS=2730
##FIRSTY=0.30669931
##XYDATA=(X++(Y..Y))
4497+193980680+194829974+196296716+197756388+198490400+198288712+197389128
4487+196063474+194760496+194257332+194955416+196425287+198058260+199471149
4477+200081132+199375753+197935419+197155849+197753938+199247125+200751113
4467+201684550+201849010+201372330+200680145+200216791+200034386+199914956
4457+200015065+200848922+202218796+202878278+202053676+200580828+199682770
4447+199381483+198997277+198526421+198458978+198695876+198715932+198544837
4437+198570887+198658932+198439450+198166625+198366805+198945630+199335038
4427+199141908+198243568+196855636+195675461+195307371+195542366+195616500
4417+195114637+194463920+194543106+195679589+197136886+197857270+197523109
4407+196591387+195617329+194890612+194452441+194189795+193920965+193539926
4397+193327231+193966449+195719059+197715806+198715027+198411497+197514589
4387+196881271+196862535+197151231+197083109+196200471+194588703+192808460
4377+191594469+191335102+191763434+192410645+193153082+193957401+194561597
4367+194949177+195610072+196767063+197854141+198312500+198445689+198799472
4357+199057821+198416793+196952276+195700851+195322582+195506458+195694875
4347+195695347+195532112+195256968+195018222+194977583+195083705+195099274
4337+194862866+194448464+194097433+193973348+193961171+193807549+193457385
4327+193067412+192733892+192495674+192562966+193239242+194577657+196209820
4317+197480604+197857496+197373200+196548279+195909060+195806633+196399049
4307+197384585+198018526+197815915+197073157+196504756+196586807+197276522
4297+198139294+198763432+199143397+199577440+200226366+200866263+201048743
4287+200583862+199908435+199685692+199953730+200080472+199646599+198888535
4277+198254501+198008913+198199027+198607850+198848462+198759983+198620894
4267+198845163+199506416+200218261+200521264+200348114+200010937+199814037
4257+199856580+200158132+200744704+201531003+202278605+202763184+202824067
4247+202294721+201198237+200039117+199547583+200026658+201140464+202292045
4237+202991939+202984267+202326841+201462034+201046029+201360304+201891233
4227+202032056+202134766+202931093+204102673+204653846+204465655+204250282
4217+204229020+204005071+203424814+202703544+201993717+201261345+200428544
4207+199764954+200071858+201781718+203922285+204913213+204466880+203764196
4197+203738919+204080525+204056417+203642090+203499174+204083805+204977998
4187+205240494+204562936+203730003+203555421+203860196+204083937+204292071
4177+204816535+205530792+206168239+206748986+207176565+207034591+206269083
4167+205591148+205743375+206617135+207460266+207914440+208389764+209214308
4157+209907398+209750138+208806692+207876742+207509067+207494685+207409354
4147+207257032+207334183+207738293+208253766+208527232+208259892+207545823
4137+207091969+207680633+209219549+210684085+211320570+211531022+212073431
4127+212841182+213141735+212851908+212477089+212305164+212334908+212831795
4117+214100374+215730143+216723163+216530825+215625115+214938924+214963428
4107+215458260+215909890+216104679+216126130+216020724+215875622+216047698
4097+216779560+217729246+218376211+218629169+218528193+217864810+216706274
4087+215768878+215732047+216567807+217762100+218763961+219191237+219035240
4077+218697177+218630658+218993527+219640944+220273886+220597849+220575550
4067+220534308+220848281+221573321+222484082+223252776+223471316+222833228
4057+221538072+220270908+219678398+219960327+220780028+221467670+221610887
4047+221519902+221759043+222291461+222562420+222384388+222224470+222547661
4037+223205389+223661430+223763329+224066992+225245640+227284176+229338828
4027+230326834+229795094+228365071+227198845+227033197+227846658+229133426
4017+230178603+230372185+229674723+228718477+228369426+229078877+230373429
4007+231152396+230840893+230016687+229657588+230152949+231190246+232181042
3997+232652294+232538444+232202737+232056674+232177781+232341412+232481161
3987+232966474+234004733+234916493+234783907+233829717+233237735+233574723
3977+234272789+234675882+234827374+235095392+235549077+235903859+235895999
3967+235627622+235550905+236119005+237375558+238747072+239310648+238519862
3957+236783519+235245640+234900245+235952924+237977058+240256432+241889066
3947+242381900+242362712+242794022+243526639+243473088+242294458+240991386
3937+240810508+242349989+245265489+248188529+249352400+248279647+246616590
3927+246360333+247652285+248815514+248769522+248538203+249444667+250965977
3917+251143481+248850574+245039071+241617843+239854319+240021437+242154144
3907+246688783+253816278+262101800+268646003+271458228+270353921+265740832
3897+259164943+253899761+252712650+255289296+257931462+257498946+256138043
3887+257725628+261715634+264276503+264832049+265740379+265898356+262713310
3878+258648076+258144328+261621651+266565546+271462450+275286676+275987193
3868+274081582+272828988+273005135+271896324+267827999+263056198+261085426
3858+264296502+274106407+289318943+300026528+294855348+280561886+268458263
3848+262598649+262847159+267232134+273216021+279330535+285435228+290534611
3838+292046346+289430474+285516374+282245715+279172672+276129637+274419739
3828+274726097+276439105+280040382+287174267+295921296+299527907+296382068
3818+292084497+288643967+283547506+276900348+272073357+271559128+275605588
3808+281660839+286168787+289683489+295179066+300812771+301219351+297253773
3798+293697660+290816842+286667823+282122026+279560026+279566284+281167741
3788+283591387+286446834+289126529+291616789+295038620+299628166+303162434
3778+303580436+302165380+301940733+304923451+311174245+318538167+324209476
3768+327751679+330416220+332674557+335223702+339784824+346724844+353766650
3758+358892648+363449849+370680752+382981105+399481577+413547207+419247469
3748+421134890+425944295+432782378+435118940+433121100+434001552+441939455
3738+456191882+472030027+483289897+487482439+486938749+485448144+486041559
3728+490224827+497614931+506520596+515373747+523211522+529780851+536052210
3718+543106645+551127146+561143300+575288022+592214715+604906078+610015376
3708+612732092+618422703+627941763+638005756+643839396+644724862+644785180
3698+646739478+649957585+653807899+659362493+667273781+674506719+674894261
3688+667101197+657764448+652636904+652675432+656488499+662798650+671990033
3678+684377130+695382950+698196475+696043958+697018166+700254897+697595332
3668+687862069+679384397+677879316+682693735+689255185+693861055+697277156
3658+702095119+707908477+712467751+716355010+721719452+728525491+733463109
3648+733948517+731742769+729265817+727168339+725317637+724281000+725170311
3638+727559501+729036534+728287537+727859356+732036592+741876467+751801692
3628+753787883+749162938+744940991+743841623+745471260+748979194+752380593
3618+753118582+751769422+751261320+752449506+753908670+755168182+757194786
3608+759308549+759065317+755895539+751534258+747258854+743607514+742091350
3598+744215216+748809098+752657678+754656686+757270711+762129765+766151759
3588+764623983+758805197+754532809+753220669+751528980+747933886+745049412
3578+745246274+747621515+750133753+752493010+755647407+759788453+763917435
3568+765907848+763747414+759020154+756144577+757313687+761079933+765366345
3558+769102884+770578183+767996127+762632590+758360277+757786051+760665097
3548+764914640+767793987+766949387+762158718+756517869+754241247+755975687
3538+757721134+756058548+752469939+750722757+752753960+757869290+763313653
3528+765771982+764202663+760271448+755804836+751872490+749517380+749465507
3518+751268106+752990934+752507486+750355421+750410009+755592367+763233883
3508+767762169+767439318+764581233+761472753+759180072+758261959+758406797
3498+758003497+755783047+752650063+750487065+749847998+750075999+750915246
3488+752414748+753733597+754105306+754787199+758048811+763342832+766878588
3478+766598337+763955963+760770276+758105962+756931423+757737118+759684178
3468+760849217+759590158+756294768+753671319+753981654+756146989+756918304
3458+754913791+752092424+751081422+752617114+755724915+759214905+762751793
3448+766420776+769127238+769181448+767118880+765699676+766669738+768740751
3438+769225254+767430874+765271420+764541272+764849421+764384898+762503736
3428+760467481+759916628+761629956+764627527+766307002+764947362+762167238
3418+760952210+761973240+763618259+764346370+763772823+762470335+761627619
3408+762237055+764393946+767589962+770734105+772189800+771668579+771126020
3398+771632162+771042329+767156880+761892188+759524261+761961554+767616125
3388+773108441+775245502+773200652+769457478+767369425+767740681+768545698
3378+767885821+766519245+766292148+766722968+765846776+763988685+763611925
3368+765487810+767825051+769447827+770782736+771435752+770273503+768291458
3358+768135838+770435682+772870261+773538884+773523729+774572204+776246024
3348+777182911+777335968+777365900+777313499+776922866+776485335+776471613
3338+776767246+776565181+775347741+774159706+774771404+776961469+778051337
3328+776692979+775027227+775172593+775987788+775402705+774025649+774050229
3318+776149290+778928660+780373800+779213511+776074269+773442376+773275823
3308+774887742+776258691+776848826+777375777+777721776+777129530+775470111
3298+772910146+769880758+767925782+768440745+770655390+772830300+774589772
3288+776009201+776257560+775534274+776041773+778692817+781395283+781903838
3278+780251430+777862015+776081583+775575214+775957026+776555304+778037162
3268+781669503+786323929+788498613+786762138+783835215+782804609+783911592
3258+785900799+787764997+788254854+786205480+782341293+778945021+777544441
3248+778341768+781199551+785796525+791046815+795324783+797203306+795873374
3238+791934317+787984856+786974607+789526127+793894044+797885501+799683727
3228+797932021+792973895+787430535+783831973+782300126+781647788+781260472
3218+780911911+780564480+780908141+782918761+786073157+787737854+785989768
3208+782449262+780276387+780239141+780618012+780428388+780760136+782544413
3198+784611053+784978464+783574868+782546901+783773766+786757463+789099379
3188+788860369+786422322+784150677+784172618+786142674+787292181+785197795
3178+780810803+777909289+778658738+781092789+782053652+781133126+779910182
3168+778917728+777598049+776125539+775591651+776852068+779977437+784082669
3158+787142140+787282907+785054841+782919741+782068053+781507399+780634449
3148+780631810+782294923+784241531+784414794+782598850+780521880+779888242
3138+780893891+782354035+783066841+782804307+782096101+781480934+781163813
3128+781289425+781824444+782298467+782197887+781521724+780832291+780478225
3118+779815860+777764224+774513771+771813115+771218457+773032516+776223179
3108+778525586+778390625+777267205+777654295+779292301+779690248+777790839
3098+774739435+771861068+769782440+768927133+769473160+770966102+772807530
3088+774803825+776882302+778584019+779134042+777899939+774894829+771279303
3078+768787045+768097763+768569448+770041279+773286680+777566910+779816086
3068+778059103+774072546+771107321+770557977+771695269+773089818+773799533
3058+773490781+772004097+769774146+767932115+767272615+767184475+766378252
3048+764565173+762656566+761715985+761979498+762561264+762155023+760391556
3038+758392246+757708317+758863629+760889027+762257111+762323988+761623246
3028+760836400+760104066+759169366+757628396+755407794+753319742+752443474
3018+752791583+753532211+754192616+754604285+754522781+754301716+754535598
3008+754777774+754217648+753155602+752238393+750998108+748936972+746869729
2998+746005827+746555247+747316458+746540469+743950044+741394452+740750635
2988+742135985+744100763+744732592+743343774+741451151+740961446+741679228
2978+741916051+741013394+739933027+739919530+741222396+742626218+742667687
2968+741584680+740745357+740047555+737923236+734333948+731844706+732691116
2958+735714322+737518202+736637486+734714026+733484899+732966316+732629441
2948+732388547+731984191+730461920+727344392+723764755+721525756+721165659
2938+721572653+721721262+721893243+722670363+723614488+723670131+722388905
2928+720048120+717203682+714609562+712824531+711659643+710618029+709853953
2918+709799742+710064010+709777274+708666747+707043443+705268440+703628775
2908+702248552+701170371+700727261+701191482+702002380+702240409+701723787
2898+700731408+699191795+697238175+695812714+695574006+695714170+694830363
2888+692909390+691492298+691674156+692819668+693558335+693271147+692110631
2878+690302453+688127920+685994704+684065513+682482019+681809249+682225819
2868+682568048+681490168+679421191+678005682+677980424+678758599+679422699
2858+679183237+677557822+674868853+672145050+670371479+669931008+670265018
2848+670124930+668835712+666968422+665342856+664226599+663637369+663370765
2838+662680050+660900674+658491881+656755029+656373518+656584706+656005052
2828+654145302+651714418+649566122+648013541+647154087+647058785+647277588
2818+646787053+645090162+643012438+641719676+641256662+640660948+639190776
2808+636940015+634619437+633114281+632848732+633317175+633581744+633237857
2798+632551742+631861103+631185844+630353684+629340420+628298995+627179458
2788+625687459+623797512+621889207+620199629+618508354+616609737+614749422
2778+613391140+612788225+612799346+612869579+612179053+610163645+607141457
2768+604299281+602740706+602426827+602243687+601296131+599901620+598906942
2758+598416294+597891415+597257022+596987138+597057069+596682043+595263782
2748+592976529+590426329+588290286+587046004+586484256+585827244+584706011
2738+583417396+581998230+580031756+577692441+575944544+575282668+575016817
2728+574150993+572564860+571007227+570051679+569383131+568281426+566650545
2718+565232133+564695606+564768138+564590276+563851495+563032605+562429088
2708+561633797+560297945+558771942+557594424+556777419+555883697+554658077
2698+553389743+552498208+551893333+551138342+550140648+549160520+548304874
2688+547503740+546678592+545612474+544099175+542380531+540982251+540064213
2678+539262250+538183277+536880525+535751601+535002755+534426720+533752969
2668+532933401+532071195+531371470+531030335+530819524+530079726+528540113
2658+526846690+525903281+525870295+526000544+525457306+524241336+523067853
2648+522302608+521538343+520427628+519286301+518508993+518007299+517537536
2638+517009039+516283905+515211190+513977238+512952777+512150286+511209969
2628+509960636+508750509+508069521+507898708+507679339+507035597+506234614
2618+505753730+505690924+505743325+505507860+504732587+503476053+502090100
2608+500996613+500398449+500067982+499471853+498334334+497025060+496200666
2598+496143628+496518315+496667036+496156634+495099187+493944251+493070887
2588+492577826+492211621+491518532+490339054+489010064+487855241+486834588
2578+485958773+485563729+485792861+486217499+486346729+486171732+485843716
2568+485172944+483954788+482560164+481633192+481302009+481150725+480848570
2558+480395395+479866105+479256405+478538246+477745594+477071731+476841618
2548+477183960+477716642+477781672+477079648+475916380+474792847+473967850
2538+473419599+472951419+472304624+471391638+470394885+469531247+468917400
2528+468699162+468960414+469437189+469659234+469423316+468900586+468368734
2518+468021416+467884872+467772944+467445494+466874209+466247883+465738311
2508+465379909+465140221+464992594+464921155+464925339+465007899+465069310
2498+464841196+464090389+462929535+461805286+461156191+461131988+461502113
2488+461717825+461291302+460313136+459422128+459107118+459179763+459092981
2478+458663518+458241406+458197751+458492592+458751394+458583748+457876106
2468+456953394+456342111+456201570+456138048+455724117+455023186+454425964
2458+454139605+454077138+454178774+454541849+455103371+455449444+455199427
2448+454482889+453811928+453507662+453423896+453214744+452717876+452038207
2438+451404568+451059927+451184182+451751471+452435249+452766356+452528289
2428+452020715+451768435+451912934+452073040+451843493+451205293+450422556
2418+449789030+449495848+449530643+449695801+449836832+449980200+450189767
2408+450420746+450551674+450443516+450023855+449453851+449080145+449057940
2398+449184344+449216878+449123008+448943525+448693545+448443527+448244667
2388+447977534+447429396+446447799+444939966+442856776+440255796+437298977
2378+434120416+430712759+427008038+423076559+419139802+415416683+412132075
2368+409553412+407747798+406445310+405362491+404565052+404568595+406215913
2358+410045267+415426975+420949940+426141723+431797953+437974952+443009720
2348+445011895+443692631+440932637+439049326+438157526+436748502+434374354
2338+431986031+430190332+428464450+426195632+423757811+422068836+421467769
2328+421545051+421773543+421943903+422287187+423270179+424982640+426880164
2318+428363191+429340039+430122851+431089708+432511362+434432636+436622136
2308+438735711+440538648+441945072+442938054+443584699+444085752+444638829
2298+445277934+445965746+446720171+447525716+448305023+449076148+449903634
2288+450638003+450981853+450900386+450730516+450802068+451140828+451600525
2278+452087026+452522107+452753840+452691260+452441733+452194392+452059657
2268+452095697+452371237+452888839+453497936+453994013+454313697+454543621
2258+454744442+454916008+455138883+455516359+455948688+456243114+456474659
2248+456926364+457631442+458271942+458580807+458612097+458610778+458812616
2238+459319060+459998804+460581738+460936257+461163881+461426829+461780706
2228+462136280+462347694+462423054+462601632+463081084+463762524+464417576
2218+464992066+465567686+466093583+466321848+466089888+465631586+465454100
2208+465833801+466581516+467377523+468117397+468793635+469288920+469508213
2198+469575845+469715292+470013187+470420822+470893827+471400195+471863361
2188+472206419+472414741+472518827+472580050+472714106+473037711+473536427
2178+474043436+474436595+474793149+475238747+475702516+475998978+476135937
2168+476320321+476647810+477010697+477358316+477866720+478729077+479831310
2158+480753419+481145522+481019458+480644130+480347630+480480782+481229025
2148+482273390+482968931+483079011+483044403+483367104+484036519+484703860
2138+485150174+485391936+485491875+485481282+485433065+485459190+485609796
2128+485853593+486150093+486475697+486811328+487148165+487487001+487814941
2118+488098096+488296353+488374879+488321121+488182955+488097229+488230079
2108+488612343+489048705+489260420+489148832+488919059+488926486+489329296
2098+489876831+490142908+489998409+489738552+489708356+489914040+490068227
2088+489976506+489766449+489665078+489671524+489595674+489335252+488979754
2078+488720613+488741913+489075659+489488573+489647774+489493172+489344903
2068+489509646+489857529+489988721+489768560+489417435+489108570+488843473
2058+488661276+488580450+488428373+488085994+487722353+487474673+487163433
2048+486632372+486105948+485910971+486023991+486136635+486062218+485851482
2038+485555435+485135057+484647274+484279939+484111426+483993994+483737040
2028+483332195+482978921+482867898+482942504+483003387+483022274+483080028
2018+483013038+482511043+481623503+480789082+480301902+480073486+479927290
2008+479844203+479858453+479881373+479716253+479241288+478546087+477813716
1998+477161454+476806822+477166354+478303836+479432873+479576090+478638788
1988+477259093+475946916+474900854+474225521+473883028+473634594+473218967
1978+472578391+471946713+471646141+471741217+472101277+472750900+473671426
1968+474285499+473843105+472454815+471030635+470136461+469603289+469212543
1958+469067064+469158634+469148757+468787528+468212511+467740599+467588334
1948+467885211+468846451+470576103+472377872+472797496+471266252+469064236
1938+467696491+467282560+467046265+466505553+465748904+465043110+464533839
1928+464342066+464822271+466154428+467607447+468252207+468472857+469168548
1918+469674351+468480887+465909198+463879277+463443443+463998593+464328268
1908+463830570+462837513+461968333+461452879+461177603+461054404+461156040
1898+461657583+462525745+463267239+463598611+464125638+465266060+466005669
1888+465169513+463313194+461767059+460919217+460479839+460317433+460412660
1878+460652989+460923288+461252850+462211677+464966996+469942351+475023714
1868+476416340+473038202+467904249+464143922+462495624+462154451+462259027
1858+462415024+462509082+462498300+462396740+462454419+463161872+464972085
1848+468240860+472940260+477369889+478181579+474569785+470024232+467601227
1838+467304350+467604431+467819691+469043012+472592151+477504436+480598477
1828+480546868+479297723+478016421+475848447+472920393+470975633+470894166
1818+471829244+472688886+473535032+475180578+477645844+479571076+479683154
1808+478449880+477529430+478343947+481417706+485868221+489364280+490050735
1798+488939982+489082558+492592114+498576058+502652074+500799185+495133945
1788+490915806+490411322+492434119+495039397+497331437+498846357+499226963
1778+499425446+501677074+507629012+516344789+523321715+524190292+520189146
1768+515097114+511157115+510060348+512735633+517243713+520065268+520789045
1758+521417142+522216429+523056355+526013851+532877230+541481268+546734688
1748+546691674+544317790+542936323+543840864+546784902+550372381+552870972
1738+555018325+560275741+569799023+577693120+577098914+571371773+566393628
1728+563842561+564042175+567036767+571885153+578185087+587599383+601619963
1718+617222868+626252599+625238506+620067193+616676954+617240812+622132024
1708+630910230+641561568+651016917+659154321+669597300+683989061+697489852
1698+704784540+706266248+702914310+697434736+695454426+699633925+708432639
1688+720085442+735418387+753298329+764065968+761554182+755079062+753128609
1678+757246810+765780201+775283201+783124369+790582293+798984718+804734743
1668+804110151+801395622+802866247+808783125+814178179+815487755+815403234
1658+818917804+829307476+847428161+867178634+873174981+866882549+863872689
1648+866692322+867934568+862225635+854406332+850398513+851292122+856453369
1638+864956374+872853940+872152594+861749426+850843659+845040178+843327981
1628+842839180+842746818+843599109+843296842+838510621+831197008+826614435
1618+825823819+824154448+817559672+808970412+802595269+798928924+796211153
1608+793015741+789561640+786700237+784501425+782352150+779904980+777653918
1598+776525070+776749452+777374269+777278138+776362664+775345102+774884274
1588+775124640+775659207+775944435+775961852+776539546+779145352+785070826
1578+793863131+801403841+802523491+799660806+799632155+804107136+808885138
1568+809875858+808916805+809705988+813964955+823676127+841731217+864654634
1558+874117674+864100690+850783190+842099457+838233159+837858359+839285253
1548+842212930+848459521+859469185+874423335+890914684+903343401+902345593
1538+890541015+881532998+880174565+882407607+882607862+881063575+882351436
1528+888119178+895899049+902962117+909200489+914447463+916923962+917177825
1518+917541014+917206174+914356533+910856063+910465731+915055617+924430819
1508+935894677+940819176+932526378+920068708+913430881+914306168+919883608
1498+924790012+924248885+919674607+917396930+921152469+929096479+934869650
1488+933165445+925829439+918279606+913740010+912497990+913423417+915788781
1478+919979589+926487582+934526743+940897287+940559884+932773756+924155468
1468+920741931+922825610+925676684+924726753+922495973+925179439+934938940
1458+946690288+949482702+940984447+930944241+925121006+923658223+925035430
1448+926656095+925915392+922853507+919894390+919038404+920961789+925519782
1438+931116147+933971895+931933906+928260248+926437669+926192929+925812851
1428+925596386+927289130+930642425+933420288+935163172+937938697+941694689
1418+942200680+937557790+931556919+927803038+926798822+927371389+928663397
1408+930748283+933320236+934780229+934301833+933755731+935119215+937813462
1398+940226854+941862523+942301034+940712639+938084289+936704368+936909298
1388+936356787+932854205+927804848+925053676+926587559+930909633+935233895
1378+938802600+942934296+947684326+950393652+949073144+945417582+942419860
1368+941396644+942189295+944443750+947596639+950020511+949688311+946415163
1358+942101910+938502066+935843105+933503225+931240477+929298016+927724097
1348+926190441+924581161+923487749+923740632+925312967+926751849+926155758
1338+923215942+919445097+915970865+912606487+909336129+907046313+906278090
1328+906580810+907370220+908301226+908942630+909064322+908788971+907903957
1318+905925834+903188082+900791655+899308213+898470624+898138575+898687769
1308+900255354+902161247+903194039+902337752+899603243+896305063+893919040
1298+892589484+891307052+889326666+886817519+884389425+882455333+880858569
1288+879087939+876879251+874190131+870938622+867592943+865322127+864562574
1278+864204890+863106351+861644699+860979544+861490361+862563566+863574191
1268+864535130+865539723+866225085+866490182+867074812+868493865+870044863
1258+870805094+870955813+871300982+872234023+873790676+875902856+878144945
1248+879944000+881339076+882993067+885283034+887780946+889811245+891328841
1238+892884815+894729561+896537739+898169261+899931824+901805824+903379969
1228+904792462+906533988+908300924+909363046+909878311+910770864+912699452
1218+915656308+918786125+920649644+920765304+920491008+921462729+924055416
1208+927915003+932632009+937291713+940641841+942563417+944417135+947114850
1198+949659434+950428260+949549730+949134518+951015605+954779212+958278174
1188+959982907+960419834+961023616+962287727+963697958+964966518+966467904
1178+968567870+971150679+973746458+975907269+977659351+979453430+981329541
1168+982557688+982724089+982563342+982902555+983510936+983965732+984826543
1158+986864230+989748102+992334154+993959041+994923900+995732159+996181527
1148+995705393+994814197+995269597+998013681+1001738685+1004537583+1006288535
1138+1007863735+1008778154+1007837271+1006009414+1006256265+1009940478
1130+1015244452+1019524380+1021557694+1021217426+1019146564+1017129309
1121+1016881327+1018552433+1021371614+1024575546+1027058530+1027913460
1113+1027893027+1028594524+1030051803+1030905677+1031043654+1031928969
1104+1033992141+1035717910+1035609715+1033693266+1030762045+1027470576
1095+1025002823+1025302150+1029135123+1034316425+1037437044+1037977718
1087+1038928855+1042226582+1045626774+1045994788+1044110836+1042672557
1078+1041696388+1040462209+1041227718+1046012808+1051790729+1053816353
1070+1052469531+1052216573+1055345259+1060174230+1063920345+1065182119
1061+1064533400+1063694530+1063414957+1062683754+1061008576+1060264556
1053+1062288370+1065697911+1067580733+1067351525+1066989090+1068383186
1044+1071360249+1073741823+1073613346+1071714465+1069855394+1067815595
1035+1064805886+1062510038+1062990922+1064885355+1065019713+1063212967
1027+1062445498+1064190116+1065838829+1063733963+1058062653+1052740509
1018+1050722123+1051855118+1054761156+1058361830+1061624195+1063717149
1010+1064666024+1064800985+1063801443+1061437436+1058609887+1056609370
1001+1055888346+1055942481+1056075557+1055960350+1055469514+1054426392
993+1052791854+1050494574+1047328868+1043875973+1041797797+1041492363
984+1040516873+1036897199+1032539688+1030411222+1030283046+1029839861
975+1028191676+1026197041+1024577959+1022897730+1020250230+1016978741
967+1014721647+1014244759+1014341569+1012974239+1008676970+1001793725+994999373
957+990877101+988892569+986516272+982790137+978671108+974802095+971166136
947+968046648+965888174+964710996+964079695+963277392+961775025+959820954
937+958237912+957445185+956980360+956207463+955261679+954707283+954382999
927+953560414+951997655+950160373+948835567+948676177+949571219+950536153
917+950591646+949508111+947703401+945963609+945070754+944934209+944524350
907+943396557+942644469+943554363+945671520+946907055+945800223+943019797
897+940106068+937784434+936194456+935715382+936445680+937328356+937044259
887+935797942+935154727+935916240+936936969+936511200+934650621+933145616
877+933058381+933110857+931448799+928409384+926159981+925988150+927111419
867+927976980+927929631+927413159+927055474+926904152+926525356+925794605
857+925220379+925109545+925115426+925100724+925642680+927004883+928292216
847+928695893+928896073+929913560+931354704+931985327+931368351+930117962
837+929036614+928341451+927500545+926204088+925478389+926652400+929156345
827+930789073+930422944+929156269+928639119+929258885+930062092+930083807
817+929600208+930093458+932894995+937630549+941925782+943146992+940902565
807+937227022+934017812+931255405+928405010+926550614+927531533+931303660
797+935434753+937604461+937625648+936734602+936278298+936841290+937941185
787+938574900+938036789+936595419+935707691+936903115+939788118+941902258
777+941314536+938445518+935291121+933924244+935103834+937613207+939510128
767+940021548+939612442+938766484+937866542+937699537+938621194+939301126
757+937926257+934945802+932687275+932077387+932004704+931920259+932479707
747+933727457+934877341+935646242+936315770+936791829+936587879+935608016
737+934626419+934904408+936865869+939545338+942042346+944454230+946372564
727+946105280+943177075+940069877+939435937+940950292+942371606+942392868
717+940898946+938242021+936069297+936374957+938509983+939713700+938916676
707+937066200+934237896+929768495+925181324+923011691+922972937+922157063
697+918752271+913862455+909510448+906316015+903604653+900685797+897600162
687+895264957+894260364+893640900+892227426+890495173+889640017+889614382
677+889050184+886785928+883280708+879695641+876138171+872804479+872486830
667+877216352+882372019+883262160+880006278+874921032+870354142+867795083
657+866971367+866058080+863750545+860329468+857060166+855497708+856267590
647+858126133+859315978+859116401+857395307+854664945+852552765+851586096
637+849224954+843671415+838507454+838777980+843201841+845193084+841826971
627+837141708+835772191+836903679+836178583+832377579+829399084+830677671
617+834231523+835134481+831760980+826759952+822694831+820286642+819468958
607+818928736+816678504+813930273+815487453+822921023+829952575
##END=
