##TITLE=<SNM>
##JCAMP-DX=4.24
##DATA TYPE=INFRARED SPECTRUM
##DATE=2/5/2025
##SAMPLING PROCEDURE=Instrument type and / or accessory
##ORIGIN=Admin
##XUNITS=1/CM
##YUNITS=ABSORBANCE
##RESOLUTION=4
##FIRSTX=4497.3318
##LASTX=599.83466
##DELTAX=-1.4281778
##MAXY=1.8019296
##MINY=0.26982683
##XFACTOR=1
##YFACTOR=1.6781777e-09
##NPOINTS=2730
##FIRSTY=0.2868692
##XYDATA=(X++(Y..Y))
4497+170940894+171997113+172884801+172666262+171803614+171383762+171636912
4487+171885428+171791218+171876513+172665321+173925108+174874366+174901715
4477+174198842+173582880+173449760+173389558+173099735+172849479+172766493
4467+172525435+171968788+171368897+170996674+170919601+171193370+171840889
4457+172568731+172816927+172356035+171609457+171123045+171040006+171368986
4447+172286758+173697814+174840145+174890438+173898080+172658058+171693563
4437+170909568+170248285+169939816+169944433+169851751+169425115+168714250
4427+167896833+167471032+168047143+169495457+170785985+170971439+170014243
4417+168666124+167840520+167970620+168789103+169690910+170101119+169641469
4407+168560086+167902871+168465787+169674394+170215574+169578106+168361508
4397+167390975+167122463+167654621+168740622+169709627+169755853+168709420
4387+167400370+166787995+166776789+166418862+165342203+164296497+164031306
4377+164384829+164856980+165390453+166077095+166664785+166857680+166720334
4367+166515771+166398812+166211369+165430321+163749847+161831335+160785612
4357+160888381+161546574+162326697+163106519+163503107+163223017+162805935
4347+163024900+163625927+163580393+162675230+161950283+162251294+163128451
4337+163581903+163306518+162763740+162442165+162422009+162498140+162603769
4327+162965302+163600265+164047324+164037432+163940931+164085186+164174441
4317+163853931+163394015+163310265+163519907+163340615+162432149+161378043
4307+161017949+161526116+162471094+163384213+163961105+164096036+163950752
4297+163750895+163552850+163337489+163129783+163014973+163214457+163915412
4287+164832864+165328528+165153072+164659876+164201612+163775562+163340917
4277+163059086+163053740+163173399+163188351+163180467+163505860+164203192
4267+164720416+164659237+164465560+164689853+164952185+164579802+163849598
4257+163564677+163845034+164195734+164336152+164399586+164654762+165195799
4247+165683241+165646907+165200843+164948083+165123308+165385250+165408407
4237+165192425+164875840+164559202+164265899+163966593+163697459+163684708
4227+164273783+165556639+167000567+167769787+167698503+167544446+167911075
4217+168453676+168578751+168287383+167891274+167466734+166975616+166505968
4207+166152534+165950173+165951452+166124386+166245163+166105154+165804054
4197+165737494+166185512+166880252+167233846+167109020+167022055+167385843
4187+167964245+168289088+168183459+167660500+166819783+166121669+166253404
4177+167357003+168720874+169527902+169606857+169280257+168863477+168495853
4167+168238582+168209742+168517785+168984893+169239607+169254187+169358573
4157+169571802+169568410+169398281+169454381+169660933+169413749+168489318
4147+167463466+167032231+167293373+167762115+167797189+167110227+166129962
4137+165679619+166131543+167136404+168156146+168853816+169086828+169002900
4127+168967667+169064328+168937069+168296191+167339937+166659049+166780607
4117+167625142+168462076+168658931+168331798+167986710+167813971+167692039
4107+167662169+167955153+168567918+169188231+169544986+169527103+169087983
4097+168382925+167855366+167863180+168306083+168724461+168698711+168254778
4087+167886018+167969608+168324410+168617429+168849465+169102420+169193345
4077+168914657+168362396+167863251+167727699+168021268+168456677+168630890
4067+168428050+168093173+167924359+167956307+167972823+167849293+167745333
4057+167790440+167810081+167730469+167963180+168815421+169765265+170030439
4047+169692508+169472974+169540138+169344738+168606934+167757107+167307722
4037+167249136+167246650+167246650+167580425+168339025+168976564+168928935
4027+168383209+168052488+168415921+169379102+170397619+170842546+170534237
4017+169945801+169677892+169851608+170129426+170113283+169685653+169161308
4007+169049198+169507568+170177091+170693888+171106317+171528620+171711872
3997+171409139+170924769+170778863+170992821+171182999+171137110+170953574
3987+170867568+171119032+171737303+172409098+172755731+172727139+172683364
3977+173109361+174091774+175063746+175361826+174970441+174363838+173838286
3967+173475777+173557662+174421820+175848859+177048320+177467427+177238303
3957+176654804+175811335+175058489+175220129+176807352+179109293+180534947
3947+180355140+179702133+179925893+180548319+179991494+178045403+176208598
3937+175870010+177432353+180469613+183600337+184844461+183532463+181495695
3927+181152791+182888531+184803935+185152308+184513669+184560658+185549998
3917+186003716+184659681+182120607+180063293+179446336+180118451+181938847
3907+185514995+191159380+197474672+201942469+203257486+201650089+197573144
3897+192360901+188685943+188552450+191189517+193143227+192212349+191018500
3887+192826943+196512006+198522260+198668823+198950690+198243501+194937481
3878+191867048+192567293+196612166+201402089+205566673+208122564+207607046
3868+205297557+204316032+204848900+204077514+200742369+197094280+196010517
3858+199199774+207403850+218888303+225444209+219639978+208004060+198953371
3848+195100133+196075425+200158906+205294840+210402201+215328244+219042485
3838+219382121+216264183+212446125+209706715+207621093+205768288+204840536
3828+205059519+205820463+207902924+213108846+219904778+222885228+221080425
3818+218791252+216611882+212014872+206167895+202899275+204132442+209166885
3808+214852044+217935938+219672920+223245677+227407633+228073799+225831793
3798+223963876+222294732+219570150+217122303+216924577+219010679+222377132
3788+226639479+231745969+237182719+242887980+249906661+258366552+266095937
3778+271698464+277281777+285654508+297672079+312514905+327738834+339915079
3768+347699409+352117962+354129849+355373672+358324286+363072157+366528753
3758+367121185+367963446+373134437+384127701+398985906+412499171+421354141
3748+428862891+438898924+450089736+457247219+460587674+466398902+478715476
3738+497200869+517047291+530998948+536453439+537881597+539959441+544154304
3728+550780267+559292422+567079381+571457089+572638151+572574646+572106561
3718+570585170+568373887+568336345+572777096+578470619+578049701+570020797
3708+560174499+553882506+552987998+555947279+559149109+560334647+560070007
3698+559138383+558220292+559468376+565075556+574218644+582182444+584006764
3688+580671602+577027295+574894683+573944839+575001200+579639535+587962062
3678+597441464+602798211+600583128+596092724+595648187+596929444+592999364
3668+583437064+574295575+569026983+566952158+566406041+567131912+569612985
3658+572854524+574713544+575483847+578598162+586403519+596310375+600098882
3648+592911529+581077496+571908303+566736638+563648215+560947253+558853710
3638+558904820+561825138+566485281+571817733+579032577+589095815+597053045
3628+595246520+586817227+580611506+580345409+585714942+594375915+601998997
3618+605256163+605569214+605617944+605466923+604647677+604524929+606010057
3608+607142993+605953158+603902805+603839015+606379865+609269709+610072617
3598+609304303+609557756+612183705+616321634+621085096+626927509+633549814
3588+637848992+636848181+632183812+627496641+624147769+621780102+620373539
3578+620342781+621308004+621890775+621544977+622352431+627310103+635838134
3568+642027979+640706729+634427380+628789761+625630837+623766950+622213629
3558+621287120+621791042+623706429+625547655+625601712+623912075+622632309
3548+623877268+627084425+629014445+627257537+622977255+619008673+616895952
3538+616460436+616698403+616795579+616595687+616089705+615012957+613121651
3528+610614614+608356057+607458175+608230965+609722699+610511187+609683772
3518+607265316+604406798+602724335+602686970+603088957+602534458+600922959
3508+599299526+598688270+599003239+598917571+597303515+594917379+593687267
3498+594498379+596297873+597156898+596107002+593920723+592213966+591884861
3488+592092958+591053894+588443750+586309647+586765869+589302350+591266786
3478+591190246+590187055+589435398+588038957+584713811+580357734+577289698
3468+576720673+577845938+578729754+577785132+574782200+570663344+566863044
3458+564929047+565633571+567744944+568878306+568275930+567294369+566955958
3448+566770521+566105528+565309439+564955258+564801290+564078119+562546392
3438+560885879+560117636+560714187+561958151+562366034+561297952+559656477
3428+558465469+557783214+557472507+557719886+558234605+558016848+556434402
3418+553917740+551564067+550343083+550253543+550129339+548750905+546142501
3408+543505222+542109278+542351863+543372493+543595898+542327924+540737877
3398+540499448+541698732+542843567+542626448+540801525+537818980+534652170
3388+532606043+532486953+533889610+535456108+535931616+535061331+533494123
3378+532057760+531313527+531356787+531647071+531505108+531042315+530987512
3368+531582891+532340799+532807854+532921368+532643088+531884328+530974548
3358+530735160+531711394+533372546+534383906+533879239+532282124+530773732
3348+530090660+529897232+529439944+528696492+528355063+528646235+528815121
3338+528019138+526404158+524961794+524396533+524363892+523986093+523022006
3328+522118832+521923167+522437069+523257807+523988544+524425728+524736080
3318+525260496+525748790+525182073+523053546+520576805+519611866+520254804
3308+520408026+518407717+515323202+513536886+513930419+515519649+517025874
3298+517843948+518006903+517915587+517830700+517635390+517419408+517688915
3288+518569038+519586187+520493517+521405357+522108568+522271167+522241971
3278+522492370+522527212+521621872+520423086+520313479+521082645+520980142
3268+519412152+517817772+517475064+517986622+518174261+517355832+515740958
3258+514247342+513761818+514296960+515085874+515489637+515402264+515023328
3248+514597757+514228802+513865884+513519588+513380005+513602202+513932834
3238+513581957+511813684+508945505+506363953+505143394+505035670+505149006
3228+505054636+504698573+503804492+502183581+500276470+498798161+498141691
3218+498275202+498839716+499285851+499289794+498938348+498231657+496911330
3208+495131656+493613248+492761965+492195426+491329971+489979419+488339897
3198+486870041+486094339+486000360+485846108+485121835+484342120+484228961
3188+484598627+484717327+484274566+483384391+482072731+480411720+478751171
3178+477306178+475867223+474223651+472565092+471265507+470488491+470123513
3168+469932394+469656672+469128314+468395162+467738515+467403336+467158301
3158+466298991+464468775+462365323+461061690+460640062+460131061+458897716
3148+457461816+456678691+456532146+456178924+455111624+453832924+453100162
3138+452876047+452507766+451654033+450463877+449172604+448169590+448024288
3128+448673867+449024176+448163623+446595313+445507200+445253783+445222740
3118+444860746+444242280+443665867+443085476+442273262+441308288+440361995
3108+439245894+437793229+436492757+436090521+436636034+437381759+437535621
3098+436862245+435656284+434323669+433058500+431939522+431214220+431207649
3088+431834603+432401072+432219542+431460853+430995787+431219476+431452471
3078+430840860+429506255+428279588+427523527+426866276+426055661+425403169
3068+425212653+425316506+425310149+424864831+423839761+422401516+420926226
3058+419687092+418790382+418239826+417855278+417389573+416824561+416244170
3048+415565253+414822263+414412888+414509318+414512124+413697105+412282443
3038+411243166+411081384+411339277+411327627+410786731+409754380+408361740
3028+406961250+405992830+405513628+405108658+404366236+403340775+402471521
3018+402051597+401895036+401618604+401105944+400458425+399616625+398421285
3008+397040507+395948025+395402050+395223433+395073265+394693299+393998470
2998+393185013+392607251+392392654+392334512+392172765+391753837+390952988
2988+389693894+388123595+386698776+385964203+386066387+386486132+386460382
2978+385702759+384523152+383300108+382131228+381038497+380220920+379893093
2968+379996130+380244042+380364304+380149068+379426181+378240003+377003285
2958+376224990+376041826+376132076+376100714+375830391+375420874+374912797
2948+374180071+373081302+371712352+370474639+369742624+369441720+369169336
2938+368727641+368215514+367610829+366727651+365711070+365087596+365066392
2928+365161757+364778239+363890799+362910303+362155770+361660941+361264033
2918+360775561+360201918+359748644+359475941+359142431+358568504+357960339
2908+357653148+357639900+357556398+357092220+356267398+355346252+354593353
2898+354060058+353556384+352929501+352326591+351992052+351886139+351740056
2888+351400260+350916441+350394867+349915913+349512506+349146250+348765573
2878+348389763+348065914+347760109+347367001+346848588+346317566+345904463
2868+345545061+345030448+344318145+343632445+343146850+342731508+342203506
2858+341677421+341383371+341251957+341000386+340554216+340071214+339607213
2848+339037655+338328264+337733915+337598167+337866750+337923045+337191065
2838+335869496+334726614+334190584+333988490+333719693+333435234+333387427
2828+333429906+333111670+332346978+331531355+330945032+330477835+329960062
2818+329369335+328736058+328128461+327654977+327341251+327115005+326917705
2808+326702753+326387323+325932202+325423165+324983565+324608323+324151035
2798+323525892+322829323+322171859+321535919+320887476+320228485+319530495
2788+318838792+318312459+317955650+317563111+317049102+316490199+315866654
2778+315162342+314570870+314225462+313928607+313409271+312637866+311786726
2768+311066928+310574656+310180376+309669564+308992672+308237002+307474406
2758+306790588+306284606+305929964+305619861+305348578+305135829+304852293
2748+304344179+303634327+302848041+302077383+301412673+300953184+300684742
2738+300424257+299952230+299211584+298363533+297621804+297067038+296667289
2728+296374465+296093788+295686314+295123877+294539579+294072151+293758230
2718+293547274+293318861+292944560+292408743+291829080+291359148+291072895
2708+290867249+290512820+289930422+289346657+289015811+288879300+288676850
2698+288317946+287942242+287624609+287220207+286590216+285841081+285203418
2688+284768045+284457338+284170623+283863717+283551447+283289861+283095722
2678+282877059+282519362+282035810+281562823+281223347+281032121+280898824
2668+280692112+280337133+279875956+279431437+279106132+278890488+278643233
2658+278211216+277611237+277017598+276541255+276163811+275919397+275903930
2648+276016449+275944668+275530019+274939488+274409958+274033153+273812714
2638+273711063+273612519+273408383+273130867+272896363+272739340+272573544
2628+272282834+271840907+271396033+271187794+271276570+271389924+271133861
2618+270368459+269365179+268597948+268338031+268432845+268530625+268466001
2608+268314288+268168808+268036950+267891949+267714238+267525391+267400068
2598+267379184+267389928+267306462+267073272+266757645+266474589+266259673
2588+266060615+265848362+265652412+265507697+265435046+265413238+265349733
2578+265184470+264982144+264819936+264709672+264699727+264847444+265054866
2568+265141760+265055932+264844177+264532901+264201417+264038818+264167729
2558+264472007+264689960+264669910+264489215+264308662+264162330+263952084
2548+263613354+263195153+262782973+262439217+262227231+262159197+262078129
2538+261751847+261151300+260497956+260020192+259795367+259779153+259850685
2528+259889648+259890412+259933530+260059350+260235357+260376291+260358124
2518+260106091+259685085+259255448+258979104+258939893+259062694+259178268
2508+259229538+259278658+259290166+259128064+258798853+258490490+258330874
2498+258263516+258193813+258135688+258146521+258176373+258069697+257735282
2488+257270269+256878529+256662459+256524207+256295581+255934563+255557421
2478+255327658+255332684+255484646+255547405+255365911+255027962+254703190
2468+254450306+254291027+254285203+254399178+254451744+254287511+253919550
2458+253504262+253223798+253126960+253079739+252950491+252777592+252657827
2448+252583560+252498567+252417285+252395815+252429379+252423323+252265750
2438+251934958+251539808+251250305+251169343+251246522+251335351+251350056
2428+251313402+251240946+251093442+250881918+250703229+250626050+250610866
2418+250576964+250532266+250600069+250861477+251191914+251370727+251362682
2408+251361972+251523239+251748722+251801359+251596796+251338140+251338211
2398+251709297+252258913+252780220+253463612+254916046+257759345+262374895
2388+269078660+278343661+290764461+306906375+327122144+351279820+378609563
2378+407972219+438424446+469452340+500431823+529938254+556087964+577845405
2368+595469854+609276457+618779657+623362051+622749303+617077943+607060877
2358+593550595+576559921+554893298+527924165+499270011+476319396+464935475
2348+467111667+481545083+502899435+522483384+534732013+540645319+543120638
2338+543742514+543290767+542450033+541633024+540569809+538454210+534688291
2328+529403397+523061111+515665093+506856722+496867075+486571978+476336764
2318+465767685+454771189+443891723+433496253+423302452+412777593+401666623
2308+390136371+378609989+367525054+357186697+347705767+338976316+330781297
2298+323000305+315663885+308819702+302466477+296619447+291319244+286543706
2288+282182745+278140163+274443380+271237323+268659695+266709040+265233502
2278+264058015+263083042+262214018+261280424+260157077+258929895+257823862
2268+256992789+256440066+256067825+255733037+255324977+254835866+254328996
2258+253845567+253369242+252868464+252361949+251916346+251540412+251143557
2248+250674939+250219303+249878300+249652125+249486560+249337955+249175782
2238+249000521+248841492+248700558+248553516+248420538+248371702+248445152
2228+248591253+248703595+248720199+248697468+248742753+248879886+249049802
2218+249228419+249439126+249645447+249745411+249712718+249673169+249802719
2208+250169170+250680658+251184260+251609014+251980615+252313752+252576332
2198+252760224+252916021+253126658+253467732+253936989+254430682+254860817
2188+255248721+255637868+255989615+256216306+256275975+256245253+256301725
2178+256554556+256901598+257141874+257185116+257072561+256859634+256569847
2168+256242713+255957792+255777896+255683597+255598675+255476459+255333394
2158+255203862+255103454+255072749+255215618+255594430+256116342+256652496
2148+257210671+257902214+258896650+260475509+262895936+266135006+269941894
2138+274111789+278594840+283432037+288652379+294198611+300024970+306233212
2128+312937350+320077820+327519691+335177615+342948804+350687602+358268133
2118+365563317+372358060+378277758+382884234+386010838+387880229+388756410
2108+388702885+387706229+385781714+383022397+379673063+375994837+372051722
2098+367772931+363145358+358295553+353445356+348705087+343914986+338825012
2088+333359653+327633915+321818922+315985140+310053188+304041819+298267529
2078+293071144+288505958+284456308+280843949+277629564+274820948+272531190
2068+270890673+269840581+269065039+268239328+267327275+266471339+265709240
2058+265029223+264495093+264092005+263709624+263377482+263237064+263308099
2048+263508666+263807191+264263928+264993421+266016644+267184956+268440570
2038+269992933+272042771+274575540+277499783+280691704+283928287+287007316
2028+289850827+292446889+294823435+296989060+298850513+300352370+301559822
2018+302371645+302428864+301562699+300061872+298352132+296642267+294879730
2008+292879563+290534503+287966341+285428102+283076454+280893070+278784078
1998+276760984+275097701+274184972+274000104+273838020+272938255+271326312
1988+269651024+268408906+267671919+267273182+266972757+266613924+266245483
1978+266008031+265944615+265979493+266007143+266047118+266352533+267131343
1968+268061474+268433129+267993529+267274762+266879506+266867803+267000230
1958+267197068+267513475+267910312+268274384+268559412+268817233+269162285
1948+269778478+270925799+272675781+274386498+274842792+273613389+271799316
1938+270739155+270703833+271180442+271720734+272199776+272646906+273110213
1928+273710139+274778647+276537615+278502886+279927989+280947145+282113007
1918+282935858+282454205+281153804+280604952+281539417+283343705+284937819
1908+285720517+285868448+285940779+286290608+286897194+287618927+288472643
1898+289627050+290998326+292077578+292701851+293532339+294851476+295611230
1888+294866961+293310141+292107217+291456306+291010580+290614773+290257005
1878+289952621+289771730+289826889+290550397+292766511+296639035+300338802
1868+300934572+297850376+293620404+290646970+289391338+289139466+289147954
1858+289063689+288879122+288759180+288851099+289291001+290251305+291909776
1848+294588131+298454706+302183829+302873507+299759903+295853388+293834770
1838+293711116+294135639+294548263+295949428+299389882+303805521+306379935
1828+306211582+305173122+304233543+302589687+300275226+298630234+298313027
1818+298735223+299232930+299994069+301628939+303980623+305781252+305998371
1808+305162041+304688024+305598089+308125868+311556785+314288151+315079942
1798+314587705+314921676+317722620+322469425+325791766+324451265+320104103
1788+316968726+316809110+318608888+320907473+323154308+324902656+325586368
1778+325896862+327871847+333000997+340346332+345955430+346283931+342582655
1768+338087846+334687900+333735818+335870099+339402384+341513685+342037177
1758+342679404+343552104+344382006+346854591+352570952+359853598+364489943
1748+364699745+362698832+361195093+361466766+363468993+365930603+367329459
1738+368488501+372371805+379601140+384980760+383195225+377367623+372128297
1728+368631211+367161888+367775239+369668108+372733764+378721620+388908780
1718+400311347+405565413+401787525+394297705+388390083+386145591+387989339
1708+393309254+399985013+405428635+409996005+416654112+425678110+432214037
1698+433140865+430307600+424575257+417673784+413737808+414490388+418424304
1688+424387476+433593323+445495444+452401072+448653054+440982699+436518294
1678+437158851+441845916+447490070+451585058+455326007+460148393+463294319
1668+461767529+458988890+460020104+465024801+469767628+471146097+471486674
1658+475162130+484916509+501324875+519083047+524926276+520207530+519005796
1648+523992451+528087723+525088484+519071432+516250528+518285466+525072644
1638+536176687+548398536+554368456+551751742+548140395+549526820+556141347
1628+565262414+574598645+584019515+593277253+600704455+606685244+614625958
1618+626239038+637722550+643471623+644880885+646816446+650788792+655473690
1608+659129504+661184759+662402937+663727526+665329080+667017510+668988162
1598+671684081+675322918+679710961+684311469+688600063+692352982+695610361
1588+698655346+701798643+704887172+707425748+709440655+712049130+717073220
1578+725492709+734773214+739552162+740312378+743399842+751669519+761998358
1568+769764894+775371755+782163621+791863942+805667456+825993116+851917538
1558+870206839+872444653+868862431+866024868+864195860+862777221+861338550
1548+860598294+862796827+869170581+878327697+887317740+890473895+880648907
1538+863529197+851617628+847114367+844786906+839867380+834039743+831654247
1528+833382030+836808686+840358729+844538213+848667546+850181799+849005389
1518+847143207+844330791+839933940+836137689+836001160+840882683+850231310
1508+860204121+861251745+849238739+835537160+828529277+828238815+831809103
1498+834972645+833869898+829492085+827098562+829809043+835512156+838179732
1488+834146295+826978015+821983618+820703568+821618783+823039127+824936826
1478+828164512+832842022+838117150+841894008+840730739+834312801+828006886
1468+826454630+829475818+832949285+833139091+831971915+834245531+841607026
1458+850079082+851374831+843791565+834844640+829475889+828225958+829549197
1448+830633759+829417782+826460526+823563649+821940571+822550051+826172337
1438+831662842+834838105+832776386+828549167+825981324+825042455+823936227
1428+822426450+821624536+821549310+821495679+822247229+825103687+828231569
1418+827136992+821437430+815460620+811912068+810366561+809229362+807738125
1408+806669404+806946298+807987884+808598003+809128634+810855920+813851110
1398+816962086+819112172+819358592+817048109+813537348+811582537+812129364
1388+813033781+811599088+808679125+807812001+810681814+816059729+822021764
1378+827785612+833472884+838637836+841928886+843020196+843455356+844390034
1368+845588536+847245426+850309306+854046314+855614482+853634737+850169083
1358+847912658+847668369+848450322+848884842+848665131+848504308+848802371
1348+849130552+849033376+848744477+849099155+850927524+854184051+857548337
1338+859450298+859697074+859522896+860212433+862061615+864401861+866337138
1328+867486484+868318516+869909202+873139517+877802181+882470314+885642310
1318+887253098+888645313+890876876+893708543+896445875+899063016+902112050
1308+905867668+909860401+913285352+915745293+917407511+918570850+919372409
1298+919778160+919584874+918697221+917561728+916931008+917045659+917217705
1288+916400803+914306693+911709441+909443781+907609658+905936572+904298080
1278+902713574+901389269+900778652+901154782+902183724+903200163+903760274
1268+903704014+903068038+902325865+902396189+903986946+906988671+910538004
1258+913514084+915335421+916423179+917480677+918523257+919192761+919549499
1248+919716857+919360546+918257941+916799807+915492905+914547927+914114046
1238+914388596+915192072+915577153+914467871+912116116+910141842+909565890
1228+909641329+909137052+907949490+906918843+906734721+907330065+908103565
1218+908633414+908873015+908797718+908658277+909348594+911373517+913748003
1208+915108890+915593775+916566031+918911889+922408798+926410908+930524330
1198+934261834+936664094+937442993+938002819+940024403+943445234+946671784
1188+948294862+948121679+947183662+947200710+949415651+953361644+956917085
1178+958106779+957061855+955791608+956242608+958837942+962237604+964425623
1168+964746985+964701097+966164985+969441046+973416660+976683345+978228924
1158+978193122+977980941+978700951+979784802+980072139+980132732+982280403
1148+987618822+993976096+998133417+999642626+1000514509+1002012281+1003723727
1138+1004785983+1004775896+1004002539+1003062604+1002018177+1000835232
1130+1000247844+1000928430+1002672906+1005201041+1008291772+1011036421
1121+1012716185+1013746902+1014589590+1015402301+1017129445+1020651287
1113+1024873463+1027729779+1028463073+1027768564+1026979579+1027565120
1104+1030105188+1033547755+1036091517+1036715062+1035608338+1033432110
1095+1030982967+1029666476+1031261779+1036023111+1041412675+1044518963
1087+1045339914+1045919915+1047296217+1049200735+1051915479+1056237459
1078+1061019532+1062714284+1059622204+1054775914+1052094487+1052578874
1070+1055735028+1061292591+1067655405+1071340983+1070275317+1065933660
1061+1061385931+1058831016+1058995959+1061516493+1065217983+1068256006
1053+1069125332+1068100582+1066535681+1065152986+1063834364+1062428440
1044+1061445742+1062003580+1064245159+1065891039+1064222286+1059965231
1035+1056642997+1056429892+1058841956+1062191041+1065100136+1067389806
1027+1069563831+1071334022+1071684651+1070545463+1069191323+1068917484
1018+1069827441+1070850700+1071030490+1070978208+1072103189+1073741823
1010+1073075302+1069141102+1064427861+1061798005+1061851707+1062933214
1001+1062863742+1061104561+1058902833+1057318895+1055964898+1054009305
993+1051422709+1048528674+1045709651+1043802789+1043533779+1044380658
984+1044413050+1042313399+1039433854+1038283301+1039137923+1039686242
975+1038078934+1035010365+1032352237+1031071406+1030606411+1029266833
967+1025966762+1021998891+1019706877+1019519487+1019676971+1018627146
958+1016710978+1015415726+1015287011+1014811503+1011728230+1005435172+997805378
948+991657160+988370017+987004228+985849128+984229389+982367207+980296751
938+977713139+974686978+972049450+970748516+970866931+971835848+973239499
928+974699907+975614269+975690916+975012816+973388743+970911115+969189441
918+970367769+974367605+978409566+979931490+978915334+976861572+974724769
908+972505424+970275494+968534996+967374995+966379653+965513452+965326773
898+966321617+968272734+970054646+970437667+969220341+967073664+964324540
888+960810441+956862246+953507905+951444197+950275956+949263779+948393956
878+948144623+948861081+950314812+951313564+950636671+949057351+948995906
868+951290974+953834878+954387957+953442552+953215809+954802872+956988618
858+957853539+957230634+956393984+955924088+955210897+953552017+950872934
848+947758335+945237162+944162048+944579307+945807359+946751911+946687341
838+946229875+946612754+948015836+949553459+950525146+950804598+950315664
828+948880403+946721437+944816209+943996607+943816605+943493964+943528700
818+945056591+947962915+950911648+953003059+954557304+956569014+959655199
808+962927354+964121806+961963693+958307879+956529732+958091222+961448690
798+963598208+962657847+959840103+958361297+960047809+963513605+966228277
788+967791757+969552713+971982180+973162426+970490943+964117757+957498365
778+954929953+958076589+964277018+968370763+967281371+962860865+958944352
768+956813659+954904665+952420714+951017135+951581010+952428883+952791943
758+954745334+959181467+963282955+964673038+964488276+964103835+962794021
748+960667305+959854594+961333897+963461252+964165919+963718754+964232479
738+966316361+967641163+966027746+962467970+959481377+958434179+959610589
728+962970756+967198686+969094609+966547864+962265521+961747605+967033245
718+974160893+977558567+975897201+971867814+968038035+965139382+962992208
708+961417576+960346938+960018614+960779469+961897631+962462288+963026945
698+965105001+968019992+968276997+965107132+961027026+956528879+950845869
688+946176812+945856161+948424145+948480902+943762547+936879543+930684655
678+926345556+924723686+926125703+929166638+931601220+931517327+927734076
668+923145999+923572493+926627636+926319699+922025138+916205173+910668921
658+906088587+903637525+904763785+909008195+912834067+912411338+908155988
648+903875208+901599106+900243191+899028706+898886920+900137207+901705517
638+902070494+899734367+894189875+887871174+885186194+888538405+895844990
628+901003975+899057688+890024598+878648562+871694240+871939808+874858137
618+874693620+872441101+872078184+873177663+872903965+871481064+871099393
608+872874628+875516347+875752183+872479886+867537558+863568408+862746889
##END=
