##TITLE=<SNM>
##JCAMP-DX=4.24
##DATA TYPE=INFRARED SPECTRUM
##DATE=2/5/2025
##SAMPLING PROCEDURE=Instrument type and / or accessory
##ORIGIN=Admin
##XUNITS=1/CM
##YUNITS=ABSORBANCE
##RESOLUTION=4
##FIRSTX=4497.3318
##LASTX=599.83466
##DELTAX=-1.4281778
##MAXY=1.74985
##MINY=0.28253856
##XFACTOR=1
##YFACTOR=1.6296748e-09
##NPOINTS=2730
##FIRSTY=0.29563269
##XYDATA=(X++(Y..Y))
4497+181405936+182504636+183980017+184756166+184223567+182613701+180677791
4487+179159435+178523787+178973216+180399770+182202603+183462981+183631846
4477+182951650+182129198+181834499+182429347+183692139+184822586+185123484
4467+184575799+183651285+182967286+183035516+183826276+184726760+185232897
4457+185328704+185106697+184627168+184080213+183583330+183031803+182404897
4447+181977505+182024705+182339465+182315564+181775266+181299376+181325033
4437+181548449+181655155+181851122+182297057+182720097+182822432+182713148
4427+182854545+183507255+184161007+183900065+182450103+180477729+178960982
4417+178632322+179693753+181631089+183465395+184401832+184266817+183453088
4407+182509519+181719344+181091761+180697651+180741193+181179503+181480274
4397+181073711+180105198+179378937+179337901+179433817+178855958+177715819
4387+177065450+177635464+178865961+179513056+179080343+178146759+177403253
4377+177011960+176817164+176593455+176188666+175856167+176179632+177240386
4367+178175707+178089775+177188871+176451473+176346248+176482177+176395825
4357+176087958+175882281+176177511+177061354+177935156+178017083+177351920
4347+176747068+176736846+177166469+177632959+177849627+177689247+177192565
4337+176482415+175640304+174812128+174325613+174432904+174893488+175096605
4327+174781478+174425992+174642477+175342532+175812643+175537932+174671937
4317+173767942+173371126+173725735+174568011+175341874+175726766+175753136
4307+175498376+175034099+174587121+174462146+174867227+175803737+176888777
4297+177396139+176900224+175900806+175485063+176280432+177875192+179241307
4287+179561353+178753732+177378034+176064642+175088906+174499507+174366430
4277+174645787+175086547+175556932+176216115+177235412+178538966+179673143
4267+179899485+179001726+177857234+177363094+177258180+177005047+177035843
4257+177968823+179399456+180370254+180393607+179709736+179149341+179530228
4247+180633609+181233451+180579314+179281192+178427962+178449596+179107609
4237+180026179+180834660+181095052+180552780+179461687+178393180+177785146
4227+177815100+178504988+179702074+180971321+181707347+181553533+180778408
4217+180084552+179946227+180203474+180396990+180435247+180650653+181171292
4207+181658319+181805842+181605743+181054546+180279513+179859582+180264828
4197+181184294+181981839+182410987+182445221+182013714+181287654+180675012
4187+180349608+180177982+180070635+180050245+180094372+180200731+180501081
4177+181146366+182145419+183325991+184335449+184846962+184920770+184916326
4167+184966799+184889864+184617329+184292510+184001340+183804789+183891013
4157+184304013+184667637+184527575+183918846+183339249+183126422+183161314
4147+183269447+183429844+183431655+182913832+182008904+181415409+181569607
4137+182153612+182632519+182958161+183389960+183816602+183833335+183532308
4127+183532674+184004851+184289200+183767684+182704553+181961266+182069070
4117+182765029+183443030+183923601+184503290+185242663+185701637+185595205
4107+185252209+185118766+185202248+185324663+185495942+185663727+185534875
4097+184986494+184272303+183632522+183153487+183020977+183353916+183847910
4087+184111832+184254418+184650649+185247088+185539045+185240852+184725919
4077+184695946+185397026+186221179+186309213+185592187+184839264+184574372
4067+184585107+184672410+185044995+185624263+185778133+185184838+184346275
4057+183933202+184090162+184535000+184940100+185106294+185020216+184795027
4047+184499961+184226731+184319374+185102143+186285330+187119413+187238025
4037+186892212+186420894+186051454+186087114+186722031+187664228+188275956
4027+188154309+187513266+187033737+187328163+188476476+190007597+191220391
4017+191578017+190988362+189827961+188719111+188183788+188334932+188866672
4007+189390383+189721346+189894197+190076869+190436744+190928819+191249102
3997+191129156+190668261+190341266+190634558+191525039+192347198+192466139
3987+191995607+191475736+191132301+190960145+191167504+191913150+192839748
3977+193411134+193564766+193605967+193646583+193553043+193300569+193044474
3967+193002889+193521041+194917750+196906602+198570360+199304960+199321364
3957+198920013+198076530+197182740+197337779+199200101+201892812+203620777
3947+203626153+203044106+203226430+203850392+203497173+201864722+200248675
3937+199911037+201195390+203858000+207042419+209057037+208648024+206695875
3927+205308090+205443361+206198260+206390002+206329142+207241878+209213887
3917+210505463+209463710+206698892+204256205+203333959+203824388+205623417
3907+209453597+215830390+223388725+229136070+231116217+229370860+224507083
3897+218053246+213143367+212471181+215628864+218601718+217983608+216153856
3887+217465602+221669446+224655338+225187151+225462886+225020865+221925468
3878+218498084+218698293+222823099+228402622+233534600+236520785+235498581
3868+232334296+231232798+232436577+231943460+227763481+222994634+221429590
3858+224714589+233426467+246350638+255253910+250663748+238234321+227451409
3848+221810203+221503306+225329243+231374817+238046036+244607860+249874432
3838+251395422+248354704+243293827+238755802+235360237+233056771+232086741
3828+232272832+233171616+235903863+242412343+250851960+254680403+252231388
3818+248864188+246152714+241078396+234181092+229812224+230667044+236271749
3808+243200160+247602274+250422008+255267424+260817285+261566552+257624765
3798+253700552+250736312+247363442+244418367+243846469+245869005+249473538
3788+254050753+259310816+264661217+270092265+276622379+284270742+290865008
3778+295020500+298783931+305090428+315269769+329099781+344402359+357311643
3768+365747639+370789297+374274779+378426870+385465718+394953013+403432423
3758+409079389+414941926+425365274+442165763+462461573+478074742+484688886
3748+488816435+497028741+508116210+515606314+518856330+523955994+534551426
3738+549560200+563948267+571868562+572262689+569141380+566793000+567324648
3728+570870442+575760132+579249053+579975277+578523267+575503415+571662355
3718+568722784+568763308+573328107+582252739+591479294+594156406+588692788
3708+580314616+574401387+573526524+577067417+581754995+584741491+586215227
3698+587469149+589368210+593372357+600994752+611272387+619113351+618329485
3688+610238241+602930570+600854854+603345216+608195954+613991888+621240747
3678+630379633+636898098+634492882+627928040+626007510+627179213+623522707
3668+614661788+607237920+604060578+603291378+602703844+602118286+602531871
3658+604054982+606053562+609633956+617622938+630909818+644790669+648970191
3648+639219705+624806986+615184365+611845327+611497284+611439862+611960756
3638+614234012+618078730+622481576+627208619+633176636+640429079+645287864
3628+643730738+638724193+635156271+634475472+636518088+640407208+643830368
3618+645306590+646995530+651492592+658028686+663690136+666952952+668144113
3608+667592276+665773423+664003214+663236099+663409462+664432160+666642434
3598+669760123+672041571+671876620+670852386+672976929+680598190+691385199
3588+698426168+696778777+690259215+685159916+682873274+681649124+680795181
3578+681583948+684712609+688310961+689663049+689097607+690295424+695476576
3568+701232973+701777569+697209333+692318509+689033309+685688784+681493974
3558+678362972+678196558+680879668+685039951+688926438+690897587+690568855
3548+689025774+687224184+685297217+683502430+682466053+682292836+682281644
3538+681723736+680745659+680385985+681822707+685308262+689548425+692197374
3528+691637929+688711818+685971286+684822625+684387681+683503308+682681551
3518+682862595+683268133+682380249+680620208+680020678+680973372+681274527
3508+679678852+677760882+676947683+676642798+676092570+675950587+676664742
3498+677117755+676030613+674030130+673095577+673901095+675111860+675644678
3488+676054167+677076791+678536336+679829686+679987980+678073229+674898337
3478+672896611+673415019+675542415+677548896+678416591+678051430+677056163
3468+676414719+676919960+678694704+680709889+681188138+679294600+675928570
3458+672610379+670436899+670084393+671408685+672943939+672995363+671162465
3448+668850953+668350101+670792843+674949615+677855830+677315770+674185938
3438+671232835+669832395+668859511+666548803+662279382+657029761+653053082
3428+652141937+653976590+656881708+659484061+660688169+659646086+657203710
3418+655300955+654581460+654533328+655058173+656072020+656773008+656804170
3408+656987628+657775297+658003376+656217440+652693847+649211071+647188424
3398+646949007+648234896+650267783+651700848+651670783+650615827+649482454
3388+648758132+648289977+647366469+645261750+642227158+639360151+637574362
3378+637393098+638762157+640454389+640871778+639810969+638455882+637887074
3368+638479436+639984552+641463408+641865728+641021880+639472508+637319803
3358+634497197+632170836+632030024+633925976+635513458+634777871+632257152
3348+629995454+628977730+628749578+629230095+631110832+633946019+635573806
3338+634658857+632451582+630740551+629700297+629010428+629253941+630631559
3328+631663547+631047704+629933423+630305899+631982111+632999469+632554284
3318+631888773+632131262+632692316+632331837+631039292+629912942+629533005
3308+629639145+630115419+631145212+632653401+634207234+635105652+634642545
3298+632901449+630985527+629908772+629787198+630343497+631290925+632195926
3288+632512735+632041362+631436345+631665814+632676150+633500541+633888085
3278+634477155+635196357+635260435+634715401+634291575+634139206+633978204
3268+633878283+634112652+634550596+634471303+633105023+630668353+628586968
3258+628212151+629447860+631000742+632015613+632902547+634183827+635336072
3248+635381644+634040820+631867852+629653043+627891100+626492123+625173464
3238+624278338+624500638+625591657+626235735+625658662+624599901+624120775
3228+624101829+623735352+623056089+622646381+621934347+619676087+616250514
3218+613625704+612853724+613209449+613784072+614468528+615172223+615354510
3208+614864411+614314769+614102563+613812380+613151771+612782770+613435077
3198+614572692+614711383+613110368+610554977+608258057+606642193+605479049
3188+604450682+603274225+602014231+601304063+601449300+601689961+601285812
3178+600727684+600912203+601682939+601979119+600953825+598577539+595648904
3168+593153275+591358854+589838413+588529592+588158104+589164161+590703767
3158+591276525+590315016+588655994+587448887+587130432+587285216+587030913
3148+585849262+584366017+583678817+583810596+583785688+583186414+582398854
3138+581422862+579875392+578144501+577262542+577487512+577919970+577748581
3128+577179371+576749511+576326855+575480995+574503394+574065596+573925077
3118+573100649+571458634+570035884+569573691+569669187+569564913+568993216
3108+568080900+566970826+565741701+564599002+563989853+564269172+565155813
3098+565745176+565225012+563556956+561528860+560204788+559984792+560145061
3088+559724966+558666023+557581843+556774825+556115276+555616838+555483048
3078+555601842+555448339+554616816+553309641+552188009+551710711+551686096
3068+551584017+551133528+550330021+549098336+547468428+546007859+545499180
3058+546011590+546734815+546875664+546244972+545020821+543562813+542387892
3048+541788581+541494156+541020735+540303398+539820357+540047888+540730369
3038+540863427+539744794+537883698+536471152+536139567+536456814+536435016
3028+535356176+533209066+530617320+528387881+527121047+527009349+527710885
3018+528527778+528860351+528555429+527720431+526246842+524039494+521840485
3008+520942836+521629889+522613891+522477614+521134816+519557501+518594493
2998+518310199+518176555+517757228+517161575+516712841+516301451+515442021
2988+514121387+513087571+512833194+512733931+511818726+510062306+508293523
2978+507185826+506809437+506799306+506652203+506159580+505655875+505602221
2968+505981938+506252041+505820936+504539986+502815422+501248202+500144564
2958+499419876+498862955+498286577+497539687+496619910+495667289+494722093
2948+493746722+492932024+492503333+492201959+491556564+490612063+489855299
2938+489567603+489541928+489299219+488567874+487660093+487260004+487723550
2928+488615567+488911638+487888392+486011714+484499868+483856778+483439608
2918+482541118+481152564+479608459+478220747+477349724+477317612+477955326
2908+478354062+477586544+475879719+474457810+474039653+474165762+474060647
2898+473508517+472788035+472181994+471677119+471060582+470228291+469250068
2888+468221408+467263447+466511986+465939082+465394304+464899048+464644452
2878+464604367+464382140+463685029+462809214+462243003+461894082+461248395
2868+460192560+459103077+458278430+457758669+457452504+457138474+456572958
2858+455732292+454827437+454109589+453663415+453276566+452641193+451812413
2848+451242911+451186805+451232597+450700108+449494062+448218853+447328006
2838+446563086+445501034+444254646+443263073+442670345+442239204+441744680
2828+441161535+440500706+439779529+439164381+438785030+438427367+437816023
2818+437096967+436598419+436290718+435850396+435093632+434157982+433337761
2808+432758639+432242535+431536463+430567603+429454932+428408058+427574743
2798+426905612+426259888+425591926+424934096+424377907+424117240+424250920
2788+424530313+424469234+423707532+422368793+421089232+420369774+419948983
2778+419244119+418152587+416934508+415776301+414912739+414580789+414554784
2768+414305272+413705340+413066602+412532979+411871418+410832408+409456802
2758+408030028+406861837+406124969+405820669+405777182+405670347+405215177
2748+404433505+403627914+403046781+402690801+402413565+402030447+401361791
2738+400366304+399236662+398237482+397495567+397009345+396703581+396417166
2728+396006214+395474786+394913695+394380658+393857166+393225011+392358560
2718+391353125+390493732+389884803+389363615+388876552+388625175+388680585
2708+388747005+388482132+387819364+386884847+385857065+384967828+384398435
2698+384123212+383964624+383751395+383361144+382720577+381842971+380844814
2688+379916662+379227012+378781460+378417360+377978831+377430103+376787891
2678+376072968+375365616+374803684+374451690+374216260+373947400+373557406
2668+372997961+372288561+371664050+371461427+371689872+371899773+371626196
2658+370832455+369840589+368955265+368260312+367733858+367394628+367193249
2648+366900982+366328699+365559207+364808039+364207850+363830913+363712155
2638+363740244+363705352+363529758+363275601+362896360+362252684+361468489
2628+360953592+360884942+360913470+360588322+359923799+359340873+359071428
2618+358821002+358205562+357373783+356827506+356696752+356620896+356298528
2608+355765929+355223602+354879691+354801641+354779440+354539840+354074794
2598+353564579+353135889+352826395+352558084+352127821+351476062+350867461
2588+350561515+350468652+350354905+350202243+350131545+350113952+349997243
2578+349740416+349413513+349033357+348616078+348306693+348215220+348190935
2568+347963185+347451507+346807319+346211410+345727089+345337314+345051630
2558+344901126+344853433+344831964+344786282+344651724+344343254+343882122
2548+343409140+343018377+342686609+342375031+342128774+342047835+342118863
2538+342113523+341809734+341276916+340752254+340324697+339983164+339856214
2528+340112382+340630973+340981101+340841276+340366173+339987187+339867113
2518+339750733+339383232+338841379+338376919+338149681+338187609+338441473
2508+338786225+339027105+338983289+338649948+338267780+338079348+337990180
2498+337682917+337118059+336647601+336520467+336540071+336358186+335915890
2488+335462109+335251440+335306704+335426595+335406296+335245734+335097571
2478+335042892+335010230+334891765+334661273+334407884+334301598+334447019
2468+334718402+334831271+334646496+334322336+334095757+333982814+333789152
2458+333402742+332968638+332705119+332632518+332587751+332448585+332228040
2448+331998974+331836144+331799569+331879631+331979406+332014518+331996669
2438+331964740+331896821+331777003+331676459+331650199+331633557+331561871
2428+331484516+331425814+331272200+330951222+330601898+330451102+330599448
2418+330947016+331230176+331185702+330823869+330481129+330448870+330620954
2408+330678632+330543818+330416648+330410504+330431863+330449309+330587634
2398+330840657+330946833+330744649+330459002+330411016+330594949+330758547
2388+330744027+330489578+329829663+328575448+326729676+324407265+321601264
2378+318243646+314488353+310704678+307126625+303752750+300676408+298150112
2368+296153232+294342992+292664695+291586807+291565356+292681154+294890056
2358+298252685+302760902+308254292+314684868+321889655+328828544+333818302
2348+335739344+334897508+332980818+331586083+330506475+328604452+325820689
2338+323086594+320953053+319170665+317325076+315394890+313694685+312476642
2328+311709564+311222098+310931404+310863156+311041018+311445605+312033029
2318+312741076+313511081+314314697+315121642+315859680+316479728+317070846
2308+317819454+318785864+319782521+320561230+321045624+321299012+321408589
2298+321497905+321674487+321876232+321933142+321830514+321765082+321916135
2288+322246586+322537280+322607321+322498731+322407112+322450452+322577000
2278+322670412+322665401+322555751+322339083+322008303+321629683+321355703
2268+321272203+321299158+321327175+321359909+321430059+321476143+321411735
2258+321260572+321128977+321079821+321090830+321102460+321097450+321158749
2248+321364151+321572809+321515314+321205528+321008427+321171294+321552218
2238+321894812+322097947+322161038+322109541+322027651+322037306+322237589
2228+322657318+323173129+323515284+323497399+323218738+322950756+322873547
2218+322990074+323209045+323399270+323411047+323175689+322824720+322612917
2208+322654575+322815137+322918717+322965825+323063040+323237464+323433540
2198+323614438+323764101+323854111+323899902+323995289+324207568+324466442
2188+324626090+324635636+324594124+324601476+324614972+324545955+324457408
2178+324519732+324770816+325059243+325223755+325227193+325157007+325169552
2168+325354619+325616310+325791356+325862420+325938678+326093645+326334488
2158+326624524+326843460+326855529+326698588+326587877+326675180+326891372
2148+327055885+327086205+327067296+327144798+327403782+327834777+328321072
2138+328645196+328645635+328413935+328222467+328242583+328429881+328635211
2128+328722734+328659533+328586750+328714176+329078458+329506088+329826554
2118+330000796+330065423+330083747+330132171+330252209+330443494+330702076
2108+330983335+331168329+331180106+331110175+331139910+331340631+331625657
2098+331905452+332201121+332563831+332983817+333432440+333876346+334221171
2088+334381880+334413443+334438716+334479095+334445190+334257636+333969209
2078+333793834+333914018+334229254+334456931+334492262+334496029+334659371
2068+335031041+335501134+335855469+335937249+335797571+335611516+335490857
2058+335450186+335467632+335491771+335464816+335406918+335438263+335661404
2048+336042328+336480967+336968359+337520745+337973063+338070497+337800431
2038+337409668+337091725+336875058+336764895+336781866+336900184+337071280
2028+337246546+337345992+337307113+337184259+337168934+337503957+338248359
2018+339031494+339273727+338844305+338219685+337847648+337729988+337711664
2008+337779986+337942340+338109778+338229999+338371287+338589710+338780702
1998+338813400+338908457+339608421+341007581+342255761+342375945+341417326
1988+340227190+339426207+339087709+339020119+339010720+338968659+338935486
1978+338932743+338932231+338964087+339095426+339422769+340158100+341366487
1968+342508382+342753687+342001751+341068295+340679141+340809895+341092324
1958+341377825+341679639+341894002+341865657+341639151+341500899+341752020
1948+342506553+343790759+345586899+347357218+347909457+346671335+344699710
1938+343446958+343224694+343438253+343628002+343773167+343918624+343967963
1928+343999197+344587828+346180687+348131721+349389593+350146504+351189208
1918+351890123+350937904+348858165+347561633+347902910+349108481+349950866
1908+349893956+349292963+348775945+348610116+348694713+348935008+349451733
1898+350433029+351698728+352653178+353220742+354279722+356184342+357611664
1888+357207296+355622923+354424520+354178630+354527441+355049616+355506433
1878+355788496+355903815+356056697+357003722+359979502+365298431+370654666
1868+372155576+368855855+363959692+360571059+359254777+359087777+359193039
1858+359223359+359232466+359414534+359823219+360458848+361541857+363471019
1848+366701943+371322700+375731690+376622427+373094591+368522625+365991884
1838+365619738+365932743+366238689+367649590+371505170+376736101+379936266
1828+379705370+378183759+376727725+374493897+371498148+369374154+368949340
1818+369443718+369976793+370786773+372652441+375459100+377759128+378180686
1808+377051739+375977837+376427485+378988436+382934026+386222738+387065489
1798+386037561+385735309+388348122+393480411+397190279+395409207+389909673
1788+385789659+385247916+386974053+389111141+391185138+392955566+393699968
1778+393872052+395626790+400783657+408539110+414540118+414520623+409626874
1768+403680252+399173205+397804037+400223956+404346238+406711735+406907372
1758+406892523+406998370+407091927+409103199+414838237+422477968+427224944
1748+426866221+423861547+421362663+420814228+422148505+424003786+424686889
1738+425088880+428677466+436417119+442456311+440371415+433499384+427131423
1728+422534403+420081786+420073520+421752877+424876967+431257692+442413629
1718+455241498+461513231+457673268+449415792+442525035+439289027+440412634
1708+445645723+452879440+458989806+463965299+471126306+481102201+488540882
1698+489609408+486223115+479435681+471324540+466737176+467803800+472825414
1688+480256743+491315794+505337018+513104761+507923352+498237969+492733022
1678+493588537+499342338+505979195+510229634+513686333+518519588+521621330
1668+518992534+514284693+513617390+517537305+521381255+521557471+520508988
1658+523026123+532198292+548809068+567012155+571773614+564649950+561665685
1648+565855594+569034143+563710350+554469713+548870331+549290060+555708128
1638+567136545+578960626+582018844+574363130+565699787+562709158+565099598
1628+569570399+573882723+578279607+582261809+583679586+583475573+585928921
1618+592503528+598325833+597712770+593528859+591697571+593748526+597687387
1608+601025657+603033747+604611720+606604375+608894674+610999065+613003680
1598+615482521+618631225+621883655+624531946+626507411+628226342+629924280
1588+631602321+633409104+635580902+638080773+640807846+644407075+650347808
1578+659085545+667059092+668595662+665757696+666010426+671532015+677638577
1568+679123650+677580643+677427468+681060127+690636664+708807785+731727381
1558+741241961+732389088+721511374+715870625+714837467+716661148+719580164
1548+723192560+729545050+740750911+756399484+774082846+788386353+789416366
1538+778401863+769577664+769444899+774428914+777388967+777059064+778604559
1528+784740454+793237091+801485459+810096062+819150534+825059667+826027064
1518+824594219+822068892+818598478+816345924+818084386+825171439+837679647
1508+852410637+858194173+847505037+832696874+825080880+825888593+832388331
1498+839682250+842303183+839601055+836886344+838664673+844465179+849345103
1488+848613539+843367723+838132879+835671849+835664827+836413728+837757843
1478+841628456+849319355+859213359+866572747+865992381+858047289+850099271
1468+847501819+849881579+852878133+852890641+852350655+856488335+866845739
1458+878132064+879968985+871261532+861745270+856362445+854718272+855094039
1448+855260307+853636031+850862070+848757789+848430959+850373873+854868228
1438+860613872+863564635+861321225+857691638+856678450+857530929+857389313
1428+856010598+855765402+857463266+859573034+861475496+864447838+868012394
1418+868380115+864043542+858261031+853840117+851007564+849190539+848695759
1408+850358292+853575244+855703372+855205299+854349381+856090477+860225597
1398+864139441+865716536+864177771+860105632+856264937+855739215+858759030
1388+862244732+862752387+860797404+860115727+862744633+867543582+872580850
1378+877269124+881875251+885846517+887797624+887579420+886732646+886172543
1368+885614927+885577767+887631721+891687548+894730186+894035927+890601283
1358+887166786+884837717+882952884+880904050+879113359+878253491+878202433
1348+878042164+877040825+875662257+875362784+877156474+880471958+883447153
1338+884408698+883186083+880885031+878572714+876487086+874461148+872756262
1328+872053298+872654438+874024155+875329794+876366317+877444389+878442875
1318+878953090+879324760+880312859+881736121+882667090+882943887+883486141
1308+885014446+887189316+889123671+890406414+891269501+891802099+891605913
1298+890432016+888691799+887151132+886286948+885911254+885337545+883917721
1288+881323195+877522659+873011479+868895158+866057996+864236729+862513994
1278+860730253+859631187+859531704+859740399+859566596+859090542+858607465
1268+858060749+857353323+856729142+856689641+857604737+859251031+860860458
1258+862008241+863154488+864769767+866529808+867826376+868493643+868854560
1248+869471061+870853945+873135320+876002108+878894278+881222688+882794004
1238+884127439+885846078+887865652+889814052+891844818+894167962+896322642
1228+897861700+899141663+900661921+902284589+903717580+905088760+906601557
1218+908314637+910414309+912962678+915385451+917033427+918273963+920258206
1208+923549551+927501725+931006885+933595413+935756458+938226484+941076667
1198+943665122+945307027+945718930+945235049+945014431+946372152+949355466
1188+952678191+955379077+957547656+959326862+960618749+961832731+963677040
1178+966298924+969182317+971570928+973082116+974192959+975660988+977526218
1168+979333148+981067148+983023009+985023052+986294238+985987304+984176059
1158+982450032+982767060+985622875+989570880+992255892+992190496+990257019
1148+989054666+990417800+993926764+997496953+999157000+998845311+998577439
1138+1000223806+1003480771+1006928655+1010189497+1013723697+1017178457
1130+1019075945+1018308977+1015927826+1014827005+1017095433+1022018515
1121+1026906340+1029620245+1029699247+1027894658+1026058176+1026063442
1113+1027463444+1027838552+1026471468+1025778527+1028198300+1032988763
1104+1037305951+1039505033+1039422521+1036967344+1033082320+1030479967
1095+1030902550+1033098706+1035228443+1037249553+1039293852+1040547920
1087+1041311817+1043329928+1047070920+1050543748+1051236763+1048542022
1078+1044564027+1042588854+1044209327+1048390457+1053137763+1056481628
1070+1056343230+1052542182+1048641871+1048742524+1053210765+1058880700
1061+1062714080+1064679012+1066724042+1069830539+1072747873+1073584406
1053+1072122155+1069816714+1067922225+1066618707+1066073015+1066899893
1044+1068627236+1069465818+1068774193+1067936855+1067867582+1067372802
1035+1065302096+1063076607+1063367668+1066808456+1071209327+1073741823
1027+1073008137+1069796013+1066516006+1064782006+1063948764+1063265478
1018+1063814243+1066369562+1069201969+1069677292+1066810870+1062072562
1010+1058211166+1056920816+1057428105+1057851053+1057338351+1056163942
1001+1054941327+1054409826+1054934598+1056028470+1056939688+1057153503
993+1056138047+1053586386+1049668738+1044939647+1040626775+1038215707
984+1038175182+1039729455+1041658470+1042744150+1042213453+1040068647
975+1036555148+1031540629+1025376206+1019750819+1016360504+1015137377
967+1014513415+1013244863+1011470777+1009706201+1007567832+1004430905
958+1000590430+996898228+993776296+990774329+986920687+981909387+976765248
948+972749287+970047451+968120777+966770371+966066164+965580234+964436987
938+962204183+959288385+956403457+954460031+954918164+958685710+964216954
928+967923054+967346786+963340554+958767417+955948177+955195107+955256844
918+955186621+955166286+955342429+955020573+953575073+951199336+948526832
908+946378004+945572559+946229950+947489578+948316967+948339644+947931325
898+947752549+947926790+947462951+945367960+942495614+940708873+940205095
888+939346471+937017476+933989175+931961554+931837932+933026898+934272043
878+934764995+934335683+933344000+932761733+933504928+935242732+936640977
868+937149656+937816191+939607394+941418127+941282655+939504253+938432399
858+939146554+940480941+941499688+942765534+944217252+944017920+941067450
848+937038543+934239199+932765902+931300433+929618807+928550684+928422527
838+928917234+929669427+930517079+931621045+933197409+935120792+937220757
828+939164988+939478212+936665116+932039458+929047732+929502939+932427588
818+936130031+939710241+942999758+945996165+948236357+948828865+947594108
808+945773426+944947426+946027034+948937053+951891619+951891546+948060214
798+943409905+941233718+941886501+943898248+945741021+945820242+943519775
788+941080178+941782190+945994483+950599220+952106312+949578497+945096138
778+942153422+942876355+945918188+947627318+946049052+943025287+941612996
768+942584490+944090923+943935115+941978961+940081766+939494744+939300241
758+938343450+937556731+938346156+939840447+940249570+940070793+941460115
748+944834630+948347544+950887574+953016945+954572754+954341164+952450113
738+950664835+950494763+952318078+955244482+957106347+956643825+955886732
728+957555848+960359215+959934146+954894317+948983868+946300831+946744481
718+947190544+946169602+945021453+944654244+944415266+944041767+944003144
708+943842655+942421002+939511276+935368694+929925375+924196702+920819845
698+920882607+921533781+918932379+913495936+909462493+909140783+910237361
688+909424089+906730373+904413374+903292949+902346180+900872079+899738633
678+900405095+902500525+903489794+901753087+897848972+892023961+884286612
668+878953821+882202154+889590070+892405433+890263261+888143107+888518655
658+889393299+888496564+885141652+878825371+870110092+862495195+860211772
648+864311488+871756459+878238203+880937187+878506222+871326123+862681871
638+856921817+856025813+859162886+864441547+869307500+870799669+867956216
628+862330244+855779666+850485352+848672790+850108707+851760780+851716817
618+851023876+850329691+848806945+846792345+845439891+844180921+841274633
608+836142198+829561264+822884870+818305077+818022575+821748937+826591483
##END=
