##TITLE=<SNM>
##JCAMP-DX=4.24
##DATA TYPE=INFRARED SPECTRUM
##DATE=2/5/2025
##SAMPLING PROCEDURE=Instrument type and / or accessory
##ORIGIN=Admin
##XUNITS=1/CM
##YUNITS=ABSORBANCE
##RESOLUTION=4
##FIRSTX=4497.3318
##LASTX=599.83466
##DELTAX=-1.4281778
##MAXY=1.7192155
##MINY=0.28522754
##XFACTOR=1
##YFACTOR=1.6011442e-09
##NPOINTS=2730
##FIRSTY=0.29829028
##XYDATA=(X++(Y..Y))
4497+186298198+186917401+188026726+189228818+189899301+189660215+188722187
4487+187675645+187108279+187416643+188617042+190154822+191118406+190938044
4477+189900585+188826179+188334680+188611011+189523371+190589085+191087936
4467+190559137+189189470+187647744+186563640+186160516+186387708+187264071
4457+188821637+190689503+192054349+192211872+191131714+189496401+188165319
4447+187520411+187381669+187432185+187487913+187539694+187787156+188391022
4437+189049909+189225989+188854396+188348249+187961505+187677432+187625073
4427+188082360+189076246+190248111+190977839+190636325+189155520+187342451
4417+186210921+186082602+186625324+187428537+188148046+188418644+188028066
4407+187140275+186236198+185751716+185665928+185604542+185431961+185422412
4397+185793279+186500411+187390901+188141941+188301809+187634863+186241633
4387+184530694+183181279+182664448+182792171+183107105+183345056+183197491
4377+182418214+181426339+180870643+180621674+180150538+179644000+179860210
4367+181100236+182743293+183569791+182674685+180468823+178521591+178139816
4357+179355720+181295302+183053146+184052243+184087497+183503751+183075184
4347+183247895+183614760+183413254+182392658+181002480+179941587+179706838
4337+180322412+181348201+182205187+182499386+182144918+181416139+180842519
4327+180791035+181065095+181050037+180438167+179758936+179891555+180957809
4317+182084201+182475357+182246936+181916441+181648356+181429428+181495170
4307+182007869+182560381+182591130+182331068+182749584+184213731+185657682
4297+185674862+184261120+182785284+182353292+182909936+183862054+184849239
4287+185712926+186208892+186036590+185079205+183619674+182326600+181794562
4277+182031992+182596454+183203205+183916479+184731660+185273079+185167208
4267+184740315+185003375+186495944+188293322+188926448+188296002+187645268
4257+187692992+187966550+187882828+187415861+186825173+186513980+186810878
4247+187386806+187434251+186767938+186122955+186147543+186669791+187114365
4237+187194793+187016609+186761516+186452054+185953687+185217351+184600959
4227+184734564+185774852+186973110+187373665+186850264+186130177+185902855
4217+186229608+186871408+187761172+188702327+188947909+187951752+186433962
4207+185779375+186442096+187644412+188473813+188689354+188576781+188485428
4197+188547987+188682988+188798371+188868412+188831781+188642895+188400720
4187+188237575+188128837+187968727+187782279+187732005+187944344+188391152
4177+188887118+189167823+189087154+188838091+188846355+189274867+189745835
4167+189781145+189422637+189133854+189158889+189294802+189321214+189375546
4157+189721006+190309907+190869660+191331266+191786748+192071212+191831010
4147+190988281+189813196+188679284+187952813+187775225+187846923+187870189
4137+188047926+188575609+189034851+188956247+188624915+188796379+189800446
4127+191113473+191755180+191223235+190060342+189323131+189569420+190485652
4117+191346938+191723575+191736492+191657517+191491208+191181783+190948821
4107+191054563+191460701+192014051+192701342+193369553+193498617+192784319
4097+191753840+191248902+191434662+191919031+192616931+193634418+194460097
4087+194234748+192939683+191571431+191019868+191307124+191909632+192426426
4077+192899869+193614130+194541251+195096778+194712696+193588183+192552995
4067+192201281+192419836+192753440+193057113+193577239+194305161+194620859
4057+194019506+192907259+192168298+192192328+192714613+193368027+194020231
4047+194656559+195183999+195459046+195492829+195459344+195450502+195409554
4037+195310401+195227331+195278405+195622711+196348065+197238927+197895804
4027+198219188+198530344+199066514+199571601+199571210+198954724+198126774
4017+197566463+197316917+197047733+196635992+196469758+196985882+198030451
4007+198887326+198983277+198529600+198370290+199064728+200199534+200879211
3997+200842618+200713405+201127510+201911682+202245453+201635872+200612745
3987+200198808+200816354+202028870+203162187+203761716+203658395+203166505
3977+203041667+203671871+204474116+204603905+204090797+203691135+203748985
3967+203895843+203945465+204365285+205480547+206736599+207279153+207023669
3957+206603440+206463730+206627358+207236697+208599886+210423564+211620780
3947+211579347+211130398+211366413+212033322+211923783+210592088+208763198
3937+207384746+207251792+208896877+211799783+214019195+213943905+212426952
3927+211701524+212607593+213984258+214646439+215070800+216386935+218459359
3917+219680679+218664160+215874032+213092353+211600380+211578119+213154856
3907+217183950+224133129+232271929+238176706+239961650+238167418+233647943
3897+227664376+222966308+222179475+225137792+228073140+227514541+225509757
3887+226207935+229606230+232323730+233419895+234335456+233755750+229898028
3878+225883155+225838278+229548976+234410337+239366421+243467640+244108435
3868+241665981+239972185+240107186+239148182+235416898+231348196+230052200
3858+233091745+241257218+253376215+261357716+256541975+244615996+234456870
3848+229229611+228996668+232632466+238452776+244976347+251359649+256334364
3838+257516783+254203997+249176793+245260141+242926668+241503898+240765403
3828+240647935+241199778+243996849+251047823+259958901+263429712+260071790
3818+256133287+253627735+249385260+243243929+238914550+238960096+243418222
3808+249799793+254683937+258295650+263294711+268176882+267990955+263361663
3798+259043656+255825965+252126938+248573783+247080916+248043997+250687156
3788+254636250+259659341+264720701+269145845+273892754+279522727+284142024
3778+285925275+286367523+288465280+293941415+302687804+312571214+320652593
3768+326505011+331975041+337963260+344842007+353942455+365574961+377303026
3758+387199335+397445720+411595951+430750324+451947229+468555809+477765852
3748+485082454+495647347+507922974+514956842+515546693+516938248+524920531
3738+540175526+557440181+567990035+568741187+564462249+560670566+560249128
3728+563574216+568398780+571232928+570849088+568984461+567671676+567887291
3718+569831247+573701514+580489317+590675359+601073999+606465295+606610068
3708+604893713+603879669+606040357+612488991+619771271+622931335+622336422
3698+621446305+621971903+624460442+629461272+636474703+642539907+643775447
3688+640642037+637263454+634999575+632751107+630876913+632006433+638770448
3678+651058620+663164160+666231754+661710399+658636476+658833627+657290299
3668+651467662+644702754+640630496+640454714+643761450+649675291+657093447
3658+663766109+667525368+670629295+678279072+692081833+706545807+710744038
3648+701685990+689016695+679665230+673931713+670453438+668999901+670353374
3638+674640799+680183420+684689140+688244920+693388326+700658247+705890401
3628+706107504+704942843+705214595+706153293+707190491+708703293+710506683
3618+712647269+716188307+720491144+722988059+723454430+724568017+726394339
3608+725163787+719864328+714543575+712361445+712614584+713415172+714702680
3598+717468295+721176703+723624405+723717024+723478478+725689794+730261702
3588+734110155+734808148+733055684+730935721+730302875+732047894+734845449
3578+735798293+733365779+728610345+724206848+723172255+726974175+733715036
3568+739131981+740742613+739455254+736993107+734129364+731117535+728323404
3558+726306485+725835349+727734857+731686650+735506588+737581581+738986575
3548+740720128+741069385+737717754+731335011+725311426+722276218+722698141
3538+725693368+729191819+730869161+730739762+731523524+734981399+738845264
3528+738864249+733895211+727405330+723580404+723977981+727348895+730739167
3518+731619494+730228422+728969727+729265602+730186282+729910807+728323181
3508+727958512+731063557+736081064+738419470+735866193+731275449+728145686
3498+726913943+726642712+727890686+731594552+736216344+738639030+737748578
3488+735649015+734834951+735490655+736407613+737275581+738885543+741768495
3478+745589996+749395341+751760997+751038062+746048996+737642632+729502361
3468+725704014+727028674+730699483+733895136+735615735+735635018+734223174
3458+732571221+731678460+731265844+730656524+730102225+730469351+731861837
3448+732852354+731692681+728485413+725362203+724077375+724121525+723775321
3438+722680347+722671859+725338154+729214602+730861641+729033756+725830211
3428+723374989+721691840+720087685+718953326+719466528+721557677+723286912
3418+723328159+723200473+725342100+729332237+732057498+731484958+728705048
3408+726029819+724507338+723920801+723929586+724709775+726471769+727998791
3398+726905604+722852109+718709271+717073473+717893271+719909595+722135950
3388+723803464+724738216+725792538+727697035+730048619+731886481+732391641
3378+731424205+729932026+729034129+728581457+727438312+725238984+722907502
3368+721302156+720237037+719198573+718564386+718994647+719920242+720159458
3358+719782132+719672315+719515369+718213193+716152495+715426285+717435685
3348+720881424+722736559+721444434+718564386+716731364+716608070+716472567
3338+714913158+713254057+713709334+715592389+715951473+714329226+713723331
3328+716156813+720095652+722733878+723173893+722517519+722018836+722003052
3318+722063135+721612772+720372392+719051306+719225599+721607039+724647384
3308+726216471+726205080+726085807+726802190+727899769+728480797+727985985
3298+726221311+723824311+722159253+722102967+723156397+724079832+724118473
3288+723577798+723230998+723196378+722709235+721169928+719252030+718219298
3278+718387040+719158443+720045471+720936668+721872909+722828656+723372905
3268+722824264+721355761+720423764+721204176+723123414+724787206+725645122
3258+725988051+726050219+725777499+725482667+725739528+726269705+725910099
3248+723939712+720733412+717264146+714507987+713063235+712855289+713067851
3238+712759617+712151787+712722242+715063478+717520412+718326733+718094069
3228+718479436+719371973+719058304+717081142+715282666+715584645+717964671
3218+720852537+722381345+721101804+717300703+713849752+713887499+717441269
3208+721330448+722304659+719468910+714397574+710144769+709227141+711349114
3198+713722364+714469793+714188288+713748496+713092495+712555990+712822381
3188+713149302+712034747+709771315+708069851+707263753+705904100+703169234
3178+700401907+699837035+702107317+705459171+707737122+708538455+708569502
3168+707869201+705954951+703087038+700239153+697955917+696163025+694882887
3158+694287192+694290766+694828016+695952473+696941277+696560378+694836131
3148+693129678+692266029+692231631+693278062+695245024+696401273+695171316
3138+692395204+690035058+688523671+687042883+685685613+685543558+686814314
3128+688223031+688286911+686813719+685140844+684759200+685727307+686623939
3118+686073288+683822363+680615096+677795801+676602252+677180674+678567353
3108+679667985+679757700+678528414+676524896+675095779+675233144+676702763
3098+678390826+679090531+678121307+675876116+673688402+672624400+672408562
3088+671994457+671117704+670579635+671081371+672356297+673400717+673285316
3078+671912262+670093609+668820768+668218223+667382642+665716840+664023045
3068+663582732+664345052+665039992+665206394+665644100+666364429+665808045
3058+663099833+659690799+657613647+657187406+657447320+657941164+658749421
3048+659096742+657646555+654623930+652171909+651903433+653049184+653555461
3038+652503521+650851270+650066689+650712713+652043553+652591747+651531022
3028+649433916+647590024+646970355+647678101+648761088+648762875+647172569
3018+645071071+643799942+643528190+643644411+643641805+643171339+642027450
3008+640270146+638106257+635818404+633801558+632244309+630986433+630058605
2998+629851180+630347257+630864554+630765383+629896224+628711907+628068041
2988+628288867+628731265+628649962+627931123+626671907+624822505+622758010
2978+621421996+621386110+622159821+622750676+622729904+622382695+621883713
2968+621101589+620333015+620165460+620400172+620170262+619223523+618119801
2958+617132188+615864410+614063142+612044845+610308276+609298364+609302719
2948+609870904+609625732+607602409+604607183+602390618+601834792+602497234
2938+603247977+603071003+601911553+600700024+600118214+599875238+599489388
2928+599036567+598898048+599218418+599556991+599032659+597301339+595188822
2918+593679631+592727234+591708499+590454867+589206409+588110133+587241122
2908+586721667+586599602+586770135+586941265+586641928+585645567+584421455
2898+583583752+582939216+581780288+580048968+578404199+577209756+576292650
2888+575607835+575246703+574835948+573811444+572328535+571215059+570949673
2878+571122217+570925253+569947951+568415122+566735435+565067065+563473035
2868+562200864+561492150+561287518+561300472+561150525+560491657+559438228
2858+558685028+558604471+558470195+557388139+555830145+555210327+555885202
2848+556467757+555502293+553268307+551307859+550575357+550667976+550573459
2838+549616892+547805313+545658994+543769463+542455300+541819997+541857297
2828+542222189+542222376+541397478+539951498+538511920+537506141+536715678
2818+535602687+534172900+533052240+532502110+531980644+530952677+529535733
2808+528169901+527175103+526689784+526590576+526346372+525325255+523460628
2798+521427552+519993000+519312094+518996378+518591802+517854722+516834424
2788+515820939+515061709+514503798+513901552+513116635+512207309+511239314
2778+510162246+508970074+507867432+507128006+506808344+506619160+506081538
2768+505020403+503882731+503199405+502840320+502239079+501153672+499815276
2758+498596152+497769989+497308607+496892715+496298807+495544044+494614020
2748+493466557+492317233+491481949+490957431+490444825+489678783+488582469
2738+487299614+486167302+485400478+484753746+483778305+482429560+481113983
2728+480091601+479154652+478017948+476778462+475815790+475314203+475048407
2718+474717875+474294799+473838702+473201574+472251262+471240643+470609955
2708+470448803+470342894+469805793+468827784+467885475+467334303+466973208
2698+466341404+465231688+463789617+462334292+461155224+460285544+459478069
2688+458560850+457695786+457133148+456887529+456781844+456610938+456188457
2678+455472670+454685371+454090272+453686776+453278851+452709623+451908849
2668+450894805+449861292+449122387+448828933+448750869+448427782+447609511
2658+446529056+445635215+445045104+444388545+443286386+441896357+440807414
2648+440395319+440484773+440656796+440631519+440341862+439894662+439451335
2638+438957937+438106386+436790363+435462725+434762871+434823214+435163276
2628+435256417+434984181+434499383+433873944+433064124+432126319+431295987
2618+430773702+430458991+429998800+429186448+428225936+427490493+427132228
2608+427040725+427008227+426777312+426130803+425144828+424201626+423578681
2598+423166251+422739489+422314439+422031296+421889129+421836193+421932498
2588+422156600+422188764+421689857+420771447+419932106+419451999+419050662
2578+418309822+417258738+416272353+415545473+415023449+414733866+414765061
2568+414940583+414893231+414490890+413920434+413377117+412911676+412544737
2558+412307568+412168379+412052159+411902807+411637979+411107170+410228927
2548+409177508+408347772+408090910+408430191+408981363+409217378+408904305
2538+408222245+407454601+406747116+406206888+405950250+405938933+405978393
2528+405938301+405851452+405833844+405968603+406150006+406050649+405417765
2518+404391102+403415811+402849636+402673854+402579559+402356164+402066730
2508+401764564+401348710+400853228+400510150+400379077+400265909+400044822
2498+399751479+399408066+398991244+398507004+398019117+397663419+397568381
2488+397702023+397868871+397842031+397493593+396919936+396412691+396179654
2478+396163461+396176565+396070842+395809923+395522387+395397865+395450801
2468+395502806+395393733+395114499+394793794+394574197+394428679+394215596
2458+393953821+393783845+393646183+393327451+392827204+392384212+392161636
2448+392121208+392131929+392054647+391813458+391487244+391263998+391244380
2438+391309117+391213110+390845314+390368930+390013791+389801750+389657424
2428+389665911+389907138+390133325+389982000+389472409+388978640+388754947
2418+388729856+388710946+388613450+388507802+388535908+388769205+389111463
2408+389360023+389365793+389115260+388688573+388213863+387853252+387710787
2398+387689196+387532064+387114534+386638298+386419370+386496875+386570323
2388+386336356+385743564+384847974+383527223+381434362+378266331+374102943
2378+369424382+364738375+360252682+355905993+351573561+347265177+343250211
2368+339868725+337147111+334837518+332851459+331428112+331020410+332236444
2358+335615510+341167289+348337182+356536420+365178575+373059714+378485407
2348+380273162+378639115+375420530+372732681+370906658+368927299+366428113
2338+363882133+361553666+359267191+356986225+355053548+353822624+353313741
2328+353290586+353492315+353746831+353995987+354295398+354847501+355961646
2318+357732202+359759099+361468679+362700087+363749793+364952016+366437308
2308+368142718+369840869+371252527+372273979+373068164+373866594+374712151
2298+375469743+376044219+376472843+376840713+377216289+377612674+377969302
2288+378295665+378781282+379503472+380113126+380163717+379684913+379095732
2278+378662791+378389885+378304599+378480158+378829639+379139287+379257592
2268+379128193+378806596+378528329+378529558+378752320+378950029+379047412
2258+379144983+379247988+379267085+379240542+379339974+379681450+380237537
2248+380856796+381302618+381403464+381251618+381142210+381264126+381557394
2238+381881338+382180339+382457451+382713159+382951593+383166054+383315890
2228+383385391+383447149+383592034+383824512+384099726+384423334+384814806
2218+385192913+385400785+385377332+385249236+385219753+385393004+385719963
2208+386073203+386345737+386518504+386671206+386885071+387118368+387254505
2198+387284621+387353713+387605511+388039718+388540486+389010617+389429673
2188+389776027+389991753+390080463+390113930+390081468+389905276+389662040
2178+389594549+389854723+390360330+390888199+391241476+391400991+391536458
2168+391796706+392146820+392484276+392798540+393126876+393436934+393625745
2158+393653479+393693497+394021237+394617863+395072954+395119599+395030591
2148+395170375+395447376+395593043+395714102+396136658+396863054+397544333
2138+397902822+397940755+397816271+397724359+397852380+398262204+398774512
2128+399087771+399107055+399081406+399301562+399735062+400105501+400267919
2118+400331315+400453306+400662331+400865364+400963157+400990779+401114333
2108+401414712+401766612+402028313+402224905+402444689+402675752+402821344
2098+402801986+402633277+402450421+402417774+402581607+402848929+403108098
2088+403319916+403484530+403572719+403544390+403419384+403264151+403117628
2078+402996903+402939091+402965000+403058289+403228265+403508169+403871497
2068+404247148+404590411+404834839+404842843+404537401+404037415+403586009
2058+403361497+403353978+403405089+403408961+403441683+403584855+403708893
2048+403643263+403478909+403449277+403569816+403630457+403505973+403292219
2038+403151951+403130508+403120346+402995861+402777975+402600629+402531761
2028+402539206+402595604+402677837+402744770+402883735+403323415+404041435
2018+404508997+404177907+403161332+402099899+401463739+401272954+401321013
2008+401392450+401348933+401172927+400919081+400640442+400404316+400290701
1998+400384177+400870538+401942469+403351819+404317282+404259172+403387407
1988+402277133+401302065+400662108+400458815+400559699+400686529+400710018
1978+400712289+400796495+400920645+400937061+400880701+401148097+402054632
1968+403164719+403496815+402653826+401320529+400385703+400051448+400002570
1958+400027065+400142988+400334777+400498461+400612858+400769171+401023985
1948+401424540+402226878+403674570+405220578+405529072+404044637+401927206
1938+400600164+400261181+400270562+400222950+400193727+400310171+400503338
1928+400774271+401496312+402928407+404476946+405327082+405746809+406425220
1918+406818925+405822080+403832670+402396816+402284541+402993962+403555893
1908+403404308+402703523+401999909+401636283+401581150+401691489+402028015
1898+402835304+403994046+404785961+404954708+405450450+406890735+408049180
1888+407418008+405542809+404038978+403469119+403391018+403434275+403593678
1878+403931059+404351046+404758935+405671574+408258689+412896004+417527214
1868+418706357+415635486+411114540+407895026+406640798+406690532+407165018
1858+407456909+407417226+407259759+407225101+407556490+408637913+410819262
1848+414303828+418928597+423061534+423593013+419792024+415023412+412362775
1838+411988204+412422337+412822147+414101168+417531048+422275575+425419632
1828+425745027+424965137+423982847+421905695+418896508+416627269+415948261
1818+416232745+416729492+417641610+419678484+422701369+425171221+425568500
1808+424225488+422957672+423440944+426248476+430420723+433745551+434546139
1798+433545050+433233392+435627749+440378083+443890234+442436287+437541031
1788+433686733+432821185+434023333+436025102+438404643+440517011+441431884
1778+441741272+443732506+449138357+456931828+462701195+462554225+457995793
1768+452692351+448732070+447525752+449664141+453236487+455182491+455386119
1758+455728303+456281560+456678355+458729485+464220883+471364867+475557589
1748+474963345+472247614+470361581+470351344+471982637+474137927+475380652
1738+476414016+480397675+488378357+494868052+493432383+487052729+481064435
1728+476932430+475011777+475544820+477877158+481798612+488891931+500416368
1718+513291785+519673859+516287570+508723152+502761364+500875033+503755715
1708+510712227+519005386+525378377+530530792+538592031+550385950+559828173
1698+562272934+560207993+555484164+549639489+546613513+548599573+554527895
1688+563223247+575834431+591767875+602118420+599768138+592428456+588722989
1678+590998148+598027884+606215805+612508423+618115669+624853850+629903520
1668+629742405+627747672+629437670+635115870+640200161+641365567+641279648
1658+644782046+654896054+672315422+691280500+697103286+691150357+688932266
1648+693382147+696553379+691340136+682398607+677043755+677307466+682812936
1638+692356712+701284616+701017778+690949261+681118619+677330174+678334093
1628+680445121+681814750+683223467+684478439+683787445+682190512+683458961
1618+688424872+692066868+689262091+683167777+679286043+678930011+680565064
1608+682312093+683426276+684365793+685733188+687332281+688507291+689251519
1598+690322072+692257913+694871496+697680293+700329018+702491492+703848688
1588+704537672+705424253+707510116+710928308+714875113+719106103+725042503
1578+733866249+742594993+745224210+743038432+743371012+748744477+755149854
1568+757893207+757970713+758921397+763024329+772663628+790238602+811587204
1558+820112395+812085366+801877175+795233401+791745968+791129873+793143666
1548+797574636+805106257+816290000+830146888+844650023+855388316+854551470
1538+844268603+836790885+837157639+841993854+845225542+845682085+847352726
1528+852403066+859370710+866404169+873442839+879738474+882724840+882224370
1518+880526182+877970151+874457404+872328285+874400076+881791354+894063519
1508+907485529+911275909+899539877+884754119+876934292+876615486+881312847
1498+887009139+889054202+887007203+885785883+889166848+895810920+900271373
1488+898536405+892697389+887109798+883905509+882926086+883315845+885040017
1478+888758625+894423199+900748912+905266843+904643451+898520845+891862329
1468+889401448+891493789+894517977+894846685+894271763+897868938+907776564
1458+919457873+922135857+912956601+901431791+893776579+890815526+891323590
1448+892359076+891202084+888374152+886237884+886012591+888065174+892758142
1438+898813443+901965765+899769117+896513902+896879761+900335849+903071013
1428+903124768+902136857+901639588+901591939+902812216+906932272+912200610
1418+912737859+906888941+900041687+896477643+895962804+896077088+895584138
1408+895465684+896648959+898215292+899141332+900493168+903535821+907071871
1398+908887992+908776834+907652005+905491168+902758164+901400223+902321648
1388+903403593+901629537+897663821+895448337+897131932+901325026+905653921
1378+909540941+913790395+917980437+919944570+918965370+917351312+917164362
1368+918017365+918833067+919619063+920556867+920912155+919895803+917794156
1358+915498412+913494000+911715700+910198283+909485325+909928243+910824726
1348+910898062+909572807+907528116+906149924+906283269+907245419+907365884
1338+905810719+903345892+901106061+899509128+898486894+897952474+897714747
1328+897440240+897143994+897341293+898251848+899319721+900011757+900501953
1318+901048137+901341182+900866473+899473316+897570979+895993255+895387211
1308+895650028+896224579+896733388+896952948+896661615+896075897+895819334
1298+895878077+895310376+893682098+891922635+890887224+889934678+887872416
1288+884582953+880830395+877170084+873742883+870577607+867702324+865222085
1278+863240307+861551202+859787495+858070768+857099609+857286336+858150655
1268+858998521+859848769+861117590+862666427+863906062+864710447+865433084
1258+866209624+867094716+868449604+870298559+871864966+872647314+873400476
1248+875154951+877773596+880293145+882250652+883862848+885252579+886331322
1238+887279848+888519260+890245964+892324381+894558926+896917881+899612394
1228+902955165+906821189+910288221+912381157+913209889+913834769+915073957
1218+916963638+919197587+921473527+923562741+925572886+927880394+930538871
1208+933104060+935170342+936801449+938309858+939943570+941854693+943947480
1198+945770004+947067638+948327599+950250336+952821630+955354804+957290570
1188+958609274+959674616+960929142+962520193+964172295+965623822+966857501
1178+967868865+968894375+970512080+972867163+975266248+977064352+978565539
1168+980507783+982941786+985056537+986127835+986525709+987488232+989652493
1158+992165789+993923018+995265323+997180020+999117201+999387166+997906304
1148+996791228+998009645+1001272677+1004695634+1007058981+1008825889+1010539862
1138+1011189237+1009724979+1007228659+1005801775+1006339844+1008386024
1130+1010959030+1013254626+1014936360+1015528556+1014389581+1012289497
1121+1011378123+1012511366+1014897421+1018330206+1022518758+1025276481
1113+1024990062+1023553872+1023864190+1026125091+1028421506+1029590188
1104+1030110835+1030669006+1031415169+1032820908+1035397637+1038056338
1095+1038904501+1038213060+1038227057+1039829202+1041594845+1041814852
1087+1040408294+1039438177+1041298672+1045773271+1049590156+1049957580
1078+1047916165+1047140220+1049781872+1053967148+1055401402+1051987157
1070+1046258851+1042102686+1040934376+1042088242+1045249274+1050689374
1061+1057272395+1062326756+1064023083+1062571854+1059165575+1055107389
1053+1051827903+1050509273+1051498078+1054487050+1058999322+1064200280
1044+1068197490+1068945514+1067092465+1065750904+1066236037+1066893006
1035+1066905440+1067964006+1070963104+1073741823+1073413264+1069740072
1027+1065164813+1062089848+1060931590+1060771740+1060884982+1060884610
1018+1060634375+1060652839+1061362298+1062025372+1061536070+1059802516
1010+1057423013+1055116100+1053984272+1054599250+1055820272+1055817964
1001+1054081433+1051694558+1050256507+1050761593+1052626257+1053988963
993+1053534132+1051245013+1047563111+1043469411+1040679897+1039839030
984+1039423585+1037960145+1035960275+1034483285+1033381015+1032166991
975+1030733407+1028322484+1023952342+1018343458+1014021934+1012897551
967+1014092664+1014502451+1011819255+1006680911+1000942852+995264430+989877489
957+985919889+984317223+984222445+983486407+980464154+975387755+970445221
947+967913239+967677447+967200728+964476211+960286765+956900811+955616579
937+956127100+957231902+957628287+956720115+955123331+953993811+953850192
927+954325274+955105537+956284940+957363757+957034528+954862226+952336274
917+951153222+951240779+951377995+950994192+950467068+950049463+949234803
907+947449580+945136785+943380449+942499973+941807713+940838118+939924659
897+939337973+938759328+937864408+936782463+935773706+934775148+933481683
887+932084134+931599448+932460343+933134362+931901874+929788017+929356639
877+930768111+931382642+929456108+926392906+924893804+926172526+928967997
867+930777417+930453028+929161276+928430970+928376992+928178576+927420426
857+926579484+926319943+926595417+927018382+927853740+929689144+932176902
847+933881419+933478631+931096447+928318547+926610605+926152945+926590950
837+928125268+930671993+932854793+933662231+933974932+934891368+936212454
827+937586774+939390015+941120442+940943840+938785907+937312714+937911760
817+938479609+937100450+935260355+935082637+936108519+936988325+937726001
807+938611837+939342366+940001271+940785629+940859932+939239547+936481377
797+934499301+934631231+936258838+937523415+937505993+937230891+938166983
787+940422672+942904325+944751791+945968718+946976359+948031724+948899692
777+948789502+946847631+943041988+938542969+934806790+932342559+930773620
767+929595483+928514879+927772661+928470356+931315858+935000441+937332370
757+938087840+938901234+940342487+941257286+940809751+939378773+937568608
747+936063624+936068984+938328545+942041494+945177734+945698604+943158060
737+939402151+936766307+935848530+936084843+937149068+938440001+939251012
727+939957567+941103913+942010671+942279743+943145700+945317109+946808320
717+945046921+940993724+938266526+938269504+938869890+938130948+936966138
707+936692078+936256381+933867497+930025298+926890473+925480937+924825605
697+923371323+921007827+919097523+918279289+917494261+915388445+912064287
687+909296513+908498828+908332948+905483127+898330693+889350002+883645521
677+884784719+891203200+896985410+896732048+889231696+877215946+867250248
667+865893424+870108481+873613559+875709101+877341920+877346536+874778295
657+871599394+870112874+869617913+867845794+864582761+861867997+861081257
647+862004320+863801530+864896877+864000095+861908946+860460397+859556692
637+857930648+856727122+858080372+861116250+862862609+861813275+858066226
627+852116052+845829948+842090195+840973258+839122218+834872764+831238883
617+831685003+835803421+840681330+843992161+844623593+842123029+837048566
607+831208283+827345536+826225099+823908656+817383336+810861813
##END=
