##TITLE=<SNM>
##JCAMP-DX=4.24
##DATA TYPE=INFRARED SPECTRUM
##DATE=3/5/2025
##SAMPLING PROCEDURE=Instrument type and / or accessory
##ORIGIN=Admin
##XUNITS=1/CM
##YUNITS=ABSORBANCE
##RESOLUTION=4
##FIRSTX=4497.3318
##LASTX=599.83466
##DELTAX=-1.4281778
##MAXY=1.7144183
##MINY=0.18128106
##XFACTOR=1
##YFACTOR=1.5966765e-09
##NPOINTS=2730
##FIRSTY=0.20461832
##XYDATA=(X++(Y..Y))
4497+128152650+128058606+128274469+128198361+127439004+126207641+125151749
4487+124830418+125349824+126475692+127848790+128968330+129333944+128918428
4477+128200620+127620505+127357708+127523922+128037682+128482633+128562287
4467+128371425+128021891+127594952+127416466+127651890+127850059+127515812
4457+126814195+126300146+126247500+126435412+126494255+126369375+126278214
4447+126271774+126188192+125902903+125304384+124363545+123437414+123041076
4437+123235755+123620911+123836131+123777139+123466158+122896607+122036579
4427+121024178+120210122+119887699+120084701+120495812+120548970+119941361
4417+119169750+119017283+119544819+120042947+119881502+119063069+118066626
4407+117415975+117394230+117989035+118917107+119756296+120220388+120258026
4397+119893466+119216768+118502823+118053719+117986758+118228808+118505231
4387+118507891+118297226+118144768+117878863+117015018+115604506+114299508
4377+113603753+113536502+113867184+114377352+115028572+115872641+116687285
4367+117019554+116807274+116537674+116600930+116885220+117092404+117055979
4357+116721032+116189418+115817383+115990204+116763906+117859134+118935259
4347+119744891+120066045+119672666+118591614+117366951+116712810+116748143
4337+116856700+116504655+115942225+115788498+116111715+116429126+116639493
4327+117261185+118401508+119166288+118713218+117450879+116495071+116215857
4317+116074151+115820313+115915413+116525877+117064854+117152329+117189314
4307+117601872+118268873+118891704+119321583+119536111+119637072+119674094
4297+119444698+118851396+118268995+118111777+118290086+118476356+118679863
4287+119185438+119989042+120615465+120664779+120245287+119664509+119145915
4277+118970004+119287444+119715540+119687897+119218831+118930658+119384512
4267+120550940+121879754+122820379+123128457+122741854+121911382+121405657
4257+121793642+122632429+123088477+123035159+122932855+123148616+123820667
4247+124864641+125849651+126235153+125865610+125116304+124527892+124323013
4237+124313513+124228362+123976923+123619791+123305590+123237182+123566260
4227+124369872+125620199+126933410+127586497+127194340+126191626+125335070
4217+124941980+124888448+125059095+125420052+125780310+125816278+125379334
4207+124705426+124337301+124700844+125597643+126324308+126447741+126186026
4197+125994223+126124394+126560749+127054557+127279678+127100240+126576839
4187+125827271+125138926+124963109+125437840+126173605+126722782+126956079
4177+126973307+127062499+127643706+128789125+129966770+130628088+130745670
4167+130539335+130153525+129783533+129628341+129614949+129521306+129332143
4157+129212639+129183568+129039239+128690227+128483361+128887127+129785913
4147+130529536+130800629+130883064+131015280+131113767+131168512+131323461
4137+131563785+131770773+132005759+132413809+132971022+133530773+133983787
4127+134248469+134219016+133831134+133174295+132474648+131877380+131342276
4117+130932593+131023782+131897837+133292726+134648829+135559449+135763199
4107+135172641+134209347+133644808+133812413+134289664+134521700+134478108
4097+134486880+134620001+134587775+134289178+134111196+134440787+135106612
4087+135564657+135560551+135370893+135316531+135318873+135188441+135078615
4077+135280218+135744104+136119247+136146788+135871093+135568717+135501093
4067+135726401+136162271+136629415+136782199+136373197+135683359+135320684
4057+135562977+136185248+136858773+137480605+138120841+138746163+139116462
4047+139090051+138882120+138786620+138800311+138767367+138725183+138818183
4037+138926077+138720134+138250312+138085367+138507285+138943510+138698212
4027+137957688+137583693+138109604+139265756+140367135+140956405+141088434
4017+141081518+141114910+141147761+141025588+140612956+140099065+140058524
4007+140809613+141911076+142700969+143064568+143310650+143547166+143487699
3997+142834043+141747083+140845450+140667878+141252958+142226546+143072556
3987+143414709+143316390+143216372+143439020+143951726+144594668+145253690
3977+145773461+145899479+145408929+144414857+143534250+143458964+144235960
3967+145223602+145804464+145891052+145754590+145620005+145483842+145287708
3957+145169800+145303331+145532315+145526725+145294978+145199328+145450440
3947+145852545+146111507+146221697+146401900+146712788+146966309+147083302
3937+147241098+147572695+147932430+148001585+147630268+147098393+146833319
3927+146901195+147043377+147036919+146839600+146572304+146460453+146608879
3917+146880915+147125962+147260846+147149433+146825890+146657436+146915194
3907+147490092+148217560+149005624+149585413+149727240+149689294+149876786
3897+150295214+150710450+150999471+151080581+150759922+150027545+149353591
3887+149152706+149256802+149328122+149549622+150213189+150957960+151184630
3878+150962813+150809254+150969000+151338292+151767443+152201988+152631194
3868+153031377+153391709+153712956+153918806+153877667+153637558+153534227
3858+153906440+154755782+155600822+155790461+155705291+156211474+157092920
3848+157605075+157375101+156796834+156603182+157117782+158132330+159295510
3838+160257422+160751994+160835017+160757034+160688831+160749867+161074847
3828+161701028+162553711+163616472+164770505+165413989+165053712+164475258
3818+164771028+165782085+166627975+167025283+167288630+167695756+168253118
3808+168593572+168447629+168366080+168980035+169951243+170572422+171184566
3798+172406392+173879974+174983984+175884507+177059707+178446439+179644896
3788+180593911+181662625+183155246+185074087+187404701+190233677+193528388
3778+197126688+200857175+204506805+207987664+211584844+215689439+220432776
3768+225809555+231659012+237506210+243123005+249012182+255774872+263292701
3758+270893535+278292821+285818490+293967894+303097634+313063575+323244260
3748+333460408+344044336+354624195+363751826+371378921+379315075+388720444
3738+399614364+411688934+424665968+437771941+449444238+458231863+463934723
3728+467593331+470377025+472687555+474595888+476693523+479791166+484083495
3718+489140427+494733685+501399484+509712564+518730293+526302252+532090860
3708+537881036+544795904+552333929+559080661+563786761+566734037+569749777
3698+574482344+581053436+587763584+592609038+595614139+598221223+600497260
3688+601362207+601173912+601237896+602195833+603832250+605109175+604926406
3678+603147423+600624594+599184796+600622504+604744905+609578712+613000906
3668+614731173+615802892+616923776+618271331+619896885+621790957+623811393
3658+625885585+628386165+631762629+635415189+638301430+640258366+642314975
3648+645619840+649732908+653027544+654193075+653364414+652394047+653466028
3638+656960755+660811838+662739508+663378904+665215935+668678110+671436830
3628+671893232+671872177+673878166+678683640+684609102+688142578+687464806
3618+685240061+685410064+689101746+694968525+700714949+704290684+705047297
3608+704069090+703299710+703814795+705139429+706563137+708307888+710959320
3598+714031541+716039396+716051342+714786139+714002423+714484807+714817197
3588+713084766+710246383+709170520+710382266+712338680+714310474+716722917
3578+719638947+722205191+723285311+722531758+720683304+718940943+718639163
3568+720777078+724345271+725987736+723644952+719227267+716243370+716065528
3558+717435406+719031581+720757517+722391396+723238200+723816821+725413295
3548+727086147+725891274+721534289+717898527+718285047+721801799+725186252
3538+726567179+726342749+725266736+723542069+722102159+722606643+725350132
3528+728081004+728346647+726188873+723439560+721965157+722325246+723027954
3518+722321737+720831655+720614840+722158976+724454873+727079577+729513074
3508+729805297+726908454+722484125+719107735+718145729+719701662+723123819
3498+727052923+730387951+733064245+734627047+733436654+729274383+724965330
3488+723408949+724487052+725906356+725866188+724373792+722440597+720565638
3478+719245634+719763258+722399160+724986384+725321089+724092320+723041692
3468+722216764+721446861+722131576+725209098+729090942+731357348+731405205
3458+730172554+728602361+727572190+728115198+729932370+730389295+727101005
3448+721421103+717433688+717608768+721162627+725796380+729491572+731532950
3438+732415890+732251039+729957755+725063434+719381740+715672737+715521847
3428+718707179+723570963+727766383+729357929+728443109+727278399+727794903
3418+729322988+729758037+728886371+729124838+732096640+735832148+737121019
3408+735654082+733501832+731854888+730754834+730355398+730074300+728203746
3398+724325113+720475448+718680600+718944601+720235712+721656583+722354887
3388+722099696+721775966+722146135+722685784+722463966+721490015+720718917
3378+721351071+723724615+726659162+728769153+730246916+732165552+734067314
3368+734484519+733644061+733047969+732862213+731888859+729835087+727654839
3358+725653629+723648387+722757607+724532297+728241151+731675478+734003852
3348+734862527+733242311+729633353+726659012+726242405+728260339+731888485
3338+735859922+738100719+737607734+735837001+734675726+734680504+735475866
3328+736059640+735270848+733225065+731646061+731756559+732696913+733296440
3318+734186324+736248457+738160448+737645960+734792719+732577755+733746944
3308+737693519+740553927+739001652+734064626+729795591+728652085+729678523
3298+730575797+730000311+727869265+724966674+722811289+723003988+726008268
3288+730632465+734885672+737429219+738344413+738762887+739832927+741679589
3278+742863786+741488308+737725623+734070002+732247082+731879526+732518474
3268+734416802+736582416+736631244+734089488+731619034+731579464+733314583
3258+734753074+735124438+734853941+734116590+732922987+731790157+731329499
3248+731700265+732686536+733781064+734526329+735075087+735829386+736571142
3238+736804457+736532617+735732849+734095163+732089174+730821133+730698764
3228+731208175+731858845+732679965+733643688+734474963+735052763+735153481
3218+734153249+732039002+730118051+729597068+730068327+730295744+729795292
3208+728718757+727022910+725057387+723887227+723736486+723489657+722700865
3198+722213329+721957243+720614840+718197917+716419122+716097632+716384927
3188+716577925+717033282+718449151+720998298+723931575+725912851+725898666
3178+723668396+719875622+716221942+714745672+715628015+716500278+715285919
3168+712843537+711460817+711707721+711944918+710406979+707079417+703784184
3158+702443872+703148223+704341528+704909174+705306072+706199389+707139519
3148+707357081+706741875+705650856+704775755+704981819+706207527+707062171
3138+706696108+706039092+706073511+706429196+706426881+705907092+704587759
3128+702318740+699959381+698409794+697386194+696303312+695297032+694628295
3118+694235429+694071250+693914686+693209215+691719581+689745025+687819744
3108+686864085+687754490+689920627+691492239+691643800+691232493+690801252
3098+689882774+688357228+687008180+686417015+686318015+685958075+684679582
3088+682520463+680279965+678948537+679265622+681128486+682794021+681936764
3078+678359686+674203837+671475952+670911142+672286471+674471123+675953216
3068+676141735+675408789+674079825+672657834+672084364+672542259+672886072
3058+672034042+670240016+668672809+668204984+668514378+668205432+666376165
3048+664055630+663048380+663376440+663314845+662313269+662078236+663703455
3038+665442232+664898999+662206205+659221785+656881465+655011807+653788712
3028+653825968+654835458+655256769+653791848+650876639+648036986+646385263
3018+646220039+647120300+647967925+647780003+646746473+645792978+645452973
3008+645584600+645500830+644345602+641983257+639233944+636866821+635074213
2998+634067187+634118479+634883977+635688672+636461337+637395420+637897216
2988+636954398+634528889+631755835+629717518+628530559+627613947+626533305
2978+625504403+625055729+625298227+625764970+625909327+625536396+624802852
2968+623969077+623218548+622587888+621968613+621278149+620548936+619730690
2958+618532159+616688445+614418978+612283975+610531087+609084532+608107818
2948+607832021+607843556+607376029+606334809+605393521+605107757+605397478
2938+605797922+605725912+604680473+602639878+600191598+598132078+597013956
2928+596905511+597366393+597804204+597966405+597940162+597743654+597136699
2918+595767119+593466407+590584197+588038522+586743716+586767197+587217066
2908+587206576+586646507+585845433+584905789+583934189+583158052+582371985
2898+580962238+578879609+576877391+575455511+574280648+572849996+571243256
2888+569999592+569400662+569115607+568677721+568078269+567594541+567240947
2878+566740457+566032971+565544577+565639321+565843332+565181202+563426186
2868+561310819+559414731+557644297+555828283+554212472+553362047+553657480
2858+554611721+554922459+553773578+551749222+549957510+548803141+547999342
2848+547182850+546152530+544936266+543776895+542803765+541849225+540764141
2838+539723331+539039474+538729893+538463764+538005645+537438782+536797968
2828+535812444+534334532+532785878+531799122+531518584+531454674+530925553
2818+529609468+527789310+526045381+524674868+523530578+522452251+521592493
2808+521154383+520959406+520529994+519675612+518752766+518131177+517621019
2798+516758499+515484784+514120282+512814015+511454813+510065598+508929558
2788+508256452+507879340+507398711+506632615+505754305+504871029+503758320
2778+502240800+500558802+499136512+498182384+497621158+497279173+497072437
2768+496940698+496592667+495640927+494104816+492394522+490748473+489134155
2758+487665762+486619278+485986228+485339030+484271529+482910573+481821793
2748+481330450+481118151+480560658+479271115+477361738+475405174+473969669
2738+473046040+472198078+471267206+470470351+469771823+468712236+467045208
2728+465143109+463561232+462467599+461733869+461319538+461144757+460771154
2718+459692790+457873154+455734082+453798424+452453446+451791203+451556806
2708+451359141+450891092+449954433+448562306+447140278+446298290+446112496
2698+445871379+444924604+443577460+442646775+442323829+442004728+441105550
2688+439622710+437980543+436592597+435528978+434565853+433573796+432687497
2678+432035969+431549963+431117901+430706743+430278264+429785577+429272172
2668+428771533+428127210+427198652+426223954+425576569+425139131+424381846
2658+423142251+421848863+420884058+420204420+419662195+419276982+419062780
2648+418826814+418232140+417060487+415480326+414017570+413110702+412679572
2638+412260650+411577913+410806330+410185413+409592456+408755060+407745308
2628+406898915+406309915+405771610+405190039+404687908+404262863+403673415
2618+402762329+401690609+400773362+400205790+399949890+399764843+399365594
2608+398673711+397896603+397281995+396881887+396623113+396420222+396123407
2598+395578009+394855852+394199583+393665944+393086575+392430082+391900326
2588+391598845+391371017+391077264+390774216+390536645+390268724+389783727
2578+389054439+388348857+387983653+387921871+387831233+387554129+387218752
2568+386927574+386677535+386484649+386314571+386066398+385749463+385439732
2558+385116301+384798283+384629960+384595728+384440396+384034428+383538754
2548+383139131+382833395+382507687+382130724+381823345+381685260+381633707
2538+381554790+381498160+381544823+381598877+381474940+381140721+380777010
2528+380561166+380422595+380159378+379810376+379646570+379747922+379892801
2518+379918223+379920538+380020807+380117680+379994639+379632384+379282075
2508+379140966+379123645+379099529+379110019+379145072+378984253+378479582
2498+377765302+377074576+376573565+376359026+376366941+376343124+376122911
2488+375841365+375703467+375682561+375599501+375389741+375152544+374980114
2478+374834974+374601285+374212899+373714426+373229466+372876245+372662342
2468+372481998+372286461+372187461+372289747+372508802+372632552+372490510
2458+372078867+371616977+371386051+371405351+371418193+371267154+371063329
2448+370935846+370828894+370578668+370068548+369362965+368749402+368505261
2438+368565549+368581527+368350974+368025266+367849402+367868478+367936979
2428+367885090+367648601+367321587+367067516+366944288+366896580+366908936
2418+367010923+367122317+367073750+366832185+366574754+366464629+366444359
2408+366347785+366153442+365997550+365958578+365968881+365957122+365981648
2398+366159602+366454923+366613876+366420131+365974854+365603378+365495941
2388+365462195+364953791+363376617+360482462+356384177+351230821+345091679
2378+338112603+330527990+322531211+314305447+306138217+298402733+291440157
2368+285454481+280507749+276603115+273767531+272167362+272206279+274377156
2358+278945955+285832470+294948715+306557718+320329797+333756215+342945851
2348+345356875+341536178+334895167+329178270+325495920+322764227+320005507
2338+316992866+313739741+310199023+306490374+303277902+301474693+301381758
2328+302443194+303850104+305089176+306140326+307463579+309589492+312587798
2318+316050683+319451934+322411492+324893631+327273521+329949480+332877829
2308+335699750+338177745+340277060+342028530+343522494+344849106+345945987
2298+346700174+347229855+347864398+348777912+349758769+350453265+350811152
2288+351118680+351565077+352017522+352283502+352321765+352142094+351779130
2278+351394888+351151269+350970739+350648727+350212633+349937619+349932990
2268+349944040+349732824+349462253+349463747+349753244+350018738+350024748
2258+349854820+349774224+349942136+350259146+350481262+350484137+350376551
2248+350335711+350416121+350589595+350873120+351268412+351622529+351738515
2238+351660867+351678562+351948050+352263082+352370071+352392320+352663824
2228+353206684+353690748+353897110+353913386+353883447+353856607+353881768
2218+354026199+354299234+354659697+355042072+355336124+355455059+355473650
2208+355606434+355997732+356586545+357199287+357719897+358153266+358584657
2198+359082384+359606615+360063353+360474698+360980674+361641050+362369554
2188+363058114+363630912+364034641+364325594+364693561+365264530+365927369
2178+366440103+366701715+366872315+367215867+367875533+368811744+369867785
2168+370869099+371780821+372789639+374098220+375670541+377323384+379045101
2158+381094170+383767776+387105939+390826665+394520625+397859086+400681268
2148+403058919+405299007+407737133+410483609+413382430+416168774+418686340
2138+421032894+423496144+426311083+429482977+432829465+436191295+439596355
2128+443132742+446688953+449999043+452913954+455421440+457428101+458691176
2118+458962830+458168177+456467551+454139811+451421632+448482158+445480417
2108+442574092+439864574+437301540+434683481+431863502+428903421+425926692
2098+422914834+419745404+416343556+412722876+408919724+404977144+401060657
2088+397492987+394508716+392037963+389865854+387879277+386048704+384351475
2078+382822271+381535453+380499570+379668072+379010869+378482270+377975995
2068+377393528+376734421+376075763+375478999+374949653+374473428+374048347
2058+373685308+373401597+373181720+372959641+372710013+372524816+372497826
2048+372579244+372655324+372742901+372997718+373529379+374299804+375226383
2038+376312886+377643828+379319630+381408081+383843520+386337081+388485561
2028+390008307+390829353+390980541+390554601+389734003+388685167+387370015
2018+385642885+383611474+381658457+379995348+378485593+376999916+375629590
2008+374449611+373342054+372171185+370974184+369902539+369018405+368181792
1998+367203324+366113200+365153845+364493619+364072830+363709978+363252717
1988+362661217+362033393+361527827+361223733+361073590+360972798+360842589
1978+360673221+360503031+360348969+360176054+359943896+359652084+359332834
1968+359024410+358766606+358598917+358517574+358430370+358221021+357893820
1958+357580319+357367498+357205334+357005803+356745386+356471306+356286259
1948+356292082+356447302+356530251+356354798+355979888+355602104+355324589
1938+355167204+355160037+355265607+355347323+355337468+355303871+355291328
1928+355257506+355191245+355136742+355121549+355172729+355316377+355471783
1918+355495525+355393576+355295509+355216667+355084517+354922242+354815551
1908+354798491+354881552+355055063+355238356+355351579+355369983+355245822
1898+354947253+354598923+354407903+354468079+354736373+355085749+355323731
1888+355322163+355138609+354901934+354698894+354616431+354734955+355040878
1878+355422507+355744034+355908512+355898246+355763185+355555777+355317496
1868+355151488+355202892+355482161+355812349+356016808+356092626+356143993
1858+356230860+356356440+356499080+356614319+356684873+356742437+356816463
1848+356925505+357065756+357154117+357127799+357109022+357244270+357538621
1838+357974939+358526683+359041432+359362325+359517844+359637712+359797411
1828+359996196+360189792+360364535+360610282+361014496+361526259+362047504
1818+362562291+363117507+363752908+364447329+365082059+365524947+365813959
1808+366160759+366714594+367425589+368167831+368909923+369691361+370466826
1798+371122909+371673943+372294599+373149616+374261578+375550561+376965049
1788+378474020+379995721+381479420+383012731+384722689+386606085+388505196
1778+390207763+391624678+392873344+394113872+395357461+396558867+397782708
1768+399110888+400614447+402410900+404495842+406590416+408400085+410008840
1758+411687628+413478182+415243129+416931174+418601338+420294349+421991428
1748+423643188+425216704+426769464+428448326+430330863+432314939+434274974
1738+436270398+438458858+440884740+443394242+445784063+448053604+450256213
1728+452347614+454361666+456469194+458766285+461230991+463907098+466844855
1718+469814940+472461333+474940224+477724328+480898462+484154722+487157434
1708+489837498+492395754+495041848+497825505+500810634+504216328+508147037
1698+512350408+516619816+520925958+525163934+529278981+533339377+537376254
1688+541413803+545623184+550279336+555481744+560906754+566197337+571308771
1678+576407363+581731618+587252231+592528292+597335745+602013735+606936426
1668+612033189+617077391+622183674+627599313+633299374+639038482+644636033
1658+649859235+654418402+658517957+663266614+669423748+675545717+680496630
1648+684595588+688305189+691933783+695640323+699265483+702507632+705405371
1638+708359926+711397878+713849294+715500419+716921141+718165888+718784379
1628+718655439+718068530+717060608+715355503+713088499+710867039+708897559
1618+706826093+704462329+702084380+699639534+696609496+692899597+689098909
1608+685856088+683333147+681423023+680078081+679165277+678310336+677253137
1598+676220428+675601788+675311730+674732884+673386375+671546656+670016033
1588+669270693+669022819+668655338+667801218+666550648+665426255+665040108
1578+665549146+666412152+666842124+666851680+667215130+668688338+671650360
1568+675666817+679820651+683698761+687398731+691101240+695139274+700418247
1558+707787053+716539102+725828261+735357753+744497963+752971900+761346239
1548+769936497+778310239+785907582+792078678+795921848+797151438+797398565
1538+799017438+802121016+805401915+807819808+809376188+811167005+814106628
1528+818267330+823054885+827394326+830368442+831923554+833050262+834986517
1518+837863201+840960956+843720946+846026474+847990429+849753994+851462907
1508+853420441+856161392+859615503+862718111+864852666+866131010+866932943
1498+867842685+869526438+872089770+874748594+876590852+877342687+877596310
1488+878205020+879267967+880431259+881662342+883137119+884848645+886559649
1478+887887045+888454617+888411836+888791188+890633595+893515356+895989095
1468+897290957+897563619+897351881+897288195+897725708+898432746+898584308
1458+897354494+895627662+895782210+897965892+900313454+901441879+901230738
1448+900686833+901014371+902237241+903212537+903184838+902461821+901534458
1438+900558715+900071254+900968081+902952866+904757644+905757055+906365541
1428+907241985+908433050+909537957+910247011+910306889+909362280+907541151
1418+906031881+905714125+905766387+905052480+903690590+902685356+902518862
1408+902749490+902784282+902292416+901050581+899167335+897422958+896717935
1398+896895479+896704869+895482073+893886570+892442927+890629339+888008145
1388+885221501+883431507+883142345+884242996+886839254+890930745+895523062
1378+899037425+900829585+901761204+903089122+905179030+907599013+910022357
1368+912389854+914514703+916146043+917316427+918183838+918626054+918463741
1358+918025183+918014357+918843392+920321230+922025588+923794081+925692931
1348+927761411+930049096+932623926+935290739+937602165+939213198+939890895
1338+939563432+938907984+939065295+940121373+940879778+940708506+940506399
1328+941135716+942144832+942817751+943337242+944360245+946172041+948346315
1318+949781895+949456896+947719612+946184957+945960676+946747975+947818388
1308+948785098+949289432+949204617+949121445+949441068+949356179+947976968
1298+945951567+944706522+944571311+944627008+943952895+942312371+940097183
1288+938150549+937043851+936214144+934546743+931861564+928854372+925809029
1278+922568896+919392896+916634027+914028287+911303836+908967697+907679349
1268+907207641+906657764+905434594+903505207+901149283+898814712+896803646
1258+894885682+892404850+888862639+884616599+881048928+879496952+879801867
1248+880564976+880998756+881553188+882579924+883636227+884284955+884505503
1238+884259421+883507063+882670413+882447252+883168999+884715525+886818647
1228+889042049+890792473+891839443+892581498+893506919+894782874+896518964
1218+898798286+901263663+903347076+904977371+906542711+908286416+910150773
1208+911994524+913732704+915480068+917458358+919553641+921341247+922776080
1198+924356203+926294773+928147408+929524528+930483324+931172220+931952351
1188+933644391+936735427+940601517+944193975+947168615+949698872+951870310
1178+953786033+955526006+956941725+958133761+959729190+961958639+963990236
1168+964946269+965124186+965510332+966623451+968443609+970764891+972978512
1158+974275148+974794787+975840786+978388813+982020095+985665413+988778250
1148+991249451+992715119+993189514+994087983+996802952+1000379059+1002453363
1138+1002559531+1002629712+1004135846+1006173267+1006531789+1004515049
1130+1002435370+1003317488+1007221058+1011217432+1013069097+1013057748
1121+1012225578+1011155687+1010746023+1012222143+1015712914+1019946634
1113+1023824819+1027128191+1029112379+1028762294+1027145288+1026482897
1104+1027273331+1028497621+1029369511+1029760734+1029949178+1030451944
1095+1031395807+1032321080+1033185578+1033953465+1033646311+1032275835
1087+1032335415+1035766008+1040675858+1043753454+1045041056+1047595205
1078+1052715897+1057823299+1059781729+1058702133+1057048543+1056329186
1070+1055924001+1054358287+1051138686+1047661803+1046292298+1048267750
1061+1052431812+1056022105+1057198313+1057180320+1058732221+1062569268
1053+1066444915+1067784630+1066429311+1064559056+1064435716+1066177629
1044+1067886543+1068265372+1068680113+1070929944+1073624531+1073741823
1035+1071306758+1068762091+1066416992+1062817441+1059046544+1058234009
1027+1061311083+1066019050+1069319509+1069713719+1067763576+1064903093
1018+1061867307+1058909839+1056933715+1056773717+1057689134+1058072816
1010+1057805232+1058296873+1059468975+1058734162+1054822006+1050633306
1001+1049719830+1051768600+1053576140+1053445558+1052565530+1052038648
993+1050975701+1048723182+1046698826+1045993281+1045323647+1043454363
984+1041608297+1041208040+1041153015+1039431858+1035402036+1029179275
975+1021846903+1016472289+1015626680+1017950426+1018987242+1015744943
967+1009173142+1002289258+997323114+994272694+991273342+986947714+982309108
957+978953623+976345867+973036822+969518502+967503853+967157277+966724915
947+964753719+961880245+959771149+958794958+958135030+957633533+957660113
937+957704685+956719535+954465000+951717703+949520657+948349003+947972563
927+948085376+948850575+950627803+953394437+956419995+958294133+957877077
917+955469562+952270940+949007811+946212134+944911392+945599765+947176081
907+947843101+946877064+945367570+944940883+945531525+945574530+944532413
897+943325818+942197767+940404263+938052594+936300004+935655532+935495384
887+935174342+934919823+935375703+936150309+935580049+932756599+928932020
877+926088560+925061375+925373905+926014496+926281931+926415724+927378849
867+929756052+932668424+934080635+932791167+929873493+927553705+927128959
857+928429925+930527075+932394120+933477972+933939824+934206214+934475516
847+934546145+933805584+931797131+929104188+927091405+926733630+928321443
837+931617124+935145896+936361674+934351430+931394709+930162132+930759420
827+931706717+932177454+932132284+931744271+931530219+931979528+933024780
817+934561078+936777909+939375287+941543066+943180155+945087816+947547892
807+949429048+949223880+946764401+943330447+940299663+938360794+937478527
797+936999204+936130450+934677847+933404954+933706061+936435738+940199170
787+941733600+939804363+937256933+937233490+939294429+940476311+939166759
777+936978373+936597304+938551852+940887244+941819236+941327594+939912248
767+937877290+936227285+936196002+937532432+938859081+939806752+941376945
757+943835752+945904680+946860862+947309350+947345785+946241028+943863750
747+940986767+938771280+938544983+940956455+944525843+946527352+946279702
737+945755209+946329277+947113813+947145470+946880424+946524590+945069150
727+942089658+938905520+937186677+937284856+938296586+939153618+939589115
717+940226719+941427939+942646927+943454534+944250568+945377350+946048477
707+944974555+941910248+937963972+934418923+932048067+931091138+930768080
697+929378940+925714882+920093812+914336114+910537442+909166370+909471807
687+910910000+912275921+910524750+903784663+895272276+890087301+888485526
677+886447881+882669667+879806571+878504410+874804366+865629139+857002521
667+860003217+871848541+880574458+881324949+876937502+872364149+870239823
657+870564150+871909688+871890799+868429520+862040862+856266887+854448895
647+856644448+860507253+863686164+864405970+862034815+858276908+855612186
637+854330930+852770368+850205618+847853202+846906801+847199994+847376791
627+845218569+839699262+833029581+828581658+827267626+827589340+828170948
617+828886872+830077862+831669931+832038084+828389182+820931007+815271263
607+816681608+822388985+824281340+821405626+821620202+829069417
##END=
