##TITLE=<SNM>
##JCAMP-DX=4.24
##DATA TYPE=INFRARED SPECTRUM
##DATE=2/5/2025
##SAMPLING PROCEDURE=Instrument type and / or accessory
##ORIGIN=Admin
##XUNITS=1/CM
##YUNITS=ABSORBANCE
##RESOLUTION=4
##FIRSTX=4497.3318
##LASTX=599.83466
##DELTAX=-1.4281778
##MAXY=1.6774627
##MINY=0.30081153
##XFACTOR=1
##YFACTOR=1.5622589e-09
##NPOINTS=2730
##FIRSTY=0.30990025
##XYDATA=(X++(Y..Y))
4497+198366774+198443499+198888934+199456267+199973887+200205208+199603518
4487+197915140+195774249+194251778+194032342+195088451+196715575+197832539
4477+197722563+196776334+196248661+196935565+198257428+199000035+198820125
4467+198421523+198408818+198810015+199533908+200370753+200646789+199797792
4457+198363913+197554023+197690457+197794500+196925607+195506378+195036411
4447+196535379+199213348+200818210+199865704+197298265+195201460+194616386
4437+195446936+197418942+199919366+201620526+201419194+199587055+197535194
4427+196483396+196372429+196198070+195500464+194918995+195010219+195378394
4417+195446745+195428031+195964765+197008876+197631397+197162784+196145934
4407+195704086+196117262+196604417+196555066+196284028+196319968+196548046
4397+196447819+195845271+195028341+194396740+194303647+194884372+195798762
4387+196446293+196511019+196051601+195210388+194198956+193460717+193471991
4377+194219768+195099611+195502772+195242627+194381364+193225791+192549092
4367+193010399+194243556+195273245+195810914+196351235+197119347+197732902
4357+197854095+197622622+197419572+197451239+197568406+197471136+197171349
4347+197103189+197541966+198137208+198285508+197838815+197273160+197176328
4337+197550570+197651141+196745010+195044022+193607014+193357628+194394374
4327+196075065+197453356+197754859+196869789+195519083+194698872+194705187
4317+194932902+194833457+194537448+194335085+194356145+194971818+196530286
4307+198443042+199506934+199395623+198999787+199144654+199655253+199824766
4297+199335399+198480298+197731414+197391530+197596296+198399662+199666012
4287+200961207+201744695+201651735+200675232+199308081+198368243+198285108
4277+198660971+198870945+198833364+198856466+199052133+199187576+198992557
4267+198572380+198479001+199119091+200128425+200738718+200754437+200743430
4257+201218014+201957569+202290014+201918634+201299394+201186251+201886795
4247+202928387+203495072+203293338+202719939+202195833+201902361+202067582
4237+202723621+203343662+203446961+203234907+203089449+203036093+203097271
4227+203511706+204318487+205040930+204981202+204042393+203180730+203443794
4217+204570639+205339724+205172367+204519686+203876562+203314265+202901795
4207+202915015+203546273+204556789+205278470+205290641+205108022+205634550
4197+206913282+208014335+208126505+207263678+206075540+205411738+205745861
4187+206675876+207310110+207227146+206712254+206233512+206113464+206465539
4177+207087831+207661688+208174310+208843301+209659334+210299539+210484504
4167+210268139+209925317+209628640+209446307+209622230+210409324+211563028
4157+212415630+212509925+211910486+211059639+210531604+210642552+211214673
4147+211871608+212334574+212355158+211871685+211306698+211109639+211131080
4137+211094797+211325832+212297719+213765154+215042149+216010660+217187141
4127+218772545+220156216+220532041+219815225+218782885+218350346+218779260
4117+219593690+220226856+220583413+220869579+221061431+220847336+220103183
4107+219176775+218562819+218431859+218581304+218797077+219185493+220033116
4097+221285483+222338464+222608357+222241193+221945451+222161664+222673160
4087+223032331+223152722+223345490+223785430+224125239+223848306+223005967
4077+222445883+223162852+225299794+227785033+229143618+228806003+227507547
4067+226422919+226130000+226402030+226830181+227376702+228071981+228502688
4057+228233024+227570766+227277867+227667846+228443189+229168799+229551892
4047+229533941+229385679+229476654+229793457+229952497+229845287+229931608
4037+230512905+231105343+231119498+230819635+230979400+231797932+232672796
4027+233015141+232966497+233120691+233632130+234069534+234237273+234438682
4017+234776125+234881007+234473840+233713243+233035878+232860661+233245184
4007+233822017+234275006+234730551+235519457+236678426+237785012+238331514
3997+238276268+238021789+237840524+237698996+237620115+237742643+238078274
3987+238627599+239492047+240478051+240977949+240657942+240012338+239857151
3977+240491481+241644059+242834143+243461414+243057604+241808975+240448959
3967+239640519+239730770+240699929+242008992+242960371+243385089+243505156
3957+243397088+243121815+242919242+243058825+243880733+245514724+247136679
3947+247554109+246956788+246671366+247100033+247304551+246648093+245638168
3937+245092143+245489811+246969741+249125492+250752425+250816980+250023248
3927+250150316+251633547+252797991+252189701+250756221+250369123+251303696
3917+252037051+251108830+248711495+246184822+244564470+244125731+245101529
3907+248235386+253964076+260967644+266410245+268508099+267436099+263756790
3897+258538031+254221703+253230053+255703064+258692989+259091897+258037828
3887+258740318+261321073+263064487+263284400+263614575+263596204+261744455
3878+259799613+260576482+264074126+268487763+272635475+275049044+273821190
3868+270429610+268627288+269199238+269518615+267658587+264886419+263566540
3858+265377008+271750253+282979746+292893995+291649258+281807041+271795082
3848+265643601+264109150+266542483+271522862+277376846+282831884+286774258
3838+287785537+285630549+282074760+278621888+275461458+272818952+271636004
3828+272240593+273989005+277279689+283634182+291518528+294992822+292373781
3818+288803131+286603924+283474550+278804163+275266458+275229145+279094983
3808+284565760+287975252+289320293+291765834+295498081+297024958+295440565
3798+293133786+290772239+287731456+284819229+283462303+283858540+285370099
3788+287580008+290135124+292431716+294579570+297645763+301621996+304333978
3778+304189073+302807654+303230902+307325563+314616594+322022960+326141180
3768+326810610+326094595+325453398+326470706+331087241+338869547+345839273
3758+348901841+350347377+354677421+364039065+376404903+385793902+389021214
3748+390444774+394418623+399587267+401153404+399558729+399933581+405337018
3738+415864880+428639908+438619170+442483330+441401543+439391422+440111290
3728+444937703+452907950+462432010+472983527+483922029+493287640+500109219
3718+506263771+514889332+528603454+548245729+570383392+587907840+597958944
3708+604157105+610432030+618409144+627526190+636012950+643272104+649605555
3698+653636481+653862575+652062371+652208420+656283451+661474452+662379896
3688+659017103+657375385+660268975+665571307+671038001+677398846+686483500
3678+697025211+703108838+700887120+696092527+694291101+693824644+691453978
3668+688732229+689454234+693852648+698510273+700431422+700662552+702751650
3658+708243068+715218021+721450520+727473559+734846905+742839624+746585472
3648+742087555+733189850+726470444+724896105+727233883+730274590+731755913
3638+732060373+733567792+737783378+743910880+750430593+755255633+753981861
3628+744599081+733565274+728272785+731599639+742910283+757280481+765675179
3618+764346925+759901812+757908859+757780818+757696348+757760368+758062997
3608+757999205+758076426+759250466+760718512+760526679+758647270+757557395
3598+758910448+761044261+761305608+760076018+759815892+761353070+763362810
3588+764167759+762836072+759142570+754202003+750750543+751351298+756231125
3578+763114969+768561672+769448268+765399258+760218175+758939978+762765413
3568+767556039+768369610+765219023+761112250+757676356+755788781+756811430
3558+760927742+765759268+768569608+768884827+767848671+766644719+766159339
3548+766709503+767700867+768089645+766999846+764715482+763587683+765847172
3538+770170349+772499429+770833064+766988629+763691535+762220972+762274538
3528+763096656+764747759+766994581+767343298+763963413+760110661+760464109
3518+764578361+768581969+771060760+772934524+773889108+772835021+770152188
3508+766972453+763079564+757954642+753258636+752067732+755387337+760392381
3498+763654222+765364004+768215168+772260210+773564046+769902745+764881599
3488+763414851+766132327+769883287+771337979+769357617+765730501+763719463
3478+764710446+766780315+767422275+766627474+765990245+765703259+764287941
3468+761453412+759259547+759469540+761032205+761040446+758142889+754376820
3458+752585848+753589192+756407468+760014897+764302134+768775938+772158495
3448+773627685+773022962+770575609+767323306+765038942+765305554+768180067
3438+771651519+773367406+772757800+770994146+769319235+768568310+769812170
3428+773348330+777281126+779017692+778246470+776884642+776057335+775023698
3418+773214260+771039319+768738854+766179331+763735182+762533062+762768465
3408+762696356+761137659+759316013+758880612+759530050+760000475+761481493
3398+766571313+773740846+777289673+775020798+770990483+769025458+769102450
3388+769916556+770689991+770497472+768866818+767299117+768332144+772783973
3378+778299121+781103967+780024393+777199022+774803556+773148485+771473803
3368+769466429+767708803+766920259+767315447+769335717+773691248+779067901
3358+781933334+780834913+778594729+777821981+778222586+779199300+780724575
3348+781611552+780391805+778260587+778350551+781838867+786667112+790137420
3338+791680092+791797908+789615336+784903763+780754487+780373111+783058614
3328+785557626+785814395+784304915+783341174+784726581+787196139+787725777
3318+785506731+782669913+781507319+782489221+784180156+784703842+784096906
3308+784279429+786173566+788512794+789961993+790699182+791270788+790917874
3298+788012763+782634125+777613591+776122043+778753216+783183832+786431937
3288+787553860+788248548+790384650+793256263+794685240+794014742+792110533
3278+788992300+784281337+780041715+779890324+784595945+790497048+793086330
3268+791024092+786105425+781493355+780432400+784391522+791748310+799126996
3258+803574170+803629263+800600460+797824229+796822793+795969542+793852440
3248+791675514+791143510+792264594+793901199+794648919+793280147+790193657
3238+787778276+788039470+790550539+793306396+794825872+794999925+794306688
3228+793178660+792390651+792965691+795006869+797155486+798059785+797911294
3218+797965852+799098763+800858907+801626009+800374900+798060166+796205708
3208+794948114+793364999+791410123+790554278+791782037+794105622+795829521
3198+796723748+797779209+798830549+798358445+796114981+793878384+792869241
3188+792534640+792300229+792597440+793806122+795141625+795174436+793588575
3178+791985239+792424073+795336433+799079305+801160391+800250675+797435299
3168+794785277+792951346+791009365+788492879+786332511+785605394+786403933
3158+788121041+790457293+793842596+798086949+800824570+799478155+795099581
3148+791453388+790185721+789746276+789335752+790607463+794004975+796334741
3138+794435492+789798622+786579665+786597902+788307532+789182225+788068390
3128+785799058+784129794+783870583+784208007+784371378+784952980+786731437
3118+789530255+792880152+796195178+798090688+797379138+794655558+791278114
3108+787860991+785136266+784436848+785852930+787375076+787303501+786362194
3098+786322362+787445659+788242748+787668395+786748530+787095416+788497610
3088+789457459+789678288+790425168+792427430+794510729+794555902+791672233
3078+787156155+782986429+780041486+778208623+777420384+777972380+780096884
3068+783144000+785311235+785458353+784896437+785579297+787099536+787577744
3058+786853298+786387146+786688706+786697329+785639884+784056159+782754917
3048+781970266+781536239+781034147+779938778+778440821+777507907+777508365
3038+777830146+777948878+778011525+778602970+780339383+783073112+785354958
3028+785724736+784192899+781783851+779290485+777127828+775740361+774861625
3018+773226393+770478853+768296128+768461711+770498006+772083257+771916453
3008+771150878+771391088+772143996+771428936+768808673+766145451+765068320
2998+765409101+766274408+767147498+767798615+768149392+768102464+767287214
2988+765695705+764300608+763843918+763569599+762308189+760229850+758672450
2978+758577373+759465801+759827490+758707475+756879266+755936890+756447452
2968+757672388+758664896+758836660+757919466+756371986+755678977+756862631
2958+758682294+759005143+757808746+756909254+757062705+757426912+757327104
2948+756540774+754658006+751908711+749531941+748169884+747092981+745526730
2938+743651669+742189423+741817280+742735390+744222741+744930858+744021065
2928+741834601+739490718+737847780+736695182+735267731+733496141+732081891
2918+731573466+731977428+732893173+733719183+734106205+734211049+734011968
2908+732839454+730287714+726982227+724202180+723255837+724691453+727379780
2898+728817685+727314691+723817905+720753467+719187750+717851103+715129049
2888+711371755+708631922+708375611+709793905+710633879+709779407+708292056
2878+707538537+707625678+708088473+708496021+708061384+706169536+703527985
2868+701704812+701461779+702004923+701910838+700675830+698953610+697119754
2858+694866370+692673038+691745695+691997122+691973010+691073441+690042704
2848+689259654+688254250+686909209+685801327+685365697+685447650+685450168
2838+684558001+682209387+678852470+675856860+674076876+672965407+671640282
2828+670046408+668545475+667200128+665904152+664657240+663537835+662820867
2818+662858180+663456417+663778733+663196901+661831105+660162986+658514554
2808+656947234+655378388+653742241+652101821+650494899+648914607+647598944
2798+646899144+646671219+646165770+644786773+642714767+640641617+639101157
2788+638054052+637067419+635925809+634901481+634397177+634436322+634387677
2778+633414054+631548684+629800367+628711370+627652285+626064478+624400860
2768+623363904+623028540+622872304+622202683+620822809+619397685+618616238
2758+618139632+617082951+615323799+613449921+611591228+609278325+606576073
2748+604511164+603887593+604280263+604568126+603966951+602356214+600102372
2738+597797672+595946304+594815492+594370095+594057547+593076637+591256822
2728+589353338+588191049+587764118+587399453+586622470+585621568+584874993
2718+584559469+584381753+583690652+581865648+579101702+576511924+574886345
2708+573827603+572633495+571474297+571076362+571580820+572209502+572033389
2698+570817304+568935720+566742083+564512926+562773728+561940011+561587441
2688+560734228+559013801+557024550+555486837+554638050+554427370+554656096
2678+554790661+554209174+552916059+551592040+550706703+549994046+548964949
2668+547581030+546201232+545085604+544175124+543251176+542188695+541157042
2658+540565558+540554494+540567504+539848513+538351967+536671792+535152087
2648+533655503+532141025+530863362+529972569+529327481+528757973+528266717
2638+527890300+527522698+527003971+526291085+525442184+524547232+523755026
2628+523209479+522866561+522491556+521858143+520873303+519588810+518206723
2618+516997659+516117587+515488255+514859344+514016890+512980697+511965106
2608+511134938+510521249+510138843+509942890+509721908+509307072+508830391
2598+508517117+508314869+507956270+507260896+506214745+504961156+503812717
2588+502980069+502240018+501245831+500192545+499715596+499984574+500320013
2578+499999186+499133956+498369868+497950149+497526576+496790302+495841936
2568+494925199+494201134+493808961+493751350+493679966+493178218+492304517
2558+491484193+490898012+490349755+489671283+488907119+488143070+487403363
2548+486722754+486248018+486185638+486517072+486848353+486754039+486200021
2538+485512850+485051926+484897712+484738729+484215348+483415053+482749248
2528+482439523+482440133+482592020+482567449+482054332+481185820+480366144
2518+479666649+478865744+478028442+477590752+477808262+478382958+478732896
2508+478553616+478057591+477683197+477654010+477791894+477657710+476962756
2498+475957199+475268540+475219323+475465676+475428057+474878656+473990534
2488+473059528+472325276+471883466+471673015+471619448+471701171+471790983
2478+471677860+471364282+471036778+470708053+470253041+469767966+469518103
2468+469586129+469848545+470145450+470252774+469911688+469110592+468211177
2458+467699203+467827893+468401598+468897547+468949778+468644174+468201066
2448+467647468+467020502+466555152+466426691+466553969+466720392+466686665
2438+466301473+465681451+465124305+464786538+464623930+464571852+464595239
2428+464669370+464790887+464908207+464939454+464970396+465216978+465660429
2418+465969811+465899304+465507093+464886422+464017796+463091139+462633915
2408+462992361+463891052+464745485+465191836+465147693+464694093+464106005
2398+463711276+463581632+463566295+463590331+463711467+463945840+464184295
2388+464205050+463678808+462311676+460092057+457240970+453849868+449779225
2378+445020762+439912513+434789576+429707463+424793947+420448336+416755368
2368+413249273+409839895+407237488+405829342+405207031+405390050+407260990
2358+411286308+416867079+423267603+430431795+438377700+446062755+451567983
2348+453404586+451548983+447704510+444206847+442072995+440667597+439012678
2338+436827549+434603848+432803415+431329989+430083650+429396021+429479194
2328+430060758+430857466+431844099+432996850+434291033+435938817+438148440
2318+440626697+442738725+444253622+445625790+447449725+449866022+452546413
2308+455024671+456999234+458506272+459842309+461269836+462828953+464377463
2298+465682749+466547254+467018595+467427555+468097901+469053706+470060102
2288+470886150+471468172+471828678+471917384+471680149+471308502+471230251
2278+471700866+472507608+473190697+473474364+473459713+473499011+473860967
2268+474435244+474866524+475048703+475282657+475851707+476669132+477420362
2258+477842752+477882507+477791245+477973425+478552624+479240558+479741238
2248+480026774+480148749+480107124+479992437+480010903+480324023+480968082
2238+481864559+482832841+483647290+484137096+484308097+484419542+484817591
2228+485599839+486516042+487210958+487509504+487554372+487716598+488229525
2218+488891210+489284451+489277889+489147711+489245078+489710542+490437125
2208+491118001+491425742+491365118+491359433+491785715+492542515+493237660
2198+493662683+493965159+494444320+495205394+496030793+496675271+497157332
2188+497583996+497892690+497994711+497957588+497868311+497736302+497657096
2178+497883724+498607484+499716435+500822258+501537357+501772684+501824877
2168+502129718+502833791+503668728+504299738+504616750+504654636+504554676
2158+504621710+505056043+505667061+506133098+506389447+506558884+506768152
2148+507136556+507627965+507935363+507878210+507837691+508366681+509415541
2138+510371117+510805411+510754630+510397138+509962767+509769332+509905424
2128+510122170+510284968+510537884+510927691+511350272+511823749+512346940
2118+512685432+512724767+512746209+512975966+513187447+513095155+512816563
2108+512586921+512334197+511926266+511562898+511535505+511818027+512179334
2098+512494172+512769940+513056888+513430862+513900982+514271408+514251607
2088+513815787+513316289+513050478+512866658+512482497+512004327+511724972
2078+511590407+511335431+511015405+510935665+511109757+511224559+511152831
2068+511073626+511048712+510898428+510566079+510241932+510074899+510035105
2058+510020607+509932474+509745792+509570518+509500698+509434999+509193262
2048+508743402+508227308+507816287+507555131+507341895+507095542+506860139
2038+506648963+506325350+505793308+505199917+504791567+504602863+504405117
2028+503986465+503386092+502804490+502419413+502358139+502630894+502948479
2018+502825283+502092862+501168037+500601391+500473617+500395861+499984078
2008+499188781+498227558+497355803+496716476+496315070+496074325+495887071
1998+495706112+495686043+496040407+496547497+496521973+495645220+494426465
1988+493469820+492832515+492348050+491998875+491750996+491435281+490944673
1978+490363262+489860331+489483304+489088803+488637913+488466072+488850768
1968+489331799+489015703+487722855+486269154+485446655+485259248+485240820
1958+485093169+484848495+484655098+484562577+484463151+484235111+483917412
1948+483729853+483999326+484870814+485761302+485501481+483740459+481649873
1938+480510209+480404564+480631154+480659196+480394491+479941999+479376421
1928+478795162+478600925+479246128+480429859+481249459+481433966+481397454
1918+481015887+479725138+477873312+476602631+476478520+477013538+477312542
1908+476954858+476282796+475846670+475710694+475469682+474874574+474250927
1898+474150432+474583010+474952215+475086475+475667161+476896027+477604754
1888+476791488+475208221+474178170+473943644+473933076+473758793+473499239
1878+473422857+473632965+474023536+474850995+477007509+480863695+484690732
1868+485452836+482453868+478276283+475430346+474396366+474376221+474501134
1858+474376717+474116248+474027618+474209836+474617919+475399061+476926282
1848+479647153+483604597+487313932+487942119+484863031+481025387+479011298
1838+478880662+479423005+480060425+481521336+484621447+488477938+490765583
1828+490694467+489747017+488722116+487091081+485119227+484032863+484234043
1818+484953987+485488127+486078810+487435678+489583608+491447833+491956563
1808+491399417+491088357+492089717+494629591+498019129+500841563+501947119
1798+501762917+502138837+504717092+509178879+512385283+511154968+507009240
1788+504138657+504395197+506690435+509306653+511597236+513350398+514235697
1778+514833018+516893959+521845819+528994902+534730765+535570090+532480471
1768+528551070+525788536+525638671+528665681+533046316+535850742+536862327
1758+537941404+539519292+541326326+544543223+550433948+557724883+562914893
1748+564182751+563106230+562126655+562771400+565456408+569293556+572665048
1738+575759550+581145932+589778399+597097338+597790423+594488293+591785621
1728+590911767+592061885+595403847+600321980+606401829+614904117+627260303
1718+641332108+650454151+651423616+648918880+647837857+649780601+654871184
1708+662836967+672367399+681401462+690069716+701033780+714737219+726375520
1698+732491195+735097722+735084826+733320104+733694917+738666235+746980125
1688+756801129+768864529+783279595+793680218+794415042+790779837+789358567
1678+792398740+799436035+807881704+814986301+821118763+827684870+832949660
1668+834288215+833872883+835742220+840299732+844458317+845979396+846478893
1658+848975235+855609407+867036722+879173452+882408586+878460452+877583241
1648+881251181+883782928+880408918+874403353+870847354+871221023+875349239
1638+882292372+888203090+886628598+877756608+869194343+864889022+863971979
1628+864316729+864602570+864073161+861023374+854688015+848448191+846193204
1618+846937414+844960180+837187222+828138203+822100131+819041950+817136520
1608+815036434+812493088+809753331+807080494+804644358+802310242+799876853
1598+797631175+795995791+794738502+793237568+791392496+789705987+788677615
1588+788480822+789049376+790143066+791341447+792516098+794561702+798882894
1578+805400929+810823214+811217180+808771658+808716413+811895385+814799199
1568+814847425+814324425+816225353+821281981+830113834+843874121+858866593
1558+863085536+855680371+848083602+844647632+844606808+846306442+848215687
1548+850342480+854537769+862301723+873223361+885359481+894419030+894276720
1538+887286048+882568370+882923802+885147809+885603812+885285235+887639648
1528+893149990+899256737+904404244+909890168+915853307+919249522+918965894
1518+917443595+915647968+913443572+912577655+915130692+921370592+930375125
1508+939402855+941182838+932281929+922039183+917606660+918976805+923748278
1498+928491289+929655410+927256892+925532154+927616750+932374030+935267772
1488+932924041+927305804+922689460+921195165+922093284+923483879+924594433
1478+926380978+929985813+935468685+941244799+943722674+940569035+934810090
1468+931222729+931539093+933759207+934939810+935664485+939097327+946321037
1458+953527196+953426473+945614446+937324440+932325576+930843642+932259419
1448+934473200+934496626+931820355+928677857+926927862+927331748+930569552
1438+936273557+941178260+941885538+940024365+938957153+938999884+938623468
1428+937677048+937495899+938278185+938950286+939711664+942186716+946019553
1418+947641355+945281600+941585427+939146162+937990512+936859814+935661738
1408+935994049+938557006+941231064+941542315+940337981+940394448+942863777
1398+946585360+949344269+949189827+945943323+942007245+939991248+939833524
1388+938928386+935123325+929957199+927129843+928446422+932927704+938380206
1378+943023256+946102497+947504233+947314003+946010015+944441245+943276820
1368+943072168+944423771+947076616+949210200+948480565+944277264+938686344
1358+934815050+934204528+935510271+936012286+934648245+932457050+930455170
1348+928618110+926539008+924169410+922087790+921127864+921415841+921925335
1338+921460633+919950390+918224813+916835514+915652013+914387322+912955445
1328+911241313+909014559+906314405+903798758+902538569+903232722+905371114
1318+907379557+907895612+906762549+904882147+903425852+902944134+902862640
1308+902121635+900541877+899011185+898249272+898082620+897940768+897513227
1298+896890191+896326368+895784674+894671526+892413258+889303495+886310784
1288+884009633+881976009+879346666+876009130+873038778+871617660+871649479
1278+871845661+871204159+870022184+869288352+869375569+869751451+869970906
1268+870354724+871466193+873386121+875561369+877065888+877298850+876692982
1258+876255598+876427438+877062073+878196129+880008390+882262461+884499515
1248+886616999+888716704+890543615+891603502+891940010+892401354+893798741
1238+895987189+898083460+899529377+900638099+902031594+903822337+905577445
1228+907014281+908470881+910391496+912451751+913789771+914350313+915370826
1218+917950036+921566393+924664023+926542441+927980804+930042814+932933732
1208+936046471+938670320+940611232+942387935+944736625+947714532+950547229
1198+952595427+954030967+955122139+955536021+955116034+954856060+956227427
1188+959545047+963478607+966401269+968078545+969740178+972490999+975820752
1178+977965553+978192792+978065437+979410860+981763518+983075213+982645688
1168+981896137+982267441+983803628+985904248+988273006+990558210+991920114
1158+992021830+991903480+992663714+993762211+993972204+993415478+993066455
1148+993389686+994497951+996262520+997986496+999355725+1001491217+1005454384
1138+1010131238+1013106321+1013548132+1012898007+1012712965+1013420854
1130+1014905763+1016651943+1017692601+1017779284+1018168748+1020270284
1121+1024120289+1028666889+1032782896+1035433070+1035801550+1034007679
1113+1031345983+1029558140+1030241076+1034129768+1039975397+1044466065
1104+1044555572+1040632389+1036162934+1033945643+1034111684+1035542569
1095+1037988549+1042002840+1046789879+1049751076+1049699569+1048633883
1087+1048510802+1048979396+1049584195+1050924352+1052394229+1052097858
1078+1050125737+1048788174+1049001448+1049225253+1048278757+1047437944
1070+1049183514+1053957505+1058358361+1058541189+1055630355+1054632124
1061+1058121889+1063530897+1066711167+1066681484+1065683023+1065630678
1053+1066087520+1065634188+1064500819+1064628173+1066873087+1069751186
1044+1071600456+1072455919+1073094598+1073741823+1073468343+1071124995
1035+1067293990+1064717832+1066049062+1070327981+1073242326+1072006784
1027+1068227056+1065080666+1063747986+1063574925+1064044968+1064940721
1018+1065148502+1063626508+1061639507+1061650495+1063876485+1065876916
1010+1065583902+1063382711+1061563735+1062255904+1064904857+1066425096
1001+1064895853+1061586169+1058751106+1057274057+1056598446+1055945345
993+1055669576+1056748539+1058241995+1057241627+1052950651+1048512176
984+1047139741+1048666695+1050884979+1052499531+1053189411+1051824455
975+1047335389+1041221393+1036252746+1032789077+1028838730+1023636129
967+1019208032+1017810798+1018697242+1018334561+1014418169+1008523018
958+1003664099+1001032391+999833399+998293550+994693675+988850259+982370454
948+977000896+973205602+970588545+968867622+968107007+968222991+968197811
938+966444458+962883422+959813109+959534669+961735555+964031671+964803351
928+964574510+964337275+963841822+962360347+960188915+958491799+957983374
918+958223813+958138733+957208947+955970429+955043315+954268506+953291641
908+952334385+951828402+951646871+951319443+950974388+951165305+951497312
898+950537615+947448988+942934589+938687184+936509266+937350460+940091590
888+941815718+940754458+938455825+937468886+937846600+937546031+935729116
878+934132419+934751869+937233941+939260697+938890157+936108584+932729157
868+930947571+931215938+931630354+930444868+928604451+928257260+929627329
858+930976033+930955277+929677691+928010869+926923512+927243538+929207724
848+931918866+933360434+931763126+927839562+924524994+923615964+923818632
838+922800790+920651487+920003499+922488166+926646904+930113778+932297190
828+933490840+933221328+931402505+929449460+928901433+929756744+930623348
818+930288671+928840541+927366238+926985549+928418723+931763050+936220067
808+940719281+944737311+947645475+948192587+946114172+943060570+940522718
798+938392338+936464474+935607942+936581909+938753341+940413295+939972935
788+937249889+933931964+932144731+932152972+932243928+931536193+931880103
778+935088606+939274661+940736068+938937848+936478820+934960412+933880152
768+932545412+930978017+929740185+929875780+932090783+935665401+939013696
758+940956592+940953921+939076648+936213734+933583781+931806849+930678288
748+929889287+929707068+930744445+933259710+936731010+939800255+941161320
738+940843278+940139892+940090217+940321652+940196282+939823605+939318461
728+938461548+937212957+936083251+935822590+936563290+937603108+938192417
718+938083758+937269957+936229224+936260509+937854307+939132656+937936717
708+934993147+932879021+932302226+931234251+927609272+921782338+916484432
698+914692316+916538380+918188644+915472770+909182432+904181203+903053175
688+903354506+901380859+896993051+893362730+892559536+892549998+889690822
678+884980241+883713109+887787529+891938331+888692362+876075898+859037136
668+847802492+850779178+861950259+870563649+873466166+872641377+871005459
658+869599603+867161406+862928499+858802877+857218999+857883546+857908803
648+854671304+847799898+839049615+831427208+828349875+831427132+837689237
638+841146420+839246331+835099344+831818122+829323383+826959508+824874836
628+823888584+825087347+828171396+830395555+828538502+821965451+813222265
618+806404197+804118535+805631067+808343659+810568276+811486539+810655951
608+810547368+816120052+828051138+838528142+838341269+828836705+819474756
##END=
