##TITLE=<SNM>
##JCAMP-DX=4.24
##DATA TYPE=INFRARED SPECTRUM
##DATE=3/5/2025
##SAMPLING PROCEDURE=Instrument type and / or accessory
##ORIGIN=Admin
##XUNITS=1/CM
##YUNITS=ABSORBANCE
##RESOLUTION=4
##FIRSTX=4497.3318
##LASTX=599.83466
##DELTAX=-1.4281778
##MAXY=1.7134613
##MINY=0.18226433
##XFACTOR=1
##YFACTOR=1.5957852e-09
##NPOINTS=2730
##FIRSTY=0.20200391
##XYDATA=(X++(Y..Y))
4497+126585906+126447192+126219340+125812211+125661993+125613250+125042148
4487+124253205+124373177+125743223+127471262+128520964+128523906+127746196
4477+126826317+126399205+126698174+127500564+128276509+128351753+127373196
4467+125828412+124798973+125036424+126430328+128335328+130088804+131138664
4457+131076381+129919761+128300601+127089037+126703217+126785651+126694607
4447+126324568+126052193+125864419+125260485+124282096+123865657+124686041
4437+126197564+127257389+127318887+126614853+125543310+124395962+123445259
4427+122772432+122167378+121532481+120991428+120378354+119342070+118200810
4417+117871801+118740303+120242544+121546982+122100426+121676675+120412138
4407+118810701+117543558+117125149+117598950+118483336+119113331+119149141
4397+118850359+118772220+119101191+119511337+119733941+119828104+119813761
4387+119543926+118995627+118314610+117667929+117213765+116992515+116826087
4377+116566486+116312310+116210201+116256900+116366852+116463265+116545055
4367+116772618+117356270+118222997+118907179+118911176+118130917+116910398
4357+115823998+115429783+115967530+117128735+118261049+118885282+118891464
4347+118299829+117161445+115762182+114635256+114216081+114575494+115504140
4337+116670911+117667406+118138200+117987058+117393920+116671938+116160804
4327+116099044+116456794+116957432+117276954+117243310+117014356+116970823
4317+117245383+117608578+117920106+118277128+118669700+118973954+119251923
4307+119569595+119682714+119349690+118757840+118369685+118499481+119058181
4297+119561397+119545765+119108587+118764591+118762004+119004171+119559053
4287+120525751+121382991+121255315+120055526+118746298+118242709+118515953
4277+118962375+119312553+119850197+120765724+121630360+121790111+121199242
4267+120530859+120406255+120793205+121213902+121289688+121011645+120693505
4257+120746357+121338553+122196811+122830532+123003533+122919428+122900948
4247+123046992+123362956+124018770+125054783+125943071+126023432+125348317
4237+124526654+123904092+123490043+123424417+123826018+124359703+124547449
4227+124384915+124237536+124297541+124508744+124868437+125364957+125673628
4217+125416931+124826146+124650287+125206410+125951811+126220881+126006858
4207+125830933+126122217+126826775+127474605+127666787+127527728+127502226
4197+127758073+128047798+128103713+127899513+127590506+127374130+127301304
4187+127204546+126970988+126799452+126920144+127183059+127273207+127242261
4177+127475147+128149636+129029567+129833545+130534190+131152195+131510665
4167+131466217+131184345+130910289+130697816+130601627+130768943+131102219
4157+131245218+131099063+130978399+131138926+131443180+131595303+131542357
4147+131509768+131620487+131659089+131396547+130946772+130576070+130365399
4137+130273104+130357257+130713495+131246610+131681640+131897727+132096725
4127+132412026+132565717+132300514+131949561+132075612+132644809+133074778
4117+133136128+133331662+134174363+135410411+136236799+136200223+135627795
4107+135141453+134991058+135072512+135430973+136248359+137217093+137475284
4097+136523395+134881227+133562269+133198308+133780699+134859498+135864845
4087+136458115+136659037+136616372+136395719+136073639+135810919+135726123
4077+135869225+136266801+136836950+137358477+137618442+137537091+137214030
4067+136920318+136877402+136984843+136986159+136891614+136942215+137194720
4057+137433236+137449717+137251036+137073953+137268712+138019175+139091895
4047+140001726+140491224+140684096+140712138+140497116+140051067+139598014
4037+139222549+138829492+138584347+138893830+139818723+140896046+141603256
4027+141769254+141614639+141507496+141560218+141554372+141443252+141638982
4017+142445275+143443853+143839973+143295325+142178139+141173697+140838507
4007+141275143+142000365+142365344+142295777+142327329+142743339+143112444
3997+142957259+142412341+141885996+141539394+141438835+141736833+142388529
3987+143082152+143595611+143900416+143978565+143870769+143810671+144069272
3977+144708008+145565238+146387826+146913770+146924125+146388405+145614598
3967+145104202+145157120+145669551+146290031+146692575+146752113+146536970
3957+146168714+145772025+145591104+146012810+147231788+148747111+149509180
3947+149120615+148479966+148508875+148918442+148925903+148514786+148213193
3937+148359237+149128244+150462582+151699974+151993807+151354633+150658424
3927+150574514+150983987+151302127+151263664+151331886+152058668+153215783
3917+153813273+153108221+151549299+150339248+150126121+150544390+151193911
3907+152581941+155384857+159021164+161835174+162907996+162425399+160550326
3897+157753854+155529201+155276267+156765202+158044689+157676910+156955750
3887+157706156+159290280+159856993+159753717+160410707+160951535+159723836
3878+157842320+157560094+159208332+161693481+164082433+165379214+164725155
3868+163269426+163009461+163919058+164212247+163070736+161632655+161368824
3858+163350740+168415632+175681729+179675815+175610631+168003423+162473433
3848+160534732+161567738+164116311+166774509+169272545+172229759+175337256
3838+176814089+175845178+173880705+172208899+170679214+169088665+168030708
3828+167835155+168287461+169983415+173918729+178633434+180396564+179060415
3818+177873503+177105579+174710520+171245758+169279380+170162122+173473838
3808+177213916+179374203+180828401+183577214+186568511+186852306+184799965
3798+182835193+181245316+179445339+178122094+178154497+179314105+180966582
3788+182934043+185184608+187473384+189897968+192976985+196493610+199257213
3778+200920336+202717307+205774398+210309649+216054801+222255284+228021129
3768+233359544+238638328+243609207+248517223+254691094+262675176+271097016
3758+278625394+286218595+295947113+308869560+323937334+337513821+346815937
3748+354128200+362950801+373235032+381714448+387922047+395136413+405281846
3738+418399547+433551511+448212455+458968882+464878753+468120173+470950281
3728+474207912+477896427+481608100+484598445+486211274+486998415+488876214
3718+493173555+499608362+507891834+518583418+530720423+540328334+545041545
3708+547480846+551590833+558994084+568221050+576237011+581594868+585454676
3698+589138784+592896959+596675155+600957817+606936042+614774660+621191276
3688+622062159+618217739+613650535+611037924+610855463+612037669+614147494
3678+617852743+621422742+621597173+620736263+623471311+628174400+628977826
3668+625263053+621813026+621460317+623794026+627231653+630771510+634545784
3658+638750868+642638316+645645319+648798814+653384433+658438138+660499257
3648+658509255+655683779+654492273+654904183+656071635+657720097+660145765
3638+663525833+667366816+670945817+674782543+680454710+688149526+695239623
3628+698707691+698720914+697438270+696489846+696326098+696243402+695401280
3618+694433732+695116588+698349492+702928985+706294337+707703527+708645676
3608+709533964+709319867+708589275+709594025+712628743+714900449+714711377
3598+714445660+716858927+721109056+723896434+723380165+720252815+716000744
3588+712473213+711668367+713811808+717261126+720574111+723120200+724208467
3578+723355662+721787057+721583866+722564039+722667801+722204944+724491067
3568+730397054+734687971+732505908+726617626+722479102+721588124+722231612
3558+723304117+724712112+725062616+722143314+716686514+713140904+715233399
3548+722115973+728842568+731170375+729945327+728683601+728528144+727897430
3538+725710512+723222617+722267320+722802938+723263629+722773356+721863179
3528+721266007+721493252+723213802+726768973+731303495+735047141+736821925
3518+736495251+734271579+730890465+727926564+726683364+726427657+725360157
3508+723596055+722883243+723393462+723405414+722289507+721299025+721823064
3498+723508504+724068325+722203823+720183417+721066700+724417485+727182004
3488+727465052+725708645+723937521+724572343+728089566+732431878+735901365
3478+738552560+739881669+738463066+734835583+731794217+731173289+732106996
3468+732629541+732144198+731810950+732593908+733604036+732848644+729840520
3458+726855553+726646237+729322158+732318928+733350496+732372116+730443818
3448+728153586+726053696+725478561+727193807+729433241+729141229+725617956
3438+721251589+718982050+720341562+724570102+728868788+730941561+731328819
3428+731771880+732324829+731833062+730382113+729617532+730701616+732820630
3418+734279124+734465208+733747092+732183118+729722265+727312957+726536499
3408+728055202+730685481+732551103+732952181+732213373+730328402+726801319
3398+722075783+718149489+717240508+720065835+725006888+729329554+731634577
3388+732589650+733346985+733851377+733354156+732225549+731968946+733091054
3378+734160720+733757699+731813564+728468532+723916753+719721157+718096525
3368+719771731+723425659+726915091+728995559+730250861+732123281+734774551
3358+736766421+737209856+737145462+738076929+739386913+738663045+735244729
3348+731700988+730809711+732590845+734939644+736305058+736881538+737476693
3338+738212215+738588492+738026953+736010804+732937988+730907796+731714061
3328+734249840+735749196+735357007+734380196+733584838+732600183+731266144
3318+730168240+730549671+733503785+738237390+741626422+740863709+736437879
3308+731629124+729492406+730464884+732556482+733682847+733657374+733493252
3298+733541062+733464492+733482420+734512494+736898047+739695062+741490015
3288+741401493+739495531+736690000+734192693+732907957+733129675+734202852
3278+734482987+733228357+732052912+732867992+735509176+738218117+739475660
3268+738927791+737904889+738929360+743005806+747768992+749806879+748443183
3258+746059274+744885248+744557453+743019925+739335817+734816086+731545756
3248+730562296+731352575+732738756+734025508+735367242+736904397+737945004
3238+737767585+736668262+735677183+735758534+737141353+738779133+739103940
3228+737635586+735285965+733358862+732688332+733176214+733820599+733868932
3218+733763825+734202180+734653458+733945726+732122609+730475641+729804065
3208+729651373+729129202+727812045+726142144+725156592+725226663+725708869
3198+726459555+728283568+730965391+732501575+731661246+729864499+728958207
3188+728546521+726923159+723828156+721014334+720233916+721699282+724489797
3178+727408128+729014309+727819740+723695933+718777514+715780595+715429045
3168+716322563+717281072+718667850+720723218+721934595+720606233+717139734
3158+713385182+710787399+709713774+709353931+708359416+706904060+706887849
3148+708864779+710767304+711030780+710575169+710088855+708453840+705440262
3138+703055980+702838670+703601981+703090119+701076286+699053564+697636605
3128+696466464+695790630+695951240+696180876+695808932+695472546+695778005
3118+696171464+696023254+695592593+695136310+693985591+691597573+689344394
3108+689675401+692837562+695791227+695556213+692637060+689578736+687604720
3098+686336494+685675152+686151904+687337807+687522621+685938478+683972381
3088+683185688+683415622+683510644+682936181+682099736+681532519+681058830
3078+679984607+678295133+677025712+677013461+677963155+678855776+678702038
3068+677257589+675475484+674600119+674454673+673512225+671111508+668863707
3058+668879618+670851468+672097507+670948880+668637731+667017133+666273021
3048+665697213+665235028+665363517+666082081+666525889+665615115+663243382
3038+660646496+659431683+660382198+662776715+664531106+663944392+661476293
3028+658706619+656261081+654149761+653047524+653420440+654124288+653453234
3018+651186384+648571719+646733811+645800551+645314387+644821200+643931343
3008+642576985+641488344+641604955+642689487+643362632+642809833+641432392
2998+639810001+638171250+636710217+635733555+635509746+635860848+635918892
2988+634998706+633718527+633327982+634088455+635095968+635318806+634302403
2978+632393303+630606641+629770944+629673606+629344168+628085952+626114065
2968+624183302+622638377+621163748+619632457+618569514+618293563+618315114
2958+617994902+617171866+615976363+614544912+612944521+611180606+609438653
2948+608200943+607907063+608628728+610006244+611168280+611163686+610082664
2938+608982407+608156271+606747231+604699110+603534609+604237075+605612947
2928+605700386+604076464+601896829+600096683+598407546+596172332+593656722
2918+591961534+591553882+591554554+590798228+589220210+587807061+587324968
2908+587375840+586742661+584831321+582576796+581281790+580855088+580200283
2898+579067567+578188168+577694534+576783722+575087675+573327121+572343139
2888+572148090+572198701+572183985+572076413+571611091+570369459+568509626
2878+566895975+566207030+566209608+566139088+565529441+564353062+562524828
2868+560017211+557615896+556613089+557275551+558334386+558358552+557098805
2858+555391328+554293722+554226864+554552044+554252748+553029792+551284590
2848+549409032+547694607+546477366+545756598+545034710+543954510+542781007
2838+541967907+541567501+541262714+540745025+539878998+538620297+537045977
2828+535471956+534299462+533619929+533105976+532426219+531615958+530860901
2818+530110850+529187488+528128654+527146240+526325371+525519218+524475548
2808+523096799+521687647+520743742+520363506+520114074+519536212+518536990
2798+517316985+516182514+515397278+514972780+514559189+513706795+512360393
2788+511006670+510123835+509578842+508889599+507879694+506632012+505092391
2778+503264606+501550891+500420006+499840015+499293453+498340435+497126368
2768+496241329+495986818+495974716+495594367+494586405+493028744+491172796
2758+489428229+488155819+487351758+486656576+485702923+484473654+483329136
2748+482556113+481925773+480955162+479459280+477649983+475942618+474680742
2738+473773217+472812878+471743735+470859405+470025127+468736507+467051067
2728+465683711+465140436+465253461+465417732+464986250+463642799+461604576
2718+459499905+457996515+457269286+456797613+456020445+455020551+454112391
2708+453191757+452078688+451046298+450483900+450347567+450184641+449545785
2698+448368023+446971384+445632937+444369530+443203796+442258360+441486196
2688+440661405+439667637+438576120+437512952+436547309+435604264+434501317
2678+433166494+431779080+430657533+430007471+429722480+429487840+429145963
2668+428763299+428301413+427610489+426818380+426260389+425938122+425457523
2658+424542192+423280054+421923044+420704757+419768285+419066380+418361822
2648+417473310+416519992+415828060+415554872+415441623+415034681+414160586
2638+413035751+411921973+410914833+410093030+409581279+409320904+409010253
2628+408439077+407715582+407008261+406238189+405272098+404319154+403789065
2618+403724297+403695163+403341745+402742481+402146093+401613762+401042848
2608+400358609+399594365+398845471+398162166+397536047+397020823+396695680
2598+396431905+395928671+395088342+394140926+393342915+392763634+392375069
2588+392168777+392123545+392091124+391796833+391094031+390206677+389560536
2578+389382109+389544737+389720624+389644017+389316520+388910512+388447393
2568+387793783+387019341+386450331+386299918+386492874+386809576+386970112
2558+386720269+386098221+385476583+385130635+384928453+384635282+384338452
2548+384304201+384507989+384593598+384322988+383842725+383441983+383233451
2538+383145153+383089051+383050056+383051550+383101414+383184633+383253919
2528+383201740+382922950+382448513+381926230+381445967+381015232+380711940
2518+380680602+380884054+380970261+380579940+379836014+379308315+379346115
2508+379667448+379784470+379575302+379236339+378931926+378692392+378491181
2498+378308346+378157223+378040874+377909621+377697317+377352938+376892658
2488+376485155+376315692+376290816+376127778+375788591+375533257+375501695
2478+375519250+375382843+375155561+375063340+375151975+375202810+375038726
2468+374744921+374500270+374345934+374202505+373987997+373666477+373286502
2458+373006442+372975889+373127497+373216169+373157416+373124509+373168883
2448+373036435+372569693+371990823+371584441+371349389+371076837+370596387
2438+369934074+369320691+369001897+368994315+369074658+369014298+368775138
2428+368476066+368221591+368038010+367957705+368000883+368038981+367853607
2418+367415289+366976523+366823495+367023138+367453985+367953484+368309367
2408+368256590+367745325+367128394+366830779+366929722+367234621+367582772
2398+367884235+368066770+368101320+367968686+367615753+367065532+366485204
2388+366005763+365499728+364627388+363113092+360928191+358192320+354989932
2378+351336228+347212085+342593709+337625949+332787089+328599374+325121408
2368+322032007+319235142+317031154+315754636+315618155+316805515+319455328
2358+323609801+329109406+335582908+342883891+351010077+359015879+364966239
2348+367415924+366556919+364094161+361683546+359388047+356419516+352630712
2338+348502236+344465719+340726518+337431536+334710569+332601528+331120138
2328+330339234+330165215+330212800+330246977+330548140+331504595+333068270
2318+334855492+336523264+337912770+339068083+340202554+341507683+342984292
2308+344500231+345914874+347106530+348014428+348723132+349397397+350085670
2298+350676007+351051611+351214351+351285543+351441185+351782614+352252082
2288+352742953+353234384+353695784+353970092+353934459+353696531+353483181
2278+353407843+353431599+353442580+353296611+352886419+352255668+351582971
2268+351018892+350597532+350321207+350252966+350460639+350895446+351389827
2258+351783211+352000969+352023044+351882043+351706791+351639857+351684118
2248+351742498+351783435+351829564+351839201+351767225+351711198+351851228
2238+352229858+352666121+352930008+352996755+353061746+353276068+353562104
2228+353740793+353730895+353583917+353445195+353492182+353792188+354221616
2218+354594046+354830928+354994041+355226254+355647053+356220433+356745368
2208+357054264+357199784+357388408+357750977+358234938+358716247+359145787
2198+359539581+359902636+360262142+360731872+361426382+362317024+363235193
2188+363991296+364464649+364672583+364789904+364989584+365261240+365532597
2178+365917129+366606148+367542918+368439275+369120861+369697677+370400517
2168+371343002+372457714+373666178+375052733+376747249+378686640+380687811
2158+382738658+385059705+387884024+391231820+394848509+398359419+401539583
2148+404384220+406931056+409214452+411421503+413811090+416398825+418984991
2138+421517222+424136519+426890580+429720053+432654893+435725992+438825103
2128+441928137+445251132+448896544+452487610+455344573+456987731+457445584
2118+457109796+456305772+455072245+453364021+451237313+448728762+445799562
2108+442544695+439253224+436150564+433233129+430395140+427583260+424807610
2098+422078351+419311292+416304065+412920336+409276306+405610090+402031649
2088+398544868+395218586+392184092+389537229+387320094+385520247+384058989
2078+382832709+381749671+380730578+379765122+378957661+378404675+378043526
2068+377724023+377369036+376955482+376430136+375770923+375043918+374327146
2058+373691241+373264427+373134557+373183786+373205263+373171311+373218709
2048+373408566+373667410+373953372+374340406+374904597+375629474+376491953
2038+377554373+378877057+380410365+382050685+383746471+385506016+387320542
2028+389045611+390361161+390952507+390747897+389919034+388688458+387194593
2018+385493354+383646631+381790272+380073606+378561812+377253135+376126807
2008+375119928+374118577+373010887+371747666+370403467+369173639+368203177
1998+367453163+366875227+366599350+366689516+366813373+366483113+365607897
1988+364519256+363562129+362909266+362581770+362415258+362142668+361658334
1978+361108224+360693326+360490060+360444641+360475866+360589153+360815427
1968+360993518+360823719+360278801+359705272+359381548+359246038+359123077
1958+358955519+358748630+358507453+358278340+358106039+357946885+357725915
1948+357508007+357560971+358104657+358882722+359182727+358606322+357592234
1938+356831575+356521559+356414399+356289683+356167432+356152043+356246019
1928+356430721+356828475+357510024+358226459+358738023+359209247+359679425
1918+359547276+358419416+357028902+356400728+356697335+357342055+357754115
1908+357751313+357472561+357102335+356716160+356376263+356235336+356450592
1898+357020237+357653901+357897805+357690431+357561718+357844057+358080490
1888+357729052+356997826+356433672+356255469+356377309+356594170+356663606
1878+356473040+356120108+355879752+356273808+357875058+360565248+363002756
1868+363495457+361894954+359654213+358010419+357211849+356988600+357002420
1858+356997116+356921480+356900787+357018294+357294320+357835653+358866623
1848+360670840+363233737+365495470+365675727+363640716+361401245+360428169
1838+360542314+360919488+361241045+362012872+363790458+366042928+367338196
1828+367256807+366774528+366334604+365507721+364404476+363749969+363760988
1818+364040749+364348860+364937964+366136269+367776850+369131768+369595634
1808+369375485+369271350+370016247+371847058+374262940+376184365+376871666
1798+376798271+377235244+379069304+381940498+384089617+383994110+382564900
1788+381876628+382735596+384582244+386745855+389060328+391256061+392818802
1778+393958838+395885680+399662419+404891824+409273094+410577588+409315824
1768+407391037+406124305+406475706+408864583+412274681+414870522+416220211
1758+417255141+418402087+419821025+422358112+426617803+431532860+434881143
1748+435827326+435599259+435691255+436889746+439208664+441767228+443442956
1738+444747263+447768348+453241770+458258236+459336456+457817304+456485506
1728+456218071+457176804+459376197+462419208+466255372+471770441+479466526
1718+487431130+491785992+491528866+489631308+488603624+489320433+492078751
1708+496751473+502289961+507346168+512213864+518477378+525951073+531650545
1698+534193720+535250986+535482526+535323335+536562726+540167051+545440606
1688+551833094+560129863+570172730+577857460+579903601+579573491+580736087
1678+584562914+590547302+597031225+602667274+608193361+614620884+620568219
1668+623954936+626064500+629795073+635690452+641637675+645790915+649127356
1658+653922068+661830308+673535159+686658835+694110942+695421375+697762629
1648+703151076+708022283+708808976+707366095+707151026+709330250+714020527
1638+720905716+727689533+729894903+726808491+723135663+721859295+722665560
1628+724126145+725243770+725627966+724544106+721532844+718280742+717064135
1618+717492181+716202889+711204389+705034553+700251495+696877254+693917686
1608+690800422+687720658+685079772+682972487+681313043+680084111+679288379
1598+678873256+678653407+678187487+677063736+675468835+674030661+672978027
1588+671907314+670507164+669052107+667960403+667412534+667734876+669532295
1578+672799338+675885302+676715173+676293104+677311599+680370147+683838738
1568+686251632+688229831+690995470+695321348+702484505+714216622+729317975
1558+739787170+742262963+743753728+748288474+755387238+763475810+771392641
1548+779124435+788049228+799354868+812120794+823693645+830599601+829574830
1538+823606317+819682937+819751439+821244968+821466387+821288147+823257008
1528+827873180+833731133+839680298+845731731+851470833+855373744+856995089
1518+857361132+856941079+856192111+856617468+859518543+864862318+871679453
1508+878016025+880117409+876560819+872231953+870980685+872855944+876351054
1498+879511870+880897902+880866900+881353513+883836403+887929582+891300014
1488+891844073+890363542+889151493+889240165+890073995+890856056+891726939
1478+893372488+896057000+899548599+902994481+904447222+902859941+900397968
1468+899834860+901839504+904985454+907354348+908943720+911496906+915972861
1458+920458901+920451207+915309278+909853822+907018933+906482345+906544423
1448+905581058+903464733+901621746+901307621+902608492+905002038+907886231
1438+910216877+910543402+908991904+907711875+907803311+908340422+908165842
1428+907575916+907663243+908588061+909720179+911025458+912970414+914793008
1418+914518028+912057698+909647494+908837717+909362428+909937788+909794284
1408+909367284+909050993+908229340+906551893+904957366+904272717+904236486
1398+904310442+904099108+902959221+900642544+898079947+896233597+894882601
1388+893064713+890388866+887987552+887596409+889643260+892867050+895854183
1378+898500896+901499234+904862867+907765735+909854196+911717129+913679566
1368+915385923+916994942+919500691+923040697+925787063+925778099+923630997
1358+921887588+922195960+924000327+925693386+926708893+927858940+929686091
1348+931394838+931913348+931629852+932426555+935833740+941239145+945942570
1338+947521334+946191703+944058197+942761808+942561979+942975383+943687224
1328+944754724+946160179+947630998+949011427+950320665+951337218+951693250
1318+951534731+951499173+951821888+952038675+951737997+951102651+950680731
1308+951006733+952174260+953456082+953872026+953415369+952934957+952687019
1298+952038376+950814299+949832633+949692565+949956938+949734324+948369582
1288+945544928+941378017+936543789+932000003+928479420+926126138+924481486
1278+922912059+921173805+919421805+917761166+916138103+914610584+913286107
1268+911876021+909733103+906719077+903690709+901502446+899865563+897866820
1258+895262389+892516844+889929147+887493543+885250897+883288011+881898842
1248+881629315+882449475+883382137+883682815+883710828+884007995+884420428
1238+884657459+884923625+885648912+887072594+889115486+891403103+893528168
1228+895327903+896690404+897427494+897727126+898214336+899219535+900488507
1218+901727674+902834468+903633785+904120697+904873774+906651546+909698217
1208+913536511+917147559+919663767+921281302+923020005+925388973+927877317
1198+929687734+930430427+930402264+930478312+931448623+933663779+937320023
1188+942196085+947034348+950297133+951609135+951702439+951511349+951978614
1178+953922301+957275626+960847530+963458161+965001816+965981615+966519922
1168+966455229+966012094+965772000+966305152+968186387+971697036+976124658
1158+980313905+983890665+986741988+988140047+987860959+987289036+987972041
1148+989825338+991797188+993301997+994084581+993927855+993451252+993840079
1138+995182410+996343139+996767749+997113622+997917123+998892440+999898758
1128+1001534073+1004164127+1007328977+1010610961+1014209161+1017953777
1120+1020609753+1021168081+1020118883+1018733150+1017769113+1017381481
1111+1017746851+1019229772+1021857660+1024598349+1025580987+1024215199
1103+1022593107+1022933228+1024636970+1025948150+1027424423+1031042045
1094+1036651463+1042006593+1045668066+1047473329+1047305397+1045905022
1085+1045342661+1046529835+1048080885+1048867428+1049976164+1052885830
1077+1056581368+1059020855+1060001925+1060106060+1059258858+1057595231
1068+1055590214+1053403818+1051644497+1051646365+1053859280+1056877489
1060+1058642113+1058792265+1059265805+1061681015+1065215418+1068303101
1051+1070971029+1073392140+1073741823+1070400974+1065539927+1063253579
1043+1064768473+1067517902+1068524146+1067674254+1067038162+1067716162
1034+1068691704+1068652485+1067919503+1067890220+1069244353+1071375394
1025+1073120073+1073689755+1073073459+1071935664+1070916795+1069792222
1017+1068107828+1066505756+1065833134+1065217585+1063135026+1060096498
1008+1057937967+1057159267+1056902439+1056723751+1057147090+1058759023
1000+1060876991+1061309295+1058476049+1053551430+1049017655+1046125694
991+1045058567+1045738361+1046885569+1046112472+1042934922+1039983871
983+1039472457+1039826472+1037531609+1031930931+1025971906+1022357346
974+1020963246+1019769947+1017007744+1012522974+1007893505+1004819493
965+1002967317+1000312686+995966489+991028349+986275994+981318281+976411367
955+972801215+970923939+969879073+968514929+966174497+962915821+959585579
945+957373262+956920340+957671475+958322508+958291506+958441733+959705402
935+961425877+962092822+961263549+959605450+957816173+956508953+956191168
925+956684205+957116808+956731044+955295783+953051642+950947121+950406199
915+951835335+953680115+953849989+951858866+948878681+946315186+945080502
905+945325526+946258114+946891592+947015000+946781854+945971704+944591499
895+943286743+942447609+941653595+940218260+937979498+935750372+934939177
885+936183050+938312074+939187214+937921753+935869149+934837805+934650974
875+933630985+931618198+930567208+931287565+931613193+929214493+924792398
865+920957391+919578456+921461484+926629036+933357051+938245140+939037809
855+936908188+934643728+933366090+932237483+930778392+929950463+930618528
845+932230237+933555685+933561213+931560229+927784685+923856898+922127085
835+923892008+927891361+931061216+931482016+930358638+930279827+932348416
825+935609782+938276366+939097198+938399326+937862663+938555753+940094627
815+941911917+943823108+945324182+945828126+945615223+945383421+945212352
805+944869915+944186088+942423928+938899012+935043686+933741545+935832620
795+939089279+941522193+943730029+946797840+950328733+953329685+955136890
785+955167593+953099004+949587608+945996132+943473425+942910541+944840333
776+948310941+950482097+948994843+945257547+942956633+943433683+944825542
766+945075049+944026224+942616960+941348211+940419210+940827609+943391775
756+946921024+949285436+949923023+949756063+949411982+948786946+947590360
746+946074569+945501750+946642832+947809836+946815843+944827484+944987049
736+947717205+950457520+951410949+951039528+950463496+950499951+951147548
726+950882129+948426282+945363924+944133796+944337361+944438508+945190539
716+947539338+949692491+949555561+947710481+945983731+945379088+945539475
706+944644463+941308320+937000072+934014284+932153667+930272581+929054480
696+929467735+930133260+928607310+924409473+918973365+913363873+907917979
686+903380320+900524664+898890694+897091108+894851525+893728147+894861161
676+897068249+897264344+892462984+881933878+868436090+859766033+862159130
666+868644735+870787578+870272205+872529269+878101933+882271757+882013735
656+878819004+875046747+870917934+865585887+860384271+858397182+859917231
646+861476199+860931841+859758786+858352361+854337022+847483507+841571619
636+840333871+844269876+850614069+854841488+853548835+847072419+838790068
626+832087303+828278666+826359332+824795284+823695587+824399360+826988925
616+829035403+827542696+822646016+817994509+816644708+818462446+821767961
606+825444151+828461239+829117800+826900478+823407011
##END=
