##TITLE=<SNM>
##JCAMP-DX=4.24
##DATA TYPE=INFRARED SPECTRUM
##DATE=3/5/2025
##SAMPLING PROCEDURE=Instrument type and / or accessory
##ORIGIN=Admin
##XUNITS=1/CM
##YUNITS=ABSORBANCE
##RESOLUTION=4
##FIRSTX=4497.3318
##LASTX=599.83466
##DELTAX=-1.4281778
##MAXY=1.7542769
##MINY=0.19162826
##XFACTOR=1
##YFACTOR=1.6337977e-09
##NPOINTS=2730
##FIRSTY=0.21378428
##XYDATA=(X++(Y..Y))
4497+130851135+131434943+132161861+132366143+131691340+130378681+129000180
4487+128081647+127844239+128179894+128898467+129841415+130648458+130802586
4477+130203921+129352288+128772494+128697039+129302910+130566911+131811914
4467+132067582+131140102+129916231+129430680+129939325+130911486+131610586
4457+131707976+131495193+131389020+131302302+130912726+130388047+130183391
4447+130232295+129997532+129215589+128129038+127161583+126654707+126724708
4437+127198165+127777896+128245289+128464374+128394456+128188851+128074004
4427+128022966+127730551+127046700+126186612+125351013+124503467+123763296
4417+123562999+124025403+124639108+124975328+125200588+125455563+125404031
4407+124898998+124435801+124423780+124591507+124523213+124239098+123939141
4397+123630847+123214439+122635793+121987202+121634711+121956867+122805865
4387+123567760+123811051+123512663+122746672+121663057+120677972+120118508
4377+119769035+119242322+118636780+118355593+118440159+118548092+118516288
4367+118602788+119118410+119945317+120473352+120093764+118869026+117641070
4357+117290083+117867333+118645737+119042208+119138749+119239321+119437603
4347+119751414+120168525+120489678+120491548+120161310+119650395+119257781
4337+119327080+119755044+119918977+119511160+118969417+118721802+118608288
4327+118370825+118135113+118107240+118232557+118421435+118789668+119372035
4317+119843513+119906838+119727299+119592670+119468895+119297666+119276123
4307+119420419+119391516+119176946+119343934+120174608+121093952+121356789
4297+120847816+119944770+119080295+118651711+118915587+119706687+120479290
4287+120805232+120771686+120772689+120914131+120801939+120086221+119099220
4277+118613140+118923987+119525771+119830352+119859848+119963485+120196963
4267+120393766+120597274+120935181+121217308+121155945+120916575+120955684
4257+121333431+121713841+122046395+122623325+123406883+123960866+124114803
4247+124083747+123978824+123802514+123709740+123745301+123637888+123261920
4237+122917318+122835844+122873448+122937629+123206531+123702580+124086830
4227+124149123+124170256+124431396+124660988+124483675+124194900+124445013
4217+125234243+125852298+125777272+125163750+124527362+124313184+124641415
4207+125255786+125842457+126348065+126781064+126956589+126772664+126450872
4197+126237049+126155165+126182080+126337394+126544713+126688061+126759010
4187+126760333+126684814+126703110+127010473+127440681+127641005+127608682
4177+127674551+128030071+128563788+129082046+129489708+129760935+129809110
4167+129517298+128960460+128403576+127993424+127727760+127739006+128215510
4157+128986171+129513102+129422435+128930681+128662491+128978372+129592059
4147+130022796+130180755+130202271+130001609+129401658+128556847+127937907
4137+127859671+128098457+128132166+127836450+127671605+128080781+128994406
4127+129929091+130316351+129864162+128876751+128101640+128072746+128660384
4117+129247539+129329998+129064379+129124174+129801832+130506870+130501744
4107+129887118+129418130+129542270+130061540+130595495+130936923+130988701
4097+130743631+130423754+130377668+130678501+130923726+130571726+129555066
4087+128515914+128257428+128953099+130031461+130768877+130868865+130592850
4077+130448708+130632971+130810384+130603338+130090352+129584060+129236840
4067+129142078+129434884+129977841+130296823+130109432+129640480+129217696
4057+128856403+128445859+128063899+127846601+127753198+127681209+127656930
4047+127802139+128216896+128863116+129473181+129731148+129611559+129327827
4037+129000818+128696319+128684882+129243954+130173668+130824202+130737575
4027+130140086+129669821+129684633+130016439+130362665+130622017+130798363
4017+130853725+130731045+130399065+129879320+129270751+128725897+128407151
4007+128421918+128711468+129108158+129608877+130388093+131389093+132135758
3997+132190390+131679374+131149752+130938346+130917296+130899483+130984086
3987+131292625+131621686+131646822+131347960+131037496+131061045+131580662
3977+132508151+133490080+134050046+133953341+133465764+133118855+133163691
3967+133395299+133565644+133764636+134260531+135099249+135961070+136388268
3957+136209760+135736567+135405819+135343808+135493412+135889072+136434619
3947+136760943+136724525+136657516+136813843+136944832+136740987+136405442
3937+136440100+137057736+138011482+138871999+139305426+139234523+138914182
3927+138714879+138701873+138591450+138273881+138064665+138209463+138513351
3917+138650752+138565219+138346207+138001632+137592174+137422339+137948040
3907+139473655+141826196+144195628+145623936+145909839+145432186+144281252
3897+142572085+141175106+141096888+142264777+143309374+143181430+142811336
3887+143623367+145362924+146634094+147205716+147791084+147943543+146874886
3878+145532977+145361583+146445928+148143666+150119282+151745369+152033725
3868+151312690+150778133+150514768+149856637+148930133+148463844+148842940
3858+150378570+153583565+158002735+160494693+158476074+154461784+151330694
3848+149783782+149626725+150462361+151806058+153360348+155184407+157141188
3838+158353713+158158697+157193467+156364006+155764165+155170343+154751964
3828+154709809+155022170+156133566+158713537+161866663+163148851+162237068
3818+161197542+160591699+159340102+157495431+156355871+156859581+159025260
3808+161720570+163605153+165261721+168095883+171178434+172113620+171291055
3798+170952426+171524560+172296524+173277843+174943276+177445577+180694852
3788+184532221+188701178+193061867+197967273+204137373+211806931+220110696
3778+227998017+235620093+243855819+253156974+263191330+272644525+279819273
3768+284413941+287538465+290257835+293548153+298508082+305584784+314011167
3758+322578553+331225143+341182285+353624198+368384486+383455895+396954334
3748+409760340+423584967+437342102+447125844+453241002+460310901+470363699
3738+482468626+495494182+509077953+521808879+531588534+538698053+545191860
3728+551684974+556680564+558892776+558809779+556958778+553198879+548578217
3718+544957717+542870202+541580116+540308198+538340928+534986821+530509061
3708+526415786+524660698+526540592+531583974+537521427+542197688+545354936
3698+547522749+548865698+549738171+551106730+554089630+558786576+563482282
3688+566299881+567758369+569524986+572415513+576005368+579170022+582000828
3678+585882176+589718360+589499065+585622860+582369773+580379337+576547020
3668+569870984+562970180+558329745+556470463+556460941+557464021+559301597
3658+560982079+560688105+558977853+559274344+564174424+572742029+579624628
3648+579634624+574288257+568207283+563973443+562087711+562189132+563922842
3638+567083921+570851810+573484735+574160715+574561181+576493464+578468505
3628+577844074+576496091+577354811+580453140+584831012+590128420+595986962
3618+601257920+605199501+608309140+611087958+613568862+615619603+616813813
3608+616890426+616605500+617240875+619249953+621778466+623800460+625792610
3598+629151533+633786897+637633296+639216334+639486668+640105042+641266711
3588+641985995+641742439+640873140+639991655+639937224+641269556+643430182
3578+645052986+645258600+644215864+643247260+644432715+648356091+652305151
3568+652588253+649148924+644983305+641504648+638258748+635263991+633357355
3558+633195446+634607018+636300817+636441639+634427817+631873840+631108077
3548+632934671+635746870+636794641+635217075+632955247+631930825+631904120
3538+631681870+631099978+630971560+631566878+631920245+630880282+628329004
3528+625319071+623221413+622461779+622307167+621845886+620824163+619802003
3518+619213033+618504694+617323106+616701521+617261670+617338501+615384876
3508+613146178+613285321+615139642+615376485+612442727+608417456+606145231
3498+606279850+607303032+607640201+606877503+605477642+604218967+603815145
3488+604235238+604271757+603051972+601482177+600836659+601021588+601317058
3478+601421361+601181490+600607113+600178483+600134011+599898043+599008277
3468+597881523+597176174+597075155+597256435+597085042+595862813+593571836
3458+591574176+591654364+594003968+596758234+597762444+596426792+593798099
3448+591143466+588717323+586168744+583769707+582310927+582021075+582394836
3438+582679215+582067152+580191088+577688441+575689942+574968943+575616613
3428+576854894+577438902+576856609+575401368+573151652+570318585+568281452
3418+568430409+570187978+571608890+571693383+571072236+570455795+569419005
3408+567310950+564797285+563383707+563356236+563323803+562199930+560813896
3398+560790876+562339803+563977638+564214700+562799626+560447651+558180861
3388+556987417+557309592+558633679+559873347+560269362+559905743+559329688
3378+558768299+558059010+557221560+556532775+556132090+555930051+555751142
3368+555470521+555283002+555742496+557127399+558858738+559850874+559415056
3358+557821547+556039571+554772870+553835203+552880097+552459529+553516311
3348+555863653+557988709+558531748+557446874+555653917+554092403+553223906
3338+553029237+553276915+553673039+553765558+553121135+551801389+550361653
3328+549228295+548346701+547645512+547397031+547621360+547660579+547126734
3318+546768660+547496810+549037310+550306966+550592805+549796178+548176584
3308+546350610+545009923+544561264+545270844+547112725+549197467+550140680
3298+549325265+547403415+545702539+545381057+546558960+548040797+548560779
3288+548425393+549119724+551141936+553166045+553733892+553026975+552377298
3278+552492582+552883016+552825045+552339466+552070008+552280219+552254207
3268+550959853+548235576+545223308+543543154+543683756+544192647+543193690
3258+540792974+538790608+538220135+538612684+539160101+539304644+538718921
3248+537699935+537190679+537863776+539388881+540711436+540924967+540038667
3238+538915341+538274020+537890408+536903198+534849794+532423796+531018317
3228+531180918+531688313+530676222+527740239+524430932+522729545+523434638
3218+525742214+527985764+528891400+528392177+527313396+526365295+525611790
3208+524812573+523870747+522804735+521659484+520620797+519849927+519106746
3198+517967879+516545071+515636079+515897073+516804898+516808327+515100847
3188+512849235+511726456+511691470+511321284+509964144+508370890+507356136
3178+506815469+506089837+504796431+503186213+501847277+501168342+501015883
3168+500750511+499651008+497666117+495547957+493929311+492731708+491760112
3158+491162606+490907704+490487757+489561253+488508812+488061102+488436432
3148+488907527+488394878+486548620+484014087+481768567+480454877+480026211
3138+479813008+479213313+478272545+477358189+476628544+476074634+475657787
3128+475292490+475022996+475000194+475003113+474475324+473290052+471929117
3118+470766318+469689908+468554726+467551026+466909631+466469071+465836250
3108+464977129+464280610+463980835+463921733+463909694+463839904+463448048
3098+462426581+460928984+459507269+458454099+457616284+456920969+456667855
3088+457034647+457624748+457828976+457355983+456239224+454757169+453472373
3078+452828497+452542841+451882913+450726389+449863109+449962924+450629784
3068+450837331+450123884+448937116+447848631+446891519+445789061+444570590
3058+443701436+443496004+443585167+443309617+442601824+442018801+441848502
3048+441684477+441073472+440155907+439362892+438804348+438306803+437786347
3038+437165163+436152890+434608997+432978641+431857468+431181816+430323790
3028+429043079+427930480+427675578+428144740+428444405+427880937+426682494
3018+425632535+425118426+424774836+424046140+422825917+421490447+420576056
3008+420440488+420938653+421411937+421227556+420327502+419150985+418143345
2998+417402354+416689271+415763680+414699893+413780686+413111127+412489688
2988+411734724+410997417+410539711+410261242+409735423+408765687+407667389
2978+406947630+406814470+406984477+406938327+406378762+405377105+404164617
2968+403039029+402284722+401867839+401493677+401111270+400878111+400595556
2958+399745410+398131580+396192548+394740517+394360043+394802209+395116613
2948+394608451+393431241+392158229+391149713+390456441+390044155+389923216
2938+390059587+390238496+390162321+389694910+388880005+387829243+386767098
2928+385999001+385593792+385213501+384513698+383631630+382968783+382536906
2918+381932833+381021652+380197189+379828317+379789646+379631386+379032602
2908+378057358+377002291+376029783+375074458+374130626+373393903+372978552
2898+372711721+372416907+372196409+372169229+372150879+371877663+371359104
2888+370792826+370326984+369977119+369584424+368963277+368214770+367631091
2878+367256418+366876674+366361763+365733684+365078390+364522218+364075164
2868+363557225+362897589+362307488+361980790+361816802+361539281+361013462
2858+360401691+359941212+359619402+359279059+358967354+358866080+358942036
2848+358929121+358603991+357965405+357220073+356623223+356247419+355888835
2838+355272722+354378104+353467616+352747711+352153379+351570210+351053657
2828+350662129+350262612+349677728+348956620+348386986+348160102+348056383
2818+347652780+346860932+346009801+345371252+344867505+344289516+343609852
2808+342993666+342562446+342262452+341995000+341757318+341572098+341360099
2798+340958649+340259502+339359631+338524698+337903660+337394112+336883287
2788+336376768+335775686+334854399+333608894+332351460+331341011+330536649
2778+329822108+329255064+328893379+328549424+328004014+327334090+326727135
2768+326133969+325421507+324675591+324041055+323424395+322585449+321452929
2758+320240368+319261950+318670463+318387324+318198054+317833815+317127154
2748+316246654+315582714+315267105+315021470+314533921+313760351+312852125
2738+311981038+311225965+310561148+309979986+309550918+309273616+309008828
2728+308629777+308133472+307604479+307158520+306848968+306544888+306017446
2718+305219013+304341925+303542416+302765234+301932982+301164155+300650503
2708+300369243+300052723+299491315+298808933+298342124+298210040+298110771
2698+297656567+296836993+296022399+295545758+295386549+295262874+294943636
2688+294393648+293674290+292867266+292108180+291506751+290998024+290427131
2678+289790224+289284817+289101949+289192188+289267670+289079750+288638315
2668+288085079+287484672+286858983+286280155+285813073+285449327+285140522
2658+284835968+284482127+284029801+283492363+283004175+282696429+282445687
2648+281938948+281103960+280263719+279763456+279639215+279698371+279747951
2638+279685858+279464611+279043569+278433713+277784256+277312011+277098225
2628+277026428+276936992+276774208+276557248+276278669+275906058+275470186
2618+275067494+274743732+274431116+274048253+273633796+273323131+273178917
2608+273099440+272935033+272644944+272303762+272030966+271938556+272034869
2598+272149570+272075675+271802149+271487745+271219491+270947552+270672165
2588+270543511+270671381+270901548+270921978+270625049+270241146+270026575
2578+269939510+269750295+269372047+268931177+268570604+268317509+268123040
2568+267968100+267926583+268101862+268493973+269011401+269601192+270222376
2558+270697265+270784713+270457413+269965303+269560222+269241386+268836724
2548+268287374+267758473+267443211+267325191+267195697+266903273+266537156
2538+266298142+266209180+266094717+265879508+265699523+265622089+265485408
2528+265170858+264843922+264758408+264933194+265137951+265147583+264926153
2518+264579353+264225730+263970081+263894818+263949103+263938305+263764740
2508+263576437+263543548+263603927+263564088+263347474+263036171+262748144
2498+262555098+262478084+262503567+262566353+262514694+262190549+261617047
2488+261022095+260609462+260393031+260264139+260096631+259792642+259348233
2478+258868090+258456370+258147255+257941842+257800473+257605348+257249080
2468+256766292+256299775+255946681+255689445+255458549+255214628+254960748
2458+254705409+254445108+254187889+253969488+253817321+253699866+253554229
2448+253381412+253257792+253232346+253251153+253186396+252933903+252524791
2438+252126459+251870955+251742027+251694600+251750637+251874239+251903060
2428+251745548+251532509+251424321+251353290+251144429+250860561+250793433
2418+251080841+251552775+251975185+252230470+252264143+252072319+251765029
2408+251514068+251426109+251480139+251556697+251562133+251559214+251711181
2398+252063545+252450403+252666196+252671978+252578109+252495951+252467951
2388+252422476+252086949+251060465+249063462+246038043+242034405+237151454
2378+231562991+225501517+219258580+213182932+207528929+202315284+197456776
2368+193022229+189311344+186657040+185127192+184538551+184877453+186569920
2358+190208315+196090205+204253386+214853474+227509629+239959422+248718030
2348+251504965+248918445+244254534+240828502+238986038+237133596+234586058
2338+231767711+228909399+225800544+222521390+219752605+218142277+217635611
2328+217679828+217808975+217834951+217876486+218378974+219777321+222040079
2318+224669630+227068321+228902576+230320040+231832486+233842184+236277139
2308+238702152+240696491+242133364+243206708+244218927+245295008+246301901
2298+247067791+247634069+248219773+248938802+249635212+250071759+250243189
2288+250388334+250680885+251030203+251229360+251187278+250962237+250667989
2278+250414912+250283648+250275440+250281551+250146128+249805420+249361431
2268+249001789+248852048+248885174+248950276+248921546+248821348+248753181
2258+248758142+248794023+248788733+248681073+248470698+248215797+247967936
2248+247782552+247737423+247823740+247917682+247946777+247956882+248000953
2238+248103158+248291899+248559843+248856042+249163606+249526185+249986920
2228+250516989+251021156+251472387+251998224+252714134+253543996+254343906
2218+255124955+256031521+257162672+258501498+259967994+261475514+262968570
2208+264464507+266031019+267685417+269379526+271100413+272887132+274734685
2198+276567280+278298638+279897765+281427083+282987503+284603850+286211204
2188+287730654+289122507+290403090+291575155+292544015+293246974+293807797
2178+294370263+294904035+295302622+295481166+295357491+294922933+294269243
2168+293474787+292586280+291666616+290744983+289782982+288691560+287387027
2158+285921279+284462554+283087720+281782530+280589980+279570501+278781499
2148+278290703+278085818+278433403+280399506+285083190+292213358+300403281
2138+308679320+316921102+325222715+333641327+342197513+350789927+359367674
2128+368003720+376693250+385410469+394162383+402712513+410623437+417559191
2118+423203253+427269056+429895123+431666191+433316685+435781829+440243975
2108+447646592+458151661+471178932+485718138+500182336+512305795+520206833
2098+523552804+523132638+519951238+514961193+508736698+501356518+492710585
2088+482395004+469822412+454983359+438376411+420477991+402116867+384471342
2078+368222979+353594100+340887216+330204624+321303498+314035209+308220665
2068+303387767+299242141+295805420+292926112+290379084+288189090+286368698
2058+284862673+283781485+283157219+282845459+282935333+283694803+285226876
2048+287665314+291351720+296684388+304209768+314611008+328281608+345261039
2038+365432231+388175496+412098562+435451993+456430610+473425875+485747360
2028+493688273+497889279+499252220+498729904+496699191+493175916+488337601
2018+482329373+475232696+467372117+459022931+450009549+439997318+428932465
2008+417078938+404834504+392567159+380556357+369003006+358045557+347810858
1998+338426414+329943047+322340543+315608798+309707864+304514796+299922536
1988+295910143+292489419+289651281+287302881+285247561+283333100+281561065
1978+279968340+278533912+277260881+276204701+275388484+274774323+274289163
1968+273821716+273252301+272569608+271917250+271428771+271075276+270804414
1958+270719228+270901694+271165533+271216645+270996365+270718753+270622933
1948+270787686+271168361+271669645+272045413+271915736+271201687+270334029
1938+269738019+269426442+269239762+269153025+269213440+269385965+269573885
1928+269754490+270047042+270538622+271093754+271564722+272065569+272665739
1918+273023648+272813073+272321711+272129705+272460526+273097342+273674693
1908+273989316+274145223+274369497+274687568+274922295+275008192+275124808
1898+275468088+275993980+276466681+276789293+277144594+277639057+277997349
1888+277900233+277441341+276939089+276584336+276450391+276545172+276767896
1878+276995090+277187807+277385778+277774989+278684967+280152703+281460519
1868+281637021+280701524+279623710+279060825+278945833+278994683+279087038
1858+279241558+279499707+279835417+280147231+280417947+280796031+281478195
1848+282650808+284349769+286004058+286513897+285631227+284464342+283996055
1838+284259184+284775335+285271658+286012868+287375973+289097389+290297236
1828+290594986+290479611+290288736+289892940+289388463+289213512+289534246
1818+290034217+290387895+290744582+291518371+292743865+293898292+294489997
1808+294629652+294825981+295475913+296669922+298216114+299716867+300796395
1798+301455958+302177742+303540373+305544526+307191099+307419660+306733720
1788+306513003+307280991+308571952+309917492+311364305+312907359+314155126
1778+314998559+316104921+318292945+321457344+324136602+324928449+324278955
1768+323428298+323047533+323534024+325081310+327138655+328749164+329812841
1758+330940070+332284260+333760989+335814722+338890834+342377553+344872649
1748+345921076+346413477+347235423+348658012+350556258+352476940+353900259
1738+355152549+357316495+360534924+362892372+362695331+361190292+359940336
1728+359212625+359035868+359493721+360442843+361969845+364705504+368960906
1718+373554461+376106870+375836463+374387096+373377486+373475258+374810144
1708+377204585+380144873+383040872+385994951+389664994+393831817+396936166
1698+398352772+398885669+398658020+397946798+398043476+399650629+402386361
1688+405968446+410831095+416615176+420576639+420997827+420286751+420834204
1678+423159110+426753854+430490623+433520001+436325925+439541582+442334409
1668+443604868+444338526+446296748+449712765+453281570+455904098+458125394
1658+461292019+466433100+473914008+482057288+486449680+487210190+489029597
1648+493133779+497198232+498954160+499652905+501510181+505049289+510016058
1638+516267514+523110274+528366384+530717849+532169004+535109438+540172958
1628+546613465+553511605+560791386+568617125+576461761+584010891+592257343
1618+602204161+612382604+619137807+621496604+621583797+621100626+620652113
1608+620419502+620650727+621824069+624352290+628326523+633688468+640317953
1598+647804114+655432630+662475240+668471027+673464866+677965830+682447239
1588+686928721+691066612+694528999+697297054+699719258+702401872+706093440
1578+711278446+717269637+722359862+726623764+732194533+740319645+750065664
1568+759388635+768094690+777882299+789753338+803706346+820429526+840259463
1558+857898713+867684936+872406617+874877707+875415528+874780956+874252328
1548+874446195+875079746+875222756+874175350+872106878+868559562+862505475
1538+856030456+851742987+848955085+845801995+841973400+839018191+837882716
1528+837692498+836925349+835373247+834162984+833615531+833119518+833047940
1518+834151383+835651023+836211026+835922305+836079690+837781515+841122853
1508+844512639+844780127+841448129+838244912+836895287+836704120+837051942
1498+837666450+837827263+836993133+836033065+836089102+836872231+836705507
1488+834665783+832184697+831181143+832018119+833630708+834813974+835275985
1478+835437091+835713335+836234375+836617147+836121644+835026884+834824116
1468+836242911+838390185+839441677+838583395+837459230+838231706+841174584
1458+844000282+843227734+839103267+835279123+833449464+833275444+833664928
1448+833256911+831462567+829085309+827152916+825886252+825134863+824804845
1438+824519407+823662658+822247802+820823900+819394889+817692335+816116228
1428+815590372+816425451+817785656+818405709+817908966+816912854+815620142
1418+813460318+810591353+808102387+806640761+805960440+805409193+804783157
1408+804503994+804653061+804420377+803153421+801428831+800307147+800245200
1398+800993014+801877198+802156288+801555352+800606375+800085116+800119045
1388+800080228+799531461+799316362+800854892+804475319+809293970+814329326
1378+819154544+823626030+827390781+829933449+831341592+832614458+834669504
1368+837550363+840835737+844093604+846520039+847098065+845910275+844268646
1358+843152580+842617239+842491157+842777542+843425322+844177805+844806759
1348+845355890+846050367+846984167+847968969+848808134+849720921+851357005
1338+854212107+857999331+861797281+864862011+867098228+868764592+870190100
1328+872078714+875442160+880552816+886455501+892039258+897030324+901566383
1318+905599936+909224084+912867642+916609336+919790955+921871538+923446770
1308+925765656+929261460+933127194+936213010+937814071+937914835+937142651
1298+936240445+935541663+935081841+934714683+933860779+932006969+929737261
1288+928213908+927440630+926105670+923479604+920470473+918356618+917315487
1278+916590438+915603593+914516421+913843250+913785900+914083377+914454255
1268+914904301+915599580+916722358+918321303+920072306+921525176+922752001
1258+924214867+925987906+927766562+929234025+929791109+928622290+925763248
1248+922478020+919972417+918215358+916196503+913050345+908789508+904002742
1238+899189418+894592798+890451258+887209881+885302734+884521065+884080213
1228+883828850+884502386+886114318+887355956+887387331+886927143+886842723
1218+887013315+887225787+887950909+889610706+891943163+894528443+897345604
1208+900399753+903183569+905035701+905933384+906702503+908393748+911189384
1198+914066303+915957690+916976567+918054107+919903174+922638979+925594116
1188+927424359+927513667+927167596+928229084+931068281+935009387+939630377
1178+944097266+946427899+945669287+943929739+944113391+946605714+949694813
1168+952214790+954381034+956823741+959862860+963126125+965653252+966947205
1158+967429428+967798628+968793281+971104506+974481013+977489486+979107986
1148+979733584+980176624+981165221+983520516+986994139+989347318+988700269
1138+986453107+985797448+988175654+992647650+997279366+1000255662+1001214562
1128+1001720498+1002980450+1004204868+1004590413+1004782528+1005314148
1120+1006113401+1007705488+1010487552+1013218907+1014249093+1014028375
1111+1014948093+1018432369+1022803164+1024852154+1024025757+1023315594
1103+1025240471+1029147868+1032709121+1034181472+1033504216+1032375965
1094+1032525177+1034284134+1037019574+1039704888+1041221748+1041282089
1085+1040886622+1041149294+1042072587+1042737440+1042379695+1041593575
1077+1042185974+1045155558+1049603257+1053837827+1056553494+1056956404
1068+1055186722+1052329577+1049342117+1046860082+1046033759+1048237434
1060+1053159476+1058397527+1061919890+1063938016+1065099174+1064287808
1051+1060814696+1057782217+1059561749+1066006925+1071992571+1073741823
1043+1072881498+1072029710+1070582313+1067520137+1064281752+1062599263
1034+1062711044+1064682692+1068643061+1072742136+1073584584+1069980939
1025+1064260008+1059492943+1057346764+1058199793+1061599648+1066063692
1017+1069334692+1069595759+1066189191+1060370780+1054741201+1051081519
1008+1049700811+1049710807+1049662869+1049060401+1049074045+1050958354
1000+1053750926+1054990083+1054065476+1052735041+1052120242+1051167617
991+1048578543+1044889529+1042023993+1040986948+1040507425+1038860396
983+1036141008+1033272334+1030199214+1027075675+1025534299+1026493564
974+1028123300+1027713239+1024652961+1020394385+1016236209+1012222065
965+1007733141+1002654518+998147936+995581700+994540569+993205464+990873663
955+988414758+985929732+982272312+977439798+973225512+970847087+969486444
945+967832119+966286730+966382314+967920844+968431742+966298769+962927954
935+960421914+958607942+956097160+952925756+950564186+950028480+950900042
925+951919429+952120301+951521116+950820875+950529017+950881071+952498695
915+955829015+959350357+960023090+956857961+952403184+949728888+949707072
905+951230498+952504678+952240181+950672319+949288474+948974216+948868636
895+947567241+945246458+943744993+944045169+944706228+943906829+942200115
885+941479444+941847332+941519210+939680285+937505796+936123410+935383914
875+935045942+935555891+936965639+938276812+938449227+937398392+935833084
865+934524027+933798468+933535139+933504493+933707554+934434208+936135741
855+938822514+941156722+941143151+938868846+937162498+938203847+940447434
845+940184324+936625260+933354405+933508434+935735238+936335153+934295429
835+931841121+930812832+931289290+932760839+934512426+935582742+935615139
825+935142693+934742702+934805743+935594927+936584910+936887494+937032694
815+938726857+942298471+946090876+948655798+949766100+949342614+947504929
805+945721092+945868407+947853262+949427398+948865499+946984619+945662428
795+945230916+944612979+943795777+944570952+947880915+951790793+953190107
785+950950460+947069476+945037195+946859047+950977457+953929529+954669463
776+955189554+956492117+956974193+954950668+950977019+947281949+945552690
766+946144505+948371164+950600595+950952284+949066516+946621620+945341603
756+945476952+946426805+947425252+947720612+947485155+948071207+949941361
746+951578320+952096879+952954942+955120967+957060875+957395418+957089332
736+957322307+957599208+957024977+955323152+952525327+949566907+947998826
726+948346502+950030086+952434413+954910246+956573910+957043729+956264030
716+954341487+952999158+954760231+958842961+960672839+957726385+952992081
706+950030815+948737081+947251961+944635890+940873620+936612564+933927469
696+934725774+937239913+936801834+931373710+924176707+919494573+917671919
686+915702095+912256491+910157666+912353460+917100460+919446781+916544471
676+909789997+902670993+896509138+888647063+877840870+871663400+879159193
666+893108918+901713188+903622305+901752662+896549196+887581854+877627740
656+871398320+871589925+877290717+884944624+890413754+890988568+887176098
646+882490608+879640978+877379369+873177706+867757681+863975710+862397488
636+860874791+858466450+857407443+859337501+862023471+862285195+859726183
626+856544126+855331018+856685970+857960879+855615069+850618968+848045582
616+849886696+852294234+851235737+847711258+844985887+843174980+840465077
606+837527160+836679093+838413242+842450078+847791665
##END=
