##TITLE=<SNM>
##JCAMP-DX=4.24
##DATA TYPE=INFRARED SPECTRUM
##DATE=2/5/2025
##SAMPLING PROCEDURE=Instrument type and / or accessory
##ORIGIN=Admin
##XUNITS=1/CM
##YUNITS=ABSORBANCE
##RESOLUTION=4
##FIRSTX=4497.3318
##LASTX=599.83466
##DELTAX=-1.4281778
##MAXY=1.8499976
##MINY=0.38574919
##XFACTOR=1
##YFACTOR=1.7229446e-09
##NPOINTS=2730
##FIRSTY=0.4021126
##XYDATA=(X++(Y..Y))
4497+233386849+233659852+234148242+234459750+234389990+233503381+231945342
4487+230625678+230127134+230536545+231997546+234192229+235891241+236093395
4477+235009943+233547212+232617775+232845408+233971723+234738046+234242219
4467+233171065+232895674+233637729+234379092+234457899+234246975+234217241
4457+234366327+234630249+235003387+235313303+235472421+235549083+235318908
4447+234510569+233535070+233106356+233151190+232867082+232009308+231406289
4437+231805701+232825585+233539135+233563022+233057716+232266484+231621761
4427+231677078+232398913+232974342+232648911+231470721+230117621+229309525
4417+229455687+230508125+231959059+233039657+233085409+232107176+230895118
4407+230207221+230132220+230356947+230586742+230586102+230273470+229892271
4397+229792501+230111896+230848900+231985091+233277582+234237133+234600446
4387+234497873+234079883+233327675+232270687+231111611+230046321+229155336
4377+228576291+228521788+228917204+229329226+229547553+229864457+230459693
4367+230982487+231094556+230907953+230523606+229648794+228150622+226586218
4357+225675877+225558964+225994649+226934015+228392006+229933958+230735706
4347+230296095+229032923+227923819+227384904+226920384+226219220+225859817
4337+226318853+227142811+227691828+227872688+227666764+226882745+225851600
4327+225489585+226177188+227151061+227417302+226880514+226169179+225751708
4317+225767189+226278048+227008739+227309315+227007027+226764864+227135027
4307+227860148+228399945+228546748+228363327+227999184+227596191+227099965
4297+226307108+225306233+224622903+224716741+225509857+226523895+227286050
4287+227497665+227096091+226266546+225256970+224319179+223889496+224346907
4277+225418233+226316898+226567917+226264401+225661520+225033299+224744434
4267+225001091+225630056+226315982+226840990+227016644+226811256+226593050
4257+226738538+227085660+227361431+227870094+228977849+230202274+230578370
4247+229785011+228420408+227377310+227126863+227311719+227143849+226374446
4237+225534091+225196205+225393429+225745931+225901832+225862290+225926480
4227+226351804+227148865+228063979+228637091+228572382+228218514+228207305
4217+228504421+228441407+227793570+227150854+226991217+227057172+226938426
4207+226714010+226659402+226724734+226705413+226640842+226669141+226649301
4197+226254265+225450821+224690673+224547884+225181329+226111268+226579679
4187+226256928+225550575+225141113+225329654+225907021+226513776+227057258
4177+227774042+228786782+229697210+229902321+229269118+228229826+227381254
4167+227239312+227956183+228954445+229329417+228886086+228301299+228090081
4157+227960368+227469834+226899507+226968696+227754167+228401035+228155102
4147+227337060+226900423+227221652+227746920+227760515+227155265+226440712
4137+226216332+226616246+227176454+227396926+227420536+227805402+228610384
4127+229136500+228736015+227598976+226536574+226139808+226374256+226948579
4117+227721043+228555638+229107700+229076599+228527928+227792740+227164346
4107+226780311+226666062+226737725+226775139+226587532+226312816+226358550
4097+226871035+227473656+227732269+227670362+227591780+227572839+227415572
4087+227063329+226796588+226885859+227237635+227600394+227966561+228494475
4077+229145615+229645266+229741767+229379665+228721001+228031530+227434616
4067+226856281+226325426+226154182+226620518+227566180+228490843+229028772
4057+229179414+229064059+228698307+228088870+227354357+226693617+226370849
4047+226632799+227422768+228301558+228871245+229107129+229093222+228765507
4037+228154894+227592316+227465129+227850721+228416136+228637541+228193121
4027+227297812+226701158+227136774+228558562+230064484+230803858+230835961
4017+230803425+230900117+230655152+229733361+228486120+227631339+227644917
4007+228381108+229168292+229499190+229553763+229725716+229915813+229786446
3997+229441503+229315994+229563311+229951601+230257971+230493561+230814980
3987+231340680+231959682+232324292+232209628+231828585+231605329+231752858
3977+232249066+233013244+233844311+234370219+234322928+233824834+233276648
3967+233008262+233157781+233802884+234906609+236109084+236951273+237347416
3957+237458984+237271671+236841815+236731822+237495550+238737238+239356638
3947+239019496+238687318+239194216+240021564+240043601+239015258+237619157
3937+236699856+237186949+239846671+244158028+247753518+248256126+246044318
3927+243758789+243207886+243890611+244517708+245105506+246450303+248269532
3917+248961701+247260095+243735074+240227039+238238591+238336563+240794616
3907+246007648+253570780+261185094+265837139+266651877+264545548+260009880
3897+254066330+249498973+248861083+251874501+255004070+255146548+254101029
3887+255314246+258436394+260479450+261216592+262407945+262533731+259331669
3878+255502769+255267975+258936944+264108462+269023893+271843253+270381024
3868+266597270+265098941+266403315+266527267+263249512+259282268+258121756
3858+261483853+270266394+283198735+291301630+285225324+271755278+260686931
3848+255371257+255891146+260780596+267584203+274273958+280089628+284070364
3838+284282101+280588224+275680265+271718141+268816758+266531142+265147201
3828+265059261+266312538+269893533+277283104+286249654+289986238+286963030
3818+282910977+279740015+274624783+267768108+263076660+263317871+268439711
3808+275218081+279539020+281961025+285773649+289802938+289635414+286225645
3798+283851571+282662881+280620950+278096147+277093041+278369687+281348873
3788+285341562+289690592+293617533+297343203+302320610+308723524+314115687
3778+317005861+319817022+325848632+336407711+351028409+367418760+381858320
3768+392635865+400894089+407395979+412792950+419006355+426589776+432731120
3758+434934384+435276248+438035758+445631461+456267860+463750922+465267136
3748+466510190+472853325+482665437+488863378+490248097+493300106+502646574
3738+519058997+539387464+555816458+561280266+557663293+553061860+553322081
3728+559414439+568639030+576533872+580278050+580408437+578703683+576306032
3718+573788096+572100777+573004458+577265929+581603336+580359832+573348606
3708+565796077+561705711+562212972+565721768+567974986+565860354+561580859
3698+559293669+560516589+564710774+571697300+581458108+591088563+594139257
3688+588413983+580415079+576301396+577037674+580654544+585428327+591801282
3678+600293297+606864272+605564897+600247010+598998904+601367807+600191381
3668+592090632+581065113+571801499+566328004+564487466+565554226+569226274
3658+573820373+575491155+573681441+573790933+580606319+592383648+598693295
3648+590594552+574452244+560851154+553526154+550876482+549975707+549473254
3638+549688848+550809403+552432376+554943946+559801587+566720307+570546059
3628+566668934+559930694+556793583+557921888+561265113+565360461+569026663
3618+571007967+571940638+573351961+575200491+576756005+577980897+578437892
3608+576806443+573140450+569877553+569511334+572449906+576859304+580619880
3598+583540567+586316440+588018843+587385415+586436276+589033988+595813222
3588+602028011+602346489+597890838+593156700+590402898+590065877+591895172
3578+594685160+596930145+597993238+598245225+599309287+603667866+611778579
3568+619395903+620520298+614917074+607960576+603511567+601469515+600144056
3558+599149460+599634823+601971829+604497653+605458484+605603159+607271935
3548+610887905+613429989+611445709+605503873+599619947+596930283+597629648
3538+599881690+601338540+600571646+598140750+596098144+595794057+596602257
3528+597287231+597503309+597085821+595268979+592142662+589452168+588193546
3518+586902474+584057618+580850626+579828527+581628106+584034025+584348905
3508+582638477+581447937+582190615+583566236+583817808+582778378+581050514
3498+578976773+576824640+574857693+573287096+572524803+572945025+574291932
3488+575756600+576589708+576521384+575786732+574887790+574257338+573858081
3478+573090426+571593723+569876100+568475120+567127175+565506243+563854730
3468+562281608+560715820+559617613+559171584+558337300+556309466+554063755
3458+553059231+553519685+554762636+556210076+557553143+558308379+557726220
3448+555370395+551947047+549355874+549145712+550793005+552113136+551575743
3438+549585721+547314791+545209326+543056917+540986670+539882375+540366388
3428+541588479+541972825+541192024+540263677+539768385+539356882+538910646
3418+538791502+538932371+538818036+538289050+537615354+536953904+536228904
3408+535309240+534093446+532749964+531852855+531739350+531698909+530610908
3398+528554706+526929243+526775539+527639609+528267225+528071315+527520880
3388+527165109+527127677+527523025+528201979+528289677+527167358+525593025
3378+524978831+525904030+527498082+527908098+526055382+523420724+522776952
3368+524812639+527497840+528913556+529015023+528382875+527262493+526167849
3358+525791805+525963879+525687710+524381624+522521021+521153737+521106723
3348+522474768+524517374+526095166+526433744+525583477+524308145+523484516
3338+523311889+523212637+522828878+522650958+523115495+523730380+523695647
3328+522825661+521574684+520455237+519472507+518320021+517142489+516415102
3318+516005882+515294581+514324617+513866376+514290057+515138421+515781224
3308+516098249+516560953+517511959+518398170+518390040+517734091+517472279
3298+517840643+517986736+517298649+516158548+515344017+515310875+516020861
3288+517106994+518265050+519450020+520485368+520783194+519911028+518270101
3278+516913091+516670756+517386519+518144626+518470265+518828251+519570133
3268+520208784+520228676+519733627+518844199+517386208+515586456+514345547
3258+514353227+515124479+515345332+514355233+512772286+511483325+510888885
3248+511190585+512250391+513143521+513000853+512144393+511452950+511173703
3238+511090606+511069469+510809767+509907885+508675970+508065547+508368596
3228+508556445+507351410+504744185+502111672+500843363+501042905+501581751
3218+501348479+500407021+499810298+500269161+501211277+501366019+500196997
3208+498379602+496856608+495975966+495575949+495307806+494807498+493961140
3198+492938038+491831321+490660327+489761040+489540187+489773528+489799128
3188+489403158+488870954+488242058+487184881+485639261+484000306+482565701
3178+481292307+480199012+479523725+479270458+479004356+478322391+477240894
3168+476007630+474801107+473662667+472477005+471074330+469643600+468863318
3158+469134021+469836845+469985741+469435202+468665229+467756912+466552707
3148+465445679+464992524+464936965+464431883+463136694+461516385+460132392
3138+459143989+458502881+458241414+458322574+458329596+457710940+456448859
3128+455160139+454356056+453873461+453252522+452422631+451690159+451256203
3118+451096791+451129137+451172969+450870300+449966619+448715089+447778785
3108+447587753+447857384+447854997+447204929+446270562+445580676+445167789
3098+444752204+444293825+443979913+443756881+443165313+441806090+439985581
3088+438652892+438480196+439182709+439927705+440215117+440071584+439569408
3078+438631962+437394443+436420258+436247908+436720332+437029400+436584133
3068+435587738+434562941+433674585+432796885+431845082+430798007+429663683
3058+428597511+427940870+427989302+428704616+429649534+430145240+429614455
3048+428074786+426295030+425119885+424620926+424207244+423469547+422542861
3038+421785896+421485925+421712278+422126376+422095275+421278358+419998356
3028+418851613+418104888+417674357+417509583+417578980+417501626+416762374
3018+415483029+414455222+414162310+414189155+413813492+412889642+411899440
3008+411258366+410809743+410129197+409154805+408185013+407398643+406757881
2998+406228064+405762005+405239660+404650237+404148476+403822041+403582300
2988+403281604+402803783+402128011+401380732+400738690+400266197+399907070
2978+399564064+399177227+398847644+398816958+399178092+399644151+399658923
2968+398787276+397191218+395685832+394964914+394800175+394399257+393417081
2958+392163613+391074194+390429384+390312627+390471693+390468684+390144463
2948+389632116+388962399+388123686+387388688+387067373+387035062+386908757
2938+386549734+386080596+385598520+385133568+384736075+384431227+384158137
2928+383818972+383406638+383022568+382604458+381806774+380574755+379549440
2918+379267666+379283234+378786109+377773385+376889146+376436476+376131662
2908+375604648+374822186+374087361+373643754+373324549+372830296+372260557
2898+371958546+371900011+371727419+371383306+371210229+371318960+371285611
2888+370684356+369645894+368651402+367947020+367407102+366883685+366448242
2878+366255204+366334080+366584960+366822971+366772602+366249150+365452124
2868+364800603+364389792+363944213+363357903+362860398+362563195+362233923
2858+361606031+360661286+359661432+359054123+359139364+359671291+359991118
2848+359666759+358830365+357899319+357219361+356961078+357089631+357332659
2838+357292840+356734794+355816722+354952824+354351881+353805389+353047836
2828+352138274+351319073+350712802+350336827+350221627+350307975+350328421
2818+349975521+349196277+348261218+347525217+347135681+346951846+346685882
2808+346159940+345518555+345119610+345130749+345359074+345507589+345377962
2798+344846589+343973835+343091810+342468726+341987619+341394667+340706718
2788+340158704+339856762+339641791+339291624+338813111+338449071+338309690
2778+338132911+337596590+336764347+336003058+335544021+335342819+335252146
2768+335095606+334693650+334076586+333555625+333308135+333006781+332188549
2758+330944975+329933151+329670163+329990025+330220529+329850505+328996571
2748+328163290+327615380+327172396+326594215+325930033+325424501+325221119
2738+325195104+325024034+324475813+323649450+322850107+322256809+321816696
2728+321430274+321099480+320857767+320646117+320359224+320001238+319675979
2718+319407214+319087940+318613786+317968215+317213602+316510086+316069073
2708+315944982+315923464+315741324+315377942+315024523+314806196+314630732
2698+314299938+313721931+313039206+312533432+312345894+312340117+312281375
2688+312052601+311660921+311164626+310640344+310157092+309769563+309479625
2678+309143400+308591338+307955074+307588716+307526446+307387064+306972517
2668+306563919+306444983+306471690+306292767+305784641+305144951+304665366
2658+304472466+304435104+304302503+303967834+303581377+303354229+303286147
2648+303165515+302811231+302227793+301555723+300967060+300583648+300388811
2638+300209334+299891306+299519136+299339037+299430194+299575422+299500870
2628+299133337+298603762+298113695+297812514+297707311+297659848+297519220
2618+297277646+297051432+296878424+296632594+296235794+295835741+295623227
2608+295576351+295506850+295252199+294775001+294224185+293897162+293983545
2598+294345681+294637349+294590369+294149253+293434977+292691400+292235754
2588+292286539+292709459+293060906+293030635+292683616+292159577+291461768
2578+290713763+290240785+290174398+290274965+290275380+290123094+289818713
2568+289330860+288781566+288450322+288442971+288537553+288480212+288249725
2558+287927061+287550101+287228647+287143389+287293270+287447406+287425041
2548+287281058+287197478+287254939+287309184+287150221+286807423+286531773
2538+286426311+286310800+286033057+285716187+285579694+285627538+285629683
2528+285410336+285070011+284856579+284870971+284980359+285009661+284953981
2518+284949639+285041799+285097566+285028636+284957111+285017617+285131140
2508+285120934+284946941+284716869+284548704+284466369+284357828+284062165
2498+283604063+283281313+283357040+283708712+283963484+283932124+283709127
2488+283447834+283277196+283304024+283442039+283399938+283064819+282690557
2478+282520282+282466055+282316624+282043568+281773505+281607935+281567235
2468+281661021+281927451+282308598+282535245+282360161+281918439+281602331
2458+281573860+281646145+281613713+281464886+281280480+281090071+280853340
2448+280554061+280290035+280188880+280228630+280255614+280202338+280187843
2438+280355661+280651342+280833171+280744747+280487328+280247276+280079475
2428+279961853+279914493+279952357+280024885+280076932+280116145+280188604
2418+280310584+280446368+280568332+280705102+280881154+281038611+281075679
2408+280950274+280731705+280566792+280572414+280741495+280984401+281242529
2398+281497059+281705423+281842573+281979534+282200040+282470293+282692010
2388+282805602+282714168+282200801+281060077+279242527+276777814+273673326
2378+270016725+266099989+262271746+258650137+255151236+251826760+248908598
2368+246480729+244461302+242871298+241750553+241101765+241340001+243279359
2358+247232713+252648971+258998263+266435851+274895624+282900149+288232255
2348+289645619+287789115+284906119+282995198+282024731+280968886+279645260
2338+278489090+277572592+276517715+275055745+273434295+272191863+271546033
2328+271233764+270965483+270730135+270665616+270897989+271515261+272501485
2318+273639423+274599304+275219101+275664403+276236426+277043743+277943377
2308+278777904+279532551+280209395+280681058+280820267+280719043+280608807
2298+280589071+280594295+280578572+280562900+280544825+280516336+280544306
2288+280700674+280921059+281035377+280950412+280709564+280357287+279875678
2278+279328460+278926193+278808589+278849307+278801981+278586578+278326530
2268+278131503+277961626+277753574+277579666+277556990+277653751+277725137
2258+277699814+277611442+277499684+277383117+277283571+277211164+277154273
2248+277106792+277077646+277062926+277032846+276973222+276915484+276884297
2238+276864370+276876063+276994706+277214105+277395242+277431394+277382857
2228+277403856+277565984+277760562+277817418+277741241+277708946+277788998
2218+277836687+277727282+277527255+277378014+277336085+277372133+277425357
2208+277401729+277213603+276924963+276772954+276909551+277203813+277425288
2198+277516012+277571623+277670598+277791299+277808614+277580583+277123865
2188+276671280+276494260+276688439+277123432+277545435+277737504+277649842
2178+277420929+277254598+277234654+277258784+277183091+277015878+276918269
2168+277007436+277212773+277371009+277426723+277463446+277547182+277636817
2158+277668505+277643805+277605751+277593487+277642456+277764955+277905185
2148+277976277+277962145+277910478+277825306+277680942+277546525+277561141
2138+277766633+278072502+278372005+278608424+278766245+278872364+278972792
2128+279068862+279128053+279177420+279310817+279557701+279810311+279942342
2118+279954190+279953585+280038463+280236863+280512496+280796276+281041690
2108+281257388+281468778+281668960+281839927+282000360+282192273+282425130
2098+282652468+282799945+282843984+282897866+283139492+283557689+283883865
2088+283914844+283776068+283720353+283815696+283957274+284066126+284171035
2078+284330983+284521478+284644168+284667710+284668194+284727213+284918054
2068+285326686+285895647+286342609+286447120+286322631+286244240+286342263
2058+286558982+286768314+286879190+286912816+286982489+287149633+287349296
2048+287501201+287636224+287876259+288294335+288785458+289105752+289110942
2038+288926777+288791927+288779110+288788433+288781981+288870820+289131283
2028+289457061+289685922+289805360+289938618+290199773+290665573+291346222
2018+292011270+292228386+291836601+291224103+290919151+291080189+291485327
2008+291824770+291941423+291922154+291973700+292183655+292457817+292651097
1998+292748101+293059072+294077677+295769112+297214303+297532159+296922325
1988+296184110+295707188+295462154+295408740+295493047+295600602+295702518
1978+295845186+296004563+296073476+295981247+295906072+296344006+297598961
1968+299109398+299782402+299262340+298315727+297768371+297724920+297946568
1958+298357760+298899650+299306691+299345887+299119430+298973614+299171806
1948+299797277+300994010+302899655+304906629+305536251+304058195+301662447
1938+300011626+299565805+299822289+300276759+300714243+301048496+301240116
1928+301422603+302073466+303576430+305441496+306790134+307715506+308767806
1918+309273718+308090858+305881955+304552137+304920570+306209497+307147669
1908+307079276+306300066+305558461+305278867+305339719+305499927+305840995
1898+306670471+307912107+308916632+309451465+310311833+311915503+313093069
1888+312647663+311242464+310192620+309740711+309522176+309451430+309540581
1878+309668927+309817545+310220261+311527662+314758628+320150237+325530949
1868+327166376+324094614+319400191+316157428+315020475+315154045+315650374
1858+316019119+316175971+316305182+316594254+317209278+318420678+320515557
1848+323818169+328468380+333066595+334323038+331063220+326540040+323989931
1838+323668512+324121840+324599523+326103490+329893679+334995904+338226005
1828+338237975+337032041+335904151+334024348+331316141+329289553+328795818
1818+329166396+329540779+330113286+331721729+334379116+336669281+337163604
1808+336169181+335278646+335873881+338456544+342335675+345606875+346559369
1798+345688968+345458360+348000963+352981103+356647962+355106009+350002401
1788+346156273+345667139+347314294+349325661+351232898+352829406+353470444
1778+353637882+355446352+360630324+368297118+374171599+374321948+370066703
1768+364935073+360960045+359604523+361626407+365207021+367090838+366916239
1758+366675391+366797683+367141415+369460501+375394900+383019628+387474518
1748+386673306+383363049+380846911+380456165+381901149+383773099+384532244
1738+385066835+388609810+396081318+401987038+400080908+393304510+386793107
1728+382059973+379627520+379704043+381458337+384639660+390956330+401760858
1718+413889427+419259760+414624978+405908133+398925274+395835523+397074046
1708+402114208+408759042+414075477+418326259+424906540+434358348+441174668
1698+441420429+437183693+429840254+421434172+416327692+416349002+420007627
1688+426171804+436162909+449294826+456662757+451521441+441629034+435346925
1678+434954656+439249719+444616558+448071110+450975606+455110531+457360047
1668+453983818+448623136+447155563+450036466+452747405+451919279+450029927
1658+451716796+459915760+475394682+492692797+497384453+490526896+487282853
1648+490549278+492575313+486691284+477740060+472770955+473588254+479857909
1638+490757919+502273194+505649112+498513794+490098164+487153330+489632002
1628+494361469+498977293+503420802+506914445+507289382+505833397+507134398
1618+512755542+517976634+517159094+512750042+510238921+511082131+513531396
1608+515525362+516654842+517715341+519101272+520424516+521418697+522512026
1598+524312746+526828849+529360485+531211851+532425881+533511565+534620115
1588+535493457+536138439+536995867+538343052+540156018+542989873+548265140
1578+556386474+563759352+564826078+561593313+561114661+565278507+569733258
1568+570051529+567930013+567170591+569708143+577647958+593742456+614406526
1558+622229273+612464798+600726976+593948433+591616823+592165218+594088264
1548+597221155+603421760+614205462+628636062+644256510+656501144+657295714
1538+647993077+640787636+641123689+645704434+648436857+648714998+651336718
1528+658706206+668890937+679556741+691015731+702848758+711225711+714688150
1518+716387439+717362800+716382319+714824315+716261238+723193034+736083758
1508+751487643+757949576+748303553+735475446+730468702+733565061+740923064
1498+747312486+748400764+745134476+743470613+747742151+756672826+763648489
1488+763051939+757360637+752501751+751157334+752583532+754990558+757745191
1478+761752150+768048789+776360912+783683144+784627785+778211033+771068209
1468+768915869+771828253+775661478+776451412+775930416+779348574+789211575
1458+801322397+804501921+795345273+784124018+777753969+776475697+777713908
1448+777984300+775471138+771668564+769020691+768478939+770266651+774932638
1438+781688002+786172090+784436546+779488890+776321612+775702714+775520055
1428+774760356+774656918+775998014+778013083+780518426+784430181+788381234
1418+788002354+782558196+776492579+772825063+771183340+770056454+768924656
1408+768616141+769737630+771269965+771979293+772759126+775332275+779559878
1398+783823321+786911723+787838652+785831194+782565737+781422108+783474953
1388+785976077+785321546+782163747+780916611+783992558+789694516+795219557
1378+800069932+805487384+811345017+815532906+817048566+817545829+818593839
1368+819994991+821491555+823892493+827327187+829891341+829733105+827720389
1358+826171103+826025598+826339371+826026913+825404763+825431055+825973083
1348+825931224+824979110+824194019+824886950+827367455+830629176+832823444
1338+832693576+830934577+829400859+829169490+829954304+831034694+832326320
1328+834373769+837285323+840157300+842146284+843730304+846029187+849283297
1318+852823643+856027452+858589185+860397862+861875261+863854697+866466869
1308+868728113+869873334+870628120+872289493+875007939+877890434+880315172
1298+882146820+883077831+882809169+881527091+879693022+877774127+876221658
1288+875292376+874821267+874204098+872736594+870381183+867857919+865538072
1278+863031137+860386031+858648550+858508165+859257277+859694553+859460071
1268+858962323+858475784+857924553+857424246+857525746+858771222+861212013
1258+864444536+867909811+871006862+873130973+874081287+874442940+875043918
1248+876038860+877051237+878064099+879487461+881484056+883648020+885221384
1238+885678586+885422794+885538478+886550095+888044652+889570691+891052103
1228+892451802+893904984+895771157+898009915+900042211+901562161+902937921
1218+904604621+906596373+908761375+911055345+913607184+916649783+920037359
1208+922837933+924299903+925117236+926688109+929362136+932342118+934905720
1198+936826414+938100534+939167087+940939509+943837709+947140944+949780515
1188+951635894+953531611+955799290+957737697+958883540+959612449+960043568
1178+959749790+958882226+958416374+959225266+961441952+964230695+966198577
1168+967057285+968307397+971216598+975115414+978808461+982560734+986960964
1158+990587728+990926409+988039348+985386424+986087865+989518269+992138675
1148+991699115+989813154+989684254+992467877+996432284+998905040+998818415
1138+997748126+998131711+1000513829+1003116522+1004057220+1003621465+1003862452
1128+1006125702+1009381404+1011162751+1010577202+1009899770+1012091963
1120+1017367922+1022842039+1025500291+1025415673+1025142998+1026313404
1111+1028683413+1032039370+1036316789+1039755081+1039557823+1035265666
1103+1029678286+1025914943+1025009947+1026927320+1031358686+1036649175
1094+1040765660+1043368076+1045295205+1046428180+1045687785+1043137261
1085+1040538373+1039858796+1042215383+1047699671+1054910439+1060440876
1077+1060762883+1056339889+1051876489+1051058879+1053168391+1055191002
1068+1055832663+1056737451+1060037226+1065287032+1068771957+1066738000
1060+1059726082+1052730077+1050867502+1054981842+1060792012+1062922350
1051+1061327191+1060984635+1064479178+1068970530+1070709741+1069194358
1043+1066200469+1063833019+1063618532+1065135230+1066077796+1064857989
1034+1062021090+1058900031+1056172590+1054067091+1053322407+1054729786
1025+1057931866+1061157677+1062777467+1063053533+1063370212+1064568847
1017+1066940725+1070552197+1073741823+1073590022+1069577528+1064222970
1008+1060242718+1058803650+1059864668+1062543400+1065434336+1067749686
1000+1069663461+1070713339+1069217052+1064709578+1059233593+1054960809
991+1052341925+1050715493+1049561762+1049466350+1051536493+1054740164
983+1055503599+1052589761+1049529658+1048940304+1048486976+1045456485
974+1041442262+1038951655+1037338646+1035045575+1032476162+1030355580
965+1027740363+1023432293+1018075728+1013452916+1010356419+1008533212
957+1007920610+1008638311+1009600319+1008233899+1003084903+996150546+990858465
947+988480983+987552533+986007398+983271100+980776273+980416074+982142692
937+983689142+983091139+980587386+977562362+975089191+973940580+974504542
927+976169028+977409661+976847498+974062907+969689383+965267912+962279627
917+961018721+960968352+961809071+963422703+965478178+967529432+968939372
907+968803968+967186946+965620985+964940785+964052325+962248422+961031176
897+961978100+964439301+966441569+966461565+964117986+960561311+957525770
887+955182052+952599909+950241869+949613630+950666829+951929257+952911952
877+954390181+956437699+957632806+956677509+953999123+950880555+948027258
867+946132787+946470430+949232743+952309798+953173003+951112339+947268321
857+943917000+943142011+944782074+946568818+946845021+945376479+942044046
847+937307279+933054630+931320954+932613202+935637258+938380197+940154972
837+942065634+944699047+946349280+944948336+941632093+940262423+942778075
827+946702215+948614745+948769729+949489228+950540351+949810889+947422821
817+945907852+946936559+949828601+952614646+954219906+955367341+957053207
807+959488047+962678918+966236769+968475734+967402055+963077172+957887837
797+954355379+953582465+955446425+959157599+963329228+966198577+966419982
787+964148222+961484711+960983642+963073435+965394113+965435834+963301207
777+960721692+958458857+956133682+953967919+953247589+954732391+957840235
767+961818757+965954823+968204651+966491247+962049711+958252188+956436523
757+955843363+956305686+957656330+958009265+956175541+954469680+956130983
747+960788252+964754942+966166680+967028917+969398166+972640237+974929156
737+975410921+974428780+972808574+970759603+967490202+963333864+960874739
727+961882065+964784486+966888117+966990171+964810017+960674297+956888329
717+956376052+958517252+959434702+958232469+959654378+967254405+976917034
707+981179647+978438852+972374896+965782818+959994651+956382971+955534918
697+956626586+957974601+957443296+953546279+947536291+942446866+939112289
687+935914707+932261444+929510755+928339726+927868201+927258644+926304800
677+924897214+923065635+921769789+920833312+916864339+907010955+896740637
667+897818399+909328519+919521069+921954179+917666242+910935440+905100017
657+901182243+898580449+896568010+895999136+897593810+899265147+898613453
647+897160478+898154659+901076245+902226517+900650316+899713216+901853725
637+905276242+906260182+902667391+896487751+892612667+892735685+892964148
627+889018422+881780324+875764524+873508331+873484737+873546108+874672856
617+879836659+889745117+899811603+902507979+895156203+884310092+880414320
607+888306049+901205075+905539922+898008116+889320572+887205179
##END=
