##TITLE=<SNM>
##JCAMP-DX=4.24
##DATA TYPE=INFRARED SPECTRUM
##DATE=3/5/2025
##SAMPLING PROCEDURE=Instrument type and / or accessory
##ORIGIN=Admin
##XUNITS=1/CM
##YUNITS=ABSORBANCE
##RESOLUTION=4
##FIRSTX=4497.3318
##LASTX=599.83466
##DELTAX=-1.4281778
##MAXY=1.7172462
##MINY=0.18434207
##XFACTOR=1
##YFACTOR=1.5993101e-09
##NPOINTS=2730
##FIRSTY=0.20272732
##XYDATA=(X++(Y..Y))
4497+126759228+127228389+128401141+129359671+129280064+128154085+126642446
4487+125373139+124675054+124804601+125827644+127185390+127880065+127387061
4477+126345710+126055748+127104684+128808174+130011132+130039345+128980329
4467+127559766+126722500+126967394+128086740+129500547+130580267+130894528
4457+130539709+130025108+129652381+129279906+128723732+128073248+127597212
4447+127487231+127635534+127640611+127168274+126328548+125634507+125612658
4437+126353779+127263300+127401913+126356304+124639248+123063451+122112281
4427+122023050+122810571+123966953+124678306+124543523+123769986+122759746
4417+121864116+121380505+121455853+121975793+122626994+123074501+123070299
4407+122456581+121284910+119998516+119155967+118862706+118810837+118842702
4397+119092693+119651141+120354034+120788338+120541049+119710846+118956000
4387+118793134+119105514+119398178+119260730+118626160+117812700+117211579
4377+116963293+117057947+117442581+117897487+118201005+118465373+118882114
4367+119240316+119122005+118415954+117357338+116266773+115456620+115263493
4357+115930132+117289145+118638888+119246372+119053747+118612930+118340615
4347+118194297+118018368+117766589+117376317+116859453+116526557+116686450
4337+117160893+117557146+117906580+118498477+119182241+119399156+118946794
4327+118327449+118173985+118435129+118375927+117598599+116799925+116963144
4317+118027313+119053868+119392848+119032569+118222388+117426043+117201880
4307+117570302+117980522+118142101+118290087+118627260+119138441+119791142
4297+120343645+120305882+119630345+119055126+119304856+120249066+121110398
4287+121271605+120789167+120243121+120141228+120438634+120658372+120509613
4277+120294338+120545997+121339714+122212786+122702519+122684099+122323345
4267+122013108+122188450+122898815+123670963+123960953+123688367+123278586
4257+123215443+123622634+124262654+124745949+124714997+124171560+123637225
4247+123576290+123799727+123934557+124118023+124647978+125371341+125931186
4237+126196961+126169726+125942376+125834361+126068774+126367317+126309913
4227+125964411+125751019+125817684+125959259+126126718+126590251+127437235
4217+128242012+128505093+128223945+127812030+127556374+127306989+126757160
4207+126041381+125831138+126550597+127712410+128458591+128570388+128448230
4197+128300393+127912312+127191986+126531850+126497703+127254663+128397013
4187+129410422+130147565+130689381+130947897+130759363+130295914+129997678
4177+130101174+130543641+131214380+131961679+132528717+132845568+133181492
4167+133731470+134294576+134489698+134059260+133059296+131987254+131512457
4157+131852285+132585785+133138595+133253421+133028652+132723074+132558122
4147+132618283+132841180+133058663+133134766+133052588+132799690+132385185
4137+132055289+132156493+132713627+133414619+133986511+134368844+134594731
4127+134677804+134604403+134424049+134338638+134569118+135067554+135482497
4117+135534031+135405415+135585015+136245803+137009453+137439062+137440218
4107+137101238+136560614+136111448+136057697+136379598+136756779+136917604
4097+136866909+136795241+136785709+136693878+136398326+136046321+135926566
4087+136193254+136789809+137538636+138223993+138648832+138716428+138521139
4077+138304382+138195715+138071731+137811696+137536166+137383727+137246941
4067+137004310+136808154+136843895+137011680+137113592+137193739+137469669
4057+138047003+138832717+139638994+140326140+140862376+141240917+141409838
4047+141364556+141228143+141143784+141155133+141235792+141342987+141409130
4037+141353059+141172556+141052503+141304283+142045936+142920583+143333327
4027+143070432+142511574+142151537+142149898+142479271+143151967+144005976
4017+144614728+144724280+144497032+144159068+143742447+143268638+142878478
4007+142715482+142849576+143275551+143894738+144516188+144888459+144873281
3997+144703875+144810595+145201220+145397367+145205702+145018630+145132217
3987+145371409+145555341+145704323+145720023+145497695+145346364+145690739
3977+146424425+147036093+147198110+146911568+146381016+145978241+145987083
3967+146268417+146446125+146407132+146435410+146874168+147683268+148385490
3957+148565770+148284762+147882313+147666712+147883729+148551617+149246814
3947+149496255+149337545+149122577+149039961+149098474+149258395+149412288
3937+149456256+149417226+149393821+149398200+149389107+149432488+149614705
3927+149817495+149801758+149531316+149272781+149308904+149697833+150290718
3917+150764015+150754623+150236426+149643542+149489127+149927280+150732346
3907+151662318+152609360+153363889+153655276+153577766+153448294+153306728
3897+153006666+152555506+152051322+151512171+151019624+150990610+151887423
3887+153477625+154743260+154995981+154902473+155332883+155970611+156105814
3878+155935318+155967369+156131893+156213428+156433417+156957848+157429356
3868+157594812+157626360+157543306+157138025+156490290+155930948+155660478
3858+155840049+156752198+158402915+159799626+159762077+158797649+158063898
3848+158086613+158820365+159870455+160767519+161350089+161768508+162104805
3838+162315449+162539678+162950363+163408883+163668406+163798717+164099030
3828+164543723+164815675+165016294+165654917+166716989+167594692+168305747
3818+169257335+169980652+169789220+169113440+168740843+168970886+170002957
3808+171711889+173167465+173837394+174312107+174854818+175007211+174987142
3798+175459153+176283207+176942738+177510307+178348952+179417994+180480625
3788+181644480+183277420+185437026+187732627+189928422+192303517+195229132
3778+198718756+202535546+206479088+210527467+214783901+219071286+222902331
3768+226362588+230333187+235478504+241697707+248620605+255991160+263461539
3758+270651842+277737363+285467469+294546862+305053078+315945923+325896738
3748+335222553+345185593+356040554+366220536+374578066+382423334+391524082
3738+402707382+415726030+429231598+441302608+450253497+455439922+458131226
3728+461043125+466003924+472032925+476757662+479519554+481559993+484175305
3718+487862474+492764797+499346162+508152783+518409577+527693651+534761749
3708+540655762+546588162+552916881+559302100+565298379+570829318+575948882
3698+580616113+585171388+590080382+594874066+598652283+601181020+602370757
3688+602064108+600933964+600245718+601034963+603541078+606906801+609664668
3678+610554837+608949514+606233314+605640066+608421934+612557001+615020555
3668+615644661+617048658+620578626+624727109+627423371+628788906+630348165
3658+632592055+635050466+637796444+641008134+644118901+646490773+648635453
3648+651672204+654761056+655879200+654691959+653207089+653825158+656912221
3638+660995633+664627793+667186904+668893674+670457629+671987595+672700699
3628+673016069+674894128+679040077+684702128+690527940+694598979+694911963
3618+691752002+688232618+686643544+687015935+688694232+691668892+695885578
3608+700427920+704590715+708318507+710837368+710432105+706946487+703444695
3598+703583857+708057773+713810537+716458349+714912432+712610551+713342663
3588+717436957+722003450+724427573+724458506+723571803+723570685+724733179
3578+725301232+723674293+720814570+719051822+719138510+719711856+719088047
3568+716823883+714141635+713193810+715367784+719848558+723814200+724607955
3558+722016792+718352432+716262463+716225567+716416309+715989878+716564789
3548+719005907+721469162+721577466+719412884+717836481+719506503+723734743
3538+726930334+726708136+724422579+722568448+722159309+723429808+726171463
3528+728986016+730375179+730621751+730804220+730807127+730162746+729801908
3518+730976030+733095218+734413272+734390613+733810633+733096336+731756815
3508+729300938+726181078+723827617+723602140+725678991+729039683+732651941
3498+736479539+740847760+744993859+746575852+743517412+737004211+731112434
3488+728912223+730026565+732020530+733014493+732173407+729674299+727647612
3478+728728860+732389716+734408129+731744516+726280437+722181596+721978182
3468+725627336+731201954+736294759+739328454+739435863+736289467+731164536
3458+726835894+725410654+726883375+729538714+731225359+730878460+729318157
3448+727995705+727142171+725992870+724510832+724071878+726055258+729621750
3438+731705234+730245260+726743094+724440468+725299965+729073523+733681459
3428+736201214+735187871+732328819+730593725+731171543+732750704+733388078
3418+732616535+731278952+729884645+728291471+726819719+726792438+729107587
3408+732440998+734228195+733463883+731551314+730631664+731715222+734172813
3398+736442493+737135622+735779553+733152612+730689953+729490861+729766428
3388+730824345+731877342+732716863+733073155+732056755+729441368+726809508
3378+725750994+725889635+726157002+726415202+726723714+726403201+725404244
3368+725516274+728249506+732337912+735081058+735481997+734425422+732827478
3358+731208886+730369440+731061152+733281861+736419312+739387115+740721717
3348+739780303+737677662+735837991+734367283+733145457+733296172+735758906
3338+739299309+741734687+742445854+741998254+740199280+736822488+733916701
3328+734448082+738053929+740694660+739751009+736912828+734859978+734043117
3318+733496158+732733038+732276791+732963957+734414912+734489897+731719769
3308+727818975+725724161+726121373+727465292+728436224+729195765+730570767
3298+732725286+734760843+735489899+734903732+734630252+735585233+736006297
3288+733991239+730654995+728288415+727434210+727692484+729292218+732194576
3278+735086574+736380851+735509278+733319428+731878684+733093280+736708519
3268+740150234+740831362+738676619+735953897+734470518+733594250+731671841
3258+728826430+726930483+727329783+729773062+732921992+735548858+737398890
3248+738963292+740546553+741695257+741953680+741737594+741727308+741776205
3238+741054454+739478573+738735877+740743482+744425507+745661421+742214861
3228+736807357+733297887+732390462+732621306+732927359+732892549+732550197
3218+732525003+733183471+733884649+733633606+732151940+730307350+729303622
3208+728962238+727889115+726012772+725378901+727342603+730655442+733599318
3198+736507789+739986251+742132496+740609984+736286187+732328819+730701954
3188+730652013+730046392+727780215+724845582+722887023+722204106+721790122
3178+720967745+720384262+721223261+723633669+726041171+726398878+724294374
3168+721306669+719211259+718304281+717968935+718299063+719831340+721669595
3158+721871742+720306743+718770367+717825896+716079398+712978918+710258283
3148+709957224+711957524+713879932+713608316+712032658+711936355+714119274
3138+716335734+716133960+713136565+708529599+704177328+702033617+702629995
3128+704021842+703640058+701364415+699191708+698143556+697333254+696129466
3118+695621788+696914053+698910700+699192603+697033015+694193194+692642879
3108+692697814+693270116+693161514+692069161+690600167+689410318+688822213
3098+689280696+690813122+691968534+691244324+689365595+688157931+687981351
3088+688038819+688077728+688039118+687091591+684693557+681948473+680523904
3078+680815273+682205256+684130050+685897792+686230231+684101576+680095013
3068+676220158+674328981+674850597+676743861+678498484+679344192+679560799
3058+679654792+679445414+678073469+675137718+671743483+669507196+668523891
3048+667465378+665765913+664368699+663963063+663780818+662866610+661589924
3038+661115863+661797363+662715000+662790209+661768815+660018441+658094617
3028+656742424+656540948+657155662+657606095+657264189+656228634+655084998
3018+654426604+653989365+652498680+649429208+646393054+645480038+646772079
3008+648473259+648840954+647340953+644614504+642008657+640742407+641041602
2998+642081406+642764696+642559642+641583716+639903035+637303375+634232933
2988+632155039+632117845+633506263+634765209+634987928+634238226+632823197
2978+631083109+629746495+629621569+630493365+630911150+629780558+627669867
2968+625900560+625058058+624712314+623964437+622305260+620216371+618564200
2958+617537738+616861307+616456454+616078844+615160052+613744204+612671529
2948+612354332+612248899+611608916+610144469+608205476+606621396+606104475
2938+606578126+607207562+607261453+606787242+606211288+605553602+604532060
2928+603174276+601738825+600371128+599265358+598621052+598152692+597202371
2918+595496160+593483747+591960714+591432090+591608634+591644002+590957656
2908+589584668+587951690+586616343+585841335+585265082+584448109+583491861
2898+582648912+581891830+581265488+580932527+580546383+579433941+577630458
2888+575975231+575078167+574705813+574186321+573186581+571997290+571042981
2878+570285638+569374151+568330769+567580209+567167306+566485619+565073498
2868+563320887+562087732+561785704+562071072+562302885+562016995+561079420
2858+559751042+558606251+558062422+557885059+557368846+556076545+554295945
2848+552820429+552309881+552675415+553053621+552533272+550955154+548919784
2838+547098300+545711671+544557264+543389814+542237345+541340281+540825858
2828+540494387+539981044+539109211+538028896+537022894+536277627+535793689
2818+535317802+534407246+532812954+530835052+529128469+528095187+527572340
2808+527145461+526593247+525888044+524970258+523831094+522721448+521967236
2798+521536667+520954862+519763149+518008302+516117647+514424518+513041541
2788+512019588+511267761+510468454+509482689+508644026+508199220+507729818
2778+506683678+505185502+503754895+502558114+501486929+500613233+500030458
2768+499526768+498805949+497820408+496750490+495883838+495396732+494990612
2758+494022551+492285108+490311716+488641955+487161258+485488329+483784540
2748+482736276+482618282+482748388+482198932+480790724+479065655+477606724
2738+476700380+476288147+475959286+475239063+474010715+472565126+471314230
2728+470482424+469883363+469018089+467613086+465980109+464609542+463550172
2718+462446563+461085835+459652024+458466833+457658581+457062762+456371385
2708+455437126+454442604+453694131+453272880+452977113+452538830+451793451
2698+450674301+449189580+447508525+446005840+445016275+444465365+443916952
2688+443085555+442124091+441324820+440763736+440330298+439873380+439235484
2678+438345762+437331226+436375687+435474300+434473553+433303717+432024982
2668+430744308+429642973+428933036+428601007+428339453+427883840+427257796
2658+426584047+425875862+425117923+424348505+423558291+422641661+421540996
2648+420382155+419369818+418535924+417708963+416785960+415886809+415181866
2638+414708140+414372943+414050566+413708065+413399999+413018328+412254090
2628+411052427+409841111+409025293+408518360+407988097+407353146+406859742
2618+406712716+406744879+406549664+405937111+405084546+404202352+403286393
2608+402314716+401488985+401051559+400904570+400697168+400327907+399981157
2598+399620505+398971615+398073544+397296934+396797082+396429461+396119979
2588+395909261+395725562+395381234+394757612+393919955+393094372+392559302
2578+392506193+392844372+393096907+392758430+391866807+390936164+390322157
2568+389978910+389757793+389616581+389572156+389613823+389636035+389473282
2558+389061870+388505146+387962696+387525382+387166109+386802475+386420990
2548+386079495+385816189+385658206+385634913+385704420+385780709+385831656
2538+385840004+385765764+385619521+385451177+385281678+385147137+385090861
2528+385070884+385026050+384978606+384941300+384840078+384619781+384326437
2518+384056050+383864525+383705908+383486096+383203150+382954081+382819168
2508+382806794+382823193+382676502+382264046+381716118+381208664+380772617
2498+380420388+380241012+380226254+380208402+380087427+379969358+380005248
2488+380187270+380317302+380134311+379544753+378787671+378267471+378150968
2478+378225655+378205194+378033422+377817373+377599350+377317559+376962610
2468+376689279+376704820+377023582+377382668+377473045+377221741+376766277
2458+376214845+375595174+375008635+374621634+374467005+374417549+374372304
2448+374351993+374431860+374638293+374854788+374859671+374542064+373987278
2438+373307716+372585443+372007774+371783825+371846400+371856798+371573479
2428+371077764+370596696+370237647+369990815+369894325+370048582+370465547
2418+370981573+371339504+371390153+371221660+371015600+370790793+370446204
2408+370045078+369843938+369983510+370298694+370511164+370550371+370605268
2398+370840249+371136016+371201684+370888028+370315837+369756915+369409270
2388+369170040+368602844+367252253+364978250+361839159+357698837+352240088
2378+345484341+338051865+330669776+323579838+316692719+310119217+304154337
2368+298885753+294262313+290452436+287793929+286549164+286917735+289107548
2358+293274853+299463813+307748557+318353089+330794180+342666993+350529181
2348+352305979+348772098+343263595+339059580+336511873+334028269+330754115
2338+326907249+322871616+318896433+315253465+312393836+310838024+310720012
2328+311537078+312556328+313422292+314343842+315796176+318069844+321029783
2318+324199584+327085358+329545073+331836816+334230975+336715176+339165536
2308+341533010+343700276+345427059+346617020+347477821+348320175+349281081
2298+350261515+351091272+351739715+352320663+352907277+353449690+353871910
2288+354148818+354300577+354384582+354466387+354562392+354633837+354633389
2278+354541708+354374370+354153141+353886184+353626456+353503021+353566714
2268+353630966+353445329+353057545+352797743+352814775+352852790+352649264
2258+352343807+352261108+352459788+352735504+352942608+353088553+353186049
2248+353203528+353165029+353184484+353357225+353647401+353906682+353998662
2238+353924944+353865835+354054714+354540031+355103575+355481184+355612445
2228+355612520+355583450+355563064+355627204+355903181+356400423+356906387
2218+357188028+357262864+357335464+357517561+357784630+358167979+358765028
2208+359522557+360176068+360481748+360453573+360357382+360482009+360881197
2198+361352873+361727613+362080513+362536759+363024387+363418916+363793954
2188+364321198+365009295+365675366+366132768+366389514+366682225+367237793
2178+368004416+368742230+369335067+369855081+370393469+370984033+371656067
2168+372471065+373503043+374796537+376360380+378179889+380155964+382133120
2158+384182541+386689215+389862482+393365989+396722991+399801185+402630198
2148+405122001+407276372+409348489+411542924+413740899+415731956+417590746
2138+419628464+422036711+424757197+427661568+430680466+433780015+436934945
2128+440088347+443123943+445937638+448441442+450443159+451714478+452201211
2118+451962391+450991162+449314356+447118841+444590700+441799142+438836408
2108+435843412+432802450+429533961+426013683+422486249+419148328+415944613
2098+412783272+409690544+406653719+403572618+400464759+397552636+395083306
2088+393088931+391328941+389535633+387720969+386106813+384810225+383778471
2078+382931571+382199459+381528059+380914723+380321327+379625776+378823226
2068+378137961+377769632+377657229+377595437+377462834+377268215+377048664
2058+376761469+376308502+375724311+375261169+375136281+375237690+375241901
2048+374995963+374651412+374467079+374576240+374902008+375257293+375543631
2038+375833211+376281370+377026451+378092791+379301610+380401269+381340857
2028+382224988+382969995+383249252+382851517+381938800+380893219+379977707
2018+379172771+378320356+377361201+376372306+375449899+374651859+373963836
2008+373252409+372372936+371382699+370518506+369925333+369511387+369078508
1998+368516566+367880534+367312704+366863165+366415714+365837411+365145252
1988+364488386+364059980+363992709+364192508+364347174+364228249+363877138
1978+363435389+362988758+362609248+362327792+362057033+361735998+361494384
1968+361485514+361621955+361649758+361445151+361125123+360905757+360877023
1958+360878514+360664105+360225524+359812025+359597020+359501015+359370201
1948+359170253+358994605+358975896+359135258+359271923+359134810+358729287
1938+358298420+358048047+358019499+358153034+358337403+358412389+358276133
1928+358048196+358001759+358259698+358669805+359022444+359241064+359295030
1918+359130897+358796296+358472205+358318620+358385369+358597355+358766369
1908+358738790+358569477+358458118+358517450+358670253+358766258+358752580
1898+358692130+358640773+358592770+358547414+358512829+358444254+358289699
1888+358076893+357866883+357694402+357613305+357668910+357797823+357890101
1878+357939818+358028630+358222578+358561166+359039961+359508842+359691795
1868+359475523+359096982+358839379+358757499+358803564+358937322+359045961
1858+359009885+358911010+358962031+359225188+359570671+359858947+360068845
1848+360308000+360669696+361032099+361171783+361143608+361187548+361331444
1838+361453276+361539777+361701115+362026622+362500087+363005417+363437700
1828+363809346+364136977+364346056+364419886+364481044+364640556+364912396
1818+365259742+365634445+366026514+366477282+367001880+367566692+368160610
1808+368782443+369388660+369976839+370657557+371530508+372529950+373500993
1798+374435587+375513890+376862990+378312641+379453817+380143367+380779176
1788+381753760+383070994+384556535+386116205+387738262+389394532+391048977
1778+392702191+394391109+396139508+397854664+399329434+400519731+401640856
1768+402838755+404153418+405701049+407515974+409347222+410956757+412537297
1758+414388596+416418525+418348536+420166069+422038388+423941118+425642447
1748+427043238+428292047+429571453+430985997+432604402+434469789+436557075
1738+438847179+441454665+444407300+447173142+449027161+450151529+451237882
1728+452759202+454906044+457508387+460154484+462695520+465446454+468720459
1718+472362830+475759375+478460891+480682756+482971219+485698786+488842909
1708+492135138+495334828+498378436+501491364+505078801+509278120+513606948
1698+517552353+521190737+524594959+527798339+531210947+535204094+539698881
1688+544510827+549854005+555918077+561890542+566787647+571119196+575689714
1678+580609777+585662705+590620074+595440555+600430162+605848400+611341325
1668+616215845+620474012+624791324+629702294+635131637+640461324+645387537
1658+650329850+655835297+662118995+668869524+674964491+679830254+684323327
1648+688996930+693489705+697187085+700269527+703361361+706707444+710186950
1638+713546002+716415191+718391938+719520069+720215434+720674811+720891791
1628+720863765+720604596+720028269+718909305+717296304+715820080+714863982
1618+713750907+711330362+707693357+704036228+700694543+697325502+694028838
1608+691313420+689223302+687177757+684821762+682556405+680982610+680118343
1598+679436172+678502509+677347693+676198616+675035451+673692725+672264429
1588+670971270+669780899+668604765+667681836+667417674+667942942+668935415
1578+669813099+670158806+670271881+670981035+672679307+675183111+677956072
1568+680557073+683297535+686758481+690950719+695557387+700819021+707630373
1558+715816204+723693822+731201507+739282836+748066164+757071615+765691854
1548+773242249+779573651+785467068+791613840+797361834+800960302+801875553
1538+802332024+803942938+806133459+808057581+809784700+811970600+814831888
1528+818080773+821366033+824579364+827920527+831424034+834621489+837373728
1518+840405037+844031084+847427853+849840348+851702455+853909672+856749866
1508+859946799+863143284+865872491+867789979+869147763+870507856+872125330
1498+873497946+874166850+874990494+876890466+879098727+880066006+879499741
1488+878882269+879488710+881262489+883574656+885783066+887715761+889868268
1478+892403676+894469718+895230080+894980452+894798356+895487460+896868499
1468+897949672+897847927+896929173+896826906+898466443+900962123+902626928
1458+902231876+900603968+900338016+902124840+904691107+906814022+907492690
1448+906173443+903705119+901794413+901155027+901469130+902630431+904622532
1438+906463023+906683655+905616123+905180672+905972265+907182836+908295016
1428+909482779+910734718+911684480+912322227+912932693+913246945+912613521
1418+911506335+911528323+912988373+914339969+913889760+911299790+907677991
1408+904500662+902609858+901926569+901866417+901916134+901862615+901767878
1398+901834962+901970397+901562302+900306040+898844500+897762730+896635418
1388+894725085+892405763+891264512+892235667+894495807+896592410+897984406
1378+899080487+900299033+901981727+904744178+908686415+912640504+915314627
1368+916652658+917432101+918091911+918696116+919561576+920959311+922510670
1358+923712370+924650505+925693142+926926596+928265222+929684350+931002032
1348+931926005+932629792+933670863+934976395+935640007+935224830+934602289
1338+934935623+936418108+938335448+939767620+940043783+939241531+938603188
1328+939701207+942683619+945856177+947547741+947936904+948393300+949697416
1318+951553411+953073314+953284778+951889577+949729169+947860875+946465227
1308+945408875+945148141+946157609+948028958+949787756+950735133+950683925
1298+949717466+948080986+946256297+944804521+943896724+942986392+941240937
1288+938518364+935738397+933945237+933005761+931779910+929785647+927745022
1278+925968634+923534597+919843255+915728909+912398852+910297702+909205348
1268+908511176+907416512+905576841+903399066+901297543+899021229+896202278
1258+893159043+890639661+889054313+888183561+887526211+886664999+885462777
1248+884233572+883432661+883040741+882776280+882797747+883417754+884505262
1238+885828907+887349332+888835843+890011380+891104554+892439752+893902187
1228+895414040+897128263+898763775+899743427+900226358+901027194+902478597
1218+904117388+905350022+906024740+906652424+908084819+910556050+913256262
1208+915175689+916074691+916511632+917289808+918971161+921738009+925507915
1198+929893578+934035130+937037668+938790278+939809510+940461195+941019112
1188+941954414+943386884+944824349+945933771+946942270+948092837+949440260
1178+951300131+954170811+957954506+961641972+964233135+965843602+967183272
1168+968258780+968787478+969409273+971179699+974116643+977149368+979356586
1158+980664428+981573866+982398926+982819619+982540772+982059853+982206842
1148+983552625+986491656+990614350+993984806+994736596+993520360+992733687
1138+993572015+995365920+997206038+998747706+999938450+1001242119+1003680553
1128+1007763742+1012555562+1016128762+1017157908+1015907459+1013822558
1120+1012602000+1013068980+1014705908+1016530746+1018465452+1020972313
1111+1023406945+1024418202+1023812655+1022665591+1021874967+1021784180
1103+1022890472+1025372138+1027935498+1028853731+1028546858+1029588452
1094+1033656658+1039499613+1043903688+1044266315+1040879012+1037057154
1085+1036475609+1040136316+1045585711+1049246940+1050231586+1050514234
1077+1051172702+1051023254+1049336833+1047681867+1047838471+1049538607
1068+1051134390+1051443946+1050335716+1048591379+1047944911+1049714442
1060+1052957737+1055002611+1054372467+1052825358+1053066190+1055084752
1051+1056776540+1057862930+1060040929+1062918764+1063714904+1061657284
1043+1059146175+1058748739+1061546297+1066906470+1072084099+1073741823
1034+1071314718+1067586629+1065411239+1065402071+1066764028+1068919889
1025+1071361379+1072500617+1070513808+1065549283+1059863901+1055827373
1017+1054288463+1054472870+1055125002+1055734872+1056517297+1057326033
1008+1057786901+1058024603+1057997024+1056892148+1054445664+1052063356
1000+1051369334+1052278249+1053017666+1051769006+1048091006+1043002300
991+1038147867+1034929617+1033875427+1034644062+1036283077+1037766159
983+1038496929+1038094126+1036073327+1032163738+1027155235+1022558704
974+1019254660+1017141659+1015598127+1013607889+1010216562+1005421312
965+1000587750+997282961+995200222+992700592+989171668+985100703+980682616
955+976177617+972583770+970394292+968874762+967255723+965149206+961843523
945+957152254+952690711+950530154+951039322+952961134+954760257+955366995
935+954596124+953289250+952240874+951166261+949658432+948665960+949585534
925+952006527+953950998+954532320+954643903+954770021+954056991+952038354
915+949646655+947959638+947128838+946838737+947003242+947673114+948540140
905+948919538+948416779+947289467+945986395+944827479+944222976+944336349
895+944318832+942691520+938892992+934166317+930650139+929574854+930395815
885+931655730+932520817+933001140+933041316+932546757+931950080+931708652
875+931576645+931114808+930337825+929282591+927793323+926176669+925302712
865+925734063+927110182+928447766+928909007+928613538+928770515+930137616
855+931485336+931068147+929608545+930054580+934162366+940272018+944326062
845+943310334+938394035+934046311+933611606+936327321+938735717+938301682
835+935083134+930668773+926798092+925055246+926718858+931526407+936577992
825+938397314+936874355+934899770+934062560+933407297+932128002+931022232
815+931080073+932279985+934023055+935948817+938067037+940294603+942335154
805+944119220+945541404+945654030+943564434+940407826+938736537+939482214
795+940732812+940361762+939137029+939448747+941707992+944068087+944991612
785+944404402+942935333+941391205+940371899+939709629+939502116+941164610
776+945350288+949649488+950583597+947406641+942359453+938275221+936798699
766+937638444+939341337+941281262+943766655+946096711+946533504+944744220
756+942895456+943469696+946697338+950357077+952196300+952217022+952065114
746+952943841+954899717+957374526+959675885+961130642+961163364+959223514
736+955112523+949877201+945747576+944054819+943750182+943202477+942433917
726+942001298+941289088+939895602+938612282+937861088+937660060+939008898
716+942276418+944939957+944399110+942381517+942414910+944154774+943889270
706+939928398+934979675+932931372+934563306+937114665+937850131+937051159
696+936263591+934847967+930497708+922618377+913587136+906765498+903730834
686+903062304+902291805+901023169+900434245+900002074+897487834+893088307
676+890194744+889881833+887495128+877699725+862740779+854197762+860669742
666+872971335+879607225+880188547+878705092+877530672+876492657+874020979
656+869198150+863846475+861135753+861400587+861769922+860255758+857927342
646+856652072+856490474+855988834+854499789+853266485+853168840+853269317
636+852503887+850802633+848358235+845241431+841955650+839603605+839003053
626+840049640+842274597+844379251+843510660+838022282+830836377+827555962
616+830790611+837056345+839456690+834278092+824849713+817742520+817696530
606+825911730+839146911+849334682+848585278+837848162
##END=
