##TITLE=<SNM>
##JCAMP-DX=4.24
##DATA TYPE=INFRARED SPECTRUM
##DATE=2/5/2025
##SAMPLING PROCEDURE=Instrument type and / or accessory
##ORIGIN=Admin
##XUNITS=1/CM
##YUNITS=ABSORBANCE
##RESOLUTION=4
##FIRSTX=4497.3318
##LASTX=599.83466
##DELTAX=-1.4281778
##MAXY=1.8442315
##MINY=0.37323657
##XFACTOR=1
##YFACTOR=1.7175744e-09
##NPOINTS=2730
##FIRSTY=0.40168735
##XYDATA=(X++(Y..Y))
4497+233868966+234343076+234226978+233217612+231660203+230545149+230431029
4487+231008900+231773160+232540734+233241592+233727830+233934312+233905682
4477+233542847+232658411+231566696+231012544+231152639+231302104+230937378
4467+230296729+229894316+229977550+230478624+231200147+231974350+232625912
4457+232856373+232422502+231503051+230632097+230232078+230318714+230556445
4447+230592328+230406130+230146345+229814690+229466465+229460444+230128074
4437+231220119+231917611+231641411+230765009+230138450+230076714+230308424
4427+230566665+230586602+229990165+228902718+228109707+228027166+228207343
4417+228239894+228394894+228975871+229650928+229857461+229496535+228946929
4407+228600439+228595459+228853735+229163700+229315213+229186483+228647253
4397+227616597+226373612+225447655+225076040+225154364+225581972+226218994
4387+226742104+226912269+226706065+226131456+225339243+224684731+224244457
4377+223745031+223224003+223074209+223331929+223618106+223716419+223683746
4367+223607764+223556959+223567231+223616509+223647499+223521007+223126124
4357+222574193+222021187+221522733+221421557+222319405+224166046+225958376
4347+226702231+226184170+224769822+223074382+221900994+221889386+222906577
4337+223906156+223772950+222462485+220964868+220174634+220193980+220559973
4327+220697275+220247961+219262384+218102477+217304452+217521309+219004854
4317+220962335+222066006+221823190+220977344+220485189+220524212+220551541
4307+220142759+219653102+219817733+220787936+222008659+222939718+223330489
4297+222991391+222051205+221259079+221343129+222208409+223124736+223509781
4287+223350322+223065759+223014589+223094909+222974577+222599388+222210040
4277+221994865+221876181+221554469+220923693+220467647+220736489+221425756
4267+221716861+221481177+221285748+221344552+221336813+221187469+221244972
4257+221636905+222077666+222444197+222941228+223524998+223837445+223841193
4247+223773852+223485385+222685659+221657328+220885503+220371364+220026661
4237+220166322+221015396+222198206+223032461+223049830+222255743+221151951
4227+220471152+220714800+221769921+222870330+223226658+222917751+222739726
4217+222993143+223099611+222607768+221789233+221018311+220318286+219703161
4207+219378291+219501486+220054093+220883421+221711430+222269728+222530433
4197+222672489+222815100+222944993+223030865+223025833+222870954+222637856
4187+222536905+222656769+222832087+222857733+222707938+222481832+222288694
4177+222286351+222629701+223179827+223504836+223416587+223174257+222992414
4167+222834950+222765215+222922835+223160358+223233651+223215814+223274912
4157+223299673+223056285+222535344+222079262+222125417+222648787+223050489
4147+222876038+222353033+222019816+222119604+222362350+222162792+221379931
4137+220688339+220718478+221153478+221300687+221217644+221601699+222695896
4127+223790076+223943757+223034266+221815642+221031932+220896296+221322151
4117+222077787+222736672+222982073+222957711+222974369+222978741+222643721
4107+221914597+221121517+220571113+220390242+220741348+221691528+222791780
4097+223327400+223134783+222649794+222120454+221380001+220375233+219383791
4087+218815412+219123434+220463239+222060956+222605530+221777001+220627765
4077+220092145+220037401+220059143+220230783+220663162+221063043+221078884
4067+220732984+220375875+220345354+220615290+220753789+220390624+219705920
4057+219224280+219149964+219240903+219390853+219885334+220831089+221784323
4047+222310105+222506506+222620470+222542076+222067012+221398827+221017408
4037+221058288+221078832+220637066+219978268+219826356+220469139+221381267
4027+221848298+221710736+221383610+221272491+221317709+221208187+220942138
4017+220852796+221010346+221039063+220722643+220378842+220406448+220769058
4007+221092228+221087057+220816497+220674337+221100296+222142265+223289227
3997+223894600+223780272+223320148+222974941+222861880+222768963+222521168
3987+222255587+222208461+222300562+222230046+221976889+221887911+222298601
3977+223284143+224560183+225455706+225360464+224403552+223381780+222964131
3967+223243368+223968604+224843930+225567570+225807228+225306623+224159574
3957+223032375+222857334+223984064+225776846+227306753+228150569+228339422
3947+228156209+228214284+228949220+229852967+229927891+229014964+227887175
3937+227288378+227673631+229287329+231651145+233269458+232970008+231617882
3927+231176532+232173301+233161272+233003427+232649007+233503806+235159581
3917+235829727+234620074+232367550+230284028+228903603+228434664+229441062
3907+232714578+238281445+244455802+248515631+249066989+246660818+242256877
3897+237174183+233704649+233791909+236949881+239784371+239570324+238352846
3887+239395058+242057630+243485078+243714429+244259662+243698552+240652115
3878+238064206+239074005+242808686+246781549+250225646+252590573+252342465
3868+250233090+248809720+248258067+246683844+243759300+241363019+241314487
3858+244835382+252821294+263648291+269191109+262936276+251798100+243393428
3848+239731189+240454274+244312549+249688378+255383142+260625677+263930997
3838+263424024+259742005+255934101+253566294+251789875+249679424+247873473
3828+247363272+248401875+251563613+257590952+264316077+266587237+263962265
3818+260943242+258376484+254063967+248683766+245236424+245450662+249141149
3808+254116559+257685794+260459208+264649970+268686496+268876511+266482052
3798+265093316+264442430+262780495+260799764+260231644+261364291+263749918
3788+267477051+272572863+278220674+283904906+290395892+298040468+305272810
3778+310767894+315943192+323295814+334043827+347609603+361518625+372647363
3768+380060193+384622675+386815823+387818560+389571294+392020722+393103762
3758+392507568+393006247+397497345+406786695+418677575+428335053+433763473
3748+438919234+446956333+455452447+459358560+460151137+464168368+474839063
3738+491349650+508727043+520711378+526441678+530346577+535356238+541554332
3728+549132661+558328730+567316304+573710330+577312412+579389825+581052367
3718+582658795+584492838+587747197+592992803+596842871+594110303+585799259
3708+577168291+570935078+567314604+565486773+564503573+564784353+567212092
3698+570507400+572575202+574125202+578180537+586115888+595147153+599781574
3688+598007636+593784791+590842548+589686320+589833321+591376416+594686786
3678+599283935+602507062+601649556+599603479+600712442+602497762+597951695
3668+586764414+575989333+569886359+567839067+567803670+569376367+573334221
3658+578031662+579029506+575919615+574536777+579192124+588157107+594284927
3648+591696376+582952242+573908206+567905141+564949365+562832598+560270178
3638+558531949+559086153+561790924+566474935+573700891+581655328+584042326
3628+577769343+570197470+567924714+570456422+574574430+577475792+577961389
3618+577352910+577823202+579748722+582574259+586308488+590061666+591143560
3608+588641766+585751925+585803771+588609215+591633425+593014805+593321925
3598+594341701+596443928+598169212+598620279+599425523+603334932+610912359
3588+618150253+619400456+614760691+608983785+604634344+601369366+599084256
3578+598829884+601025461+604165579+606019541+606383018+607491981+610654725
3568+613253271+611069632+604313621+597308027+593304573+592739195+594244950
3558+596329686+598572875+600992771+602687725+602485477+600929889+599758115
3548+599436628+598743266+596688652+593833236+591399528+590041538+589668969
3538+589694510+589369484+588371639+587389203+587550849+588799386+589390167
3528+587912660+585516085+584547738+585223193+585579452+584511161+582800313
3518+581207766+579553796+577835556+576733742+576609888+576812518+576516191
3508+575740028+574655565+572666539+569304844+565703179+563856747+564390129
3498+566024839+566999780+566543473+565184719+563972481+563458324+563410920
3488+563061012+561436539+558298261+554980742+553408705+553962250+555118096
3478+555547717+555526652+555916469+556618680+556499024+554762982+551966353
3468+549399352+547722755+546474357+545051299+543752338+543289438+543553387
3458+543610890+542798879+541211503+539482610+538623021+539395714+541286878
3448+542799434+543216978+543145178+542908158+541757482+539252912+536366645
3438+534476453+533876337+533763935+533296280+532228475+530777447+529451869
3428+528877399+529066008+528964086+527663460+525729473+524292846+523478267
3418+522700161+521867467+521308475+520990979+520567605+519944793+519388022
3408+519075731+518852488+518432272+517645525+516630988+515888418+515839730
3398+516146398+515806727+514239965+512009338+510237622+509475548+509351555
3388+509303839+509238840+509271426+509320218+509315950+509297349+509044782
3378+508242662+507098024+506232259+506049618+506456231+507029243+507495996
3368+508135395+509321606+510583678+510740951+509219927+506875857+505322872
3358+505498642+506865897+508094376+508441057+508045480+507241347+506404593
3348+506084251+506495133+507044027+506810755+505464806+503516556+501828855
3338+501042559+501281522+502083990+502598910+502185218+500963922+499641156
3328+498847468+498803361+499415449+500314147+500810224+500311579+499001583
3318+497737117+497099175+496906610+496736496+496440516+496031336+495493859
3308+494808652+493950521+492986026+492269101+492206740+492594509+492611652
3298+491967950+491608012+492569488+494442364+495670461+495346649+494132815
3288+493373899+493681401+494442711+494715024+494429038+494287936+494643570
3278+495262321+496022347+496893943+497526645+497596050+497202173+496526822
3268+495520857+494138089+492528435+491004773+490048330+490075814+490948624
3258+491865542+491951570+491051102+489938981+489512449+489745305+489871137
3248+489492217+488870586+488145263+487130900+485966586+484941118+483713125
3238+481850140+479980318+479171604+479353932+479454050+478845398+477739246
3228+476509448+475438832+474727147+474271013+473880988+473748146+474052316
3218+474336636+474071472+473547008+473425687+473708064+473707613+472884254
3208+471473516+470215644+469467902+468886318+468092249+467172590+466239362
3198+464972501+463131067+461279880+460431223+460911788+461910847+462272242
3188+461452596+459603527+457306132+455416772+454530775+454411710+454345566
3178+454018701+453613580+453076277+451943647+450253308+448981763+448854403
3168+449217152+448812413+447284171+445276440+443446874+442017327+440964062
3158+440136712+439331399+438491348+437826790+437585293+437533655+436911330
3148+435396726+433840965+433333506+433803798+434160578+433592354+432217776
3138+430605623+429125236+427792926+426566355+425685390+425517220+425959681
3128+426336345+426161339+425650028+425113592+424373936+423319179+422463616
3118+422272473+422327651+421762655+420356324+418800354+417998893+418241084
3108+418880795+418804553+417462873+415461563+413903615+413233886+413015223
3098+412701302+412218378+411797259+411594734+411531193+411275745+410448812
3088+409081071+407867930+407718743+408817919+410234037+410816037+410383016
3078+409560698+408767843+408005388+407241718+406414334+405417010+404387447
3068+403529941+402590120+401161059+399528916+398486097+398227249+398075251
3058+397466945+396686896+396321232+396386994+396393275+396031603+395454703
3048+394979865+394755581+394671739+394464389+393941384+393129685+392155334
3038+391071913+389926547+388926308+388356419+388254566+388275388+388009113
3028+387402439+386764428+386336716+385930242+385128364+383863343+382555880
3018+381614393+381069802+380788883+380710385+380686267+380369951+379548848
3008+378501760+377776090+377545073+377367187+376733340+375672475+374592628
2998+373722733+372964130+372149794+371271084+370531672+370205014+370319117
2988+370521226+370376515+369773797+368993539+368385754+368028420+367779982
2978+367557884+367324612+366906894+366133091+365109151+364136119+363384491
2968+362763553+362106664+361477572+361173540+361253149+361251761+360684925
2958+359663934+358691110+358046367+357681189+357516733+357483140+357307961
2948+356635212+355484363+354309882+353462821+352876864+352401505+352086751
2938+351955470+351805970+351446172+350956307+350604282+350536611+350559793
2928+350285988+349545811+348566568+347684006+346977249+346275905+345477880
2918+344735413+344257590+344012658+343738679+343232088+342551045+341926013
2908+341520893+341301987+341110914+340842696+340534778+340292136+340176402
2898+340157732+340086556+339725821+338958438+337969373+337056134+336316965
2888+335716328+335284521+335030740+334859794+334725772+334654284+334578215
2878+334363093+333942981+333306670+332531791+331907800+331751846+331999138
2868+332168973+331833467+331015765+330085834+329416312+329182658+329264106
2858+329263585+328903093+328409931+328145253+327966013+327448872+326590498
2848+325774149+325195896+324768809+324466131+324392284+324527486+324649778
2838+324583531+324345574+323970332+323432543+322808205+322230230+321669606
2828+321041312+320456014+320119119+320076609+320172839+320163470+319881266
2818+319377000+318878633+318607049+318584735+318513213+317980629+316986983
2808+316044802+315555458+315339156+314988449+314467074+314110295+314071774
2798+314001224+313454620+312504249+311657501+311236382+311115651+311009391
2788+310773967+310411149+309914136+309232677+308406646+307626492+307070102
2778+306714399+306350297+305791582+305086803+304467462+304024307+303556062
2768+302870022+302120372+301660421+301594313+301643729+301449914+300863506
2758+299975947+299054415+298417722+298188406+298176850+298102933+297841725
2748+297398015+296787975+296033605+295217569+294496896+294009529+293730450
2738+293500196+293206576+292850699+292499402+292277686+292259710+292268906
2728+291983406+291314371+290509197+289863638+289450900+289087596+288521507
2718+287743314+287056216+286692045+286481017+286101091+285524851+284998079
2708+284679646+284501708+284321461+284075627+283813603+283613628+283440774
2698+283146407+282679724+282210612+281922630+281756022+281502987+281108242
2688+280702428+280362566+280038685+279717684+279450368+279204846+278882387
2678+278482524+278101834+277787097+277479006+277070224+276512620+275925500
2668+275525308+275377023+275333418+275268767+275197314+275131778+275030619
2658+274889604+274684927+274276354+273599684+272880676+272420708+272235638
2648+272099117+271868968+271602243+271397270+271258824+271131395+270985851
2638+270816172+270596122+270327348+270098483+269980772+269893928+269716683
2628+269513672+269473712+269578844+269520716+269067793+268372973+267787641
2618+267494992+267439086+267497717+267619558+267816375+268036998+268095889
2608+267841760+267374765+266969922+266797935+266785823+266715151+266453336
2598+266098933+265825545+265629144+265404097+265200044+265183786+265398267
2588+265710210+265926651+265889589+265575355+265158297+264867852+264751285
2578+264671104+264552056+264503680+264630259+264853294+265042702+265179222
2568+265248003+265144468+264861293+264612855+264610478+264809464+264996026
2558+265067028+265115352+265226956+265293898+265119950+264664458+264113708
2548+263748148+263715441+263861453+263880002+263700744+263534206+263486645
2538+263405406+263157854+262797482+262423577+262078284+261776040+261501923
2528+261206602+260869152+260551309+260374741+260409461+260544177+260525004
2518+260209000+259751687+259451699+259420952+259509132+259557507+259585669
2508+259680459+259840977+259993774+260067361+260043642+259987649+259970245
2498+259952286+259839294+259621898+259375838+259175724+259062715+259044565
2488+259102467+259185736+259173139+258929543+258480922+258010283+257630964
2478+257336407+257175750+257237677+257434043+257516254+257345516+256999078
2468+256615126+256275299+256033646+255920393+255877692+255778407+255551260
2458+255251636+254991157+254822987+254710897+254591502+254441013+254285163
2448+254182841+254185305+254262675+254290542+254159834+253879695+253536242
2438+253187825+252844632+252538640+252349597+252320759+252401304+252520022
2428+252638359+252704068+252685207+252655571+252689181+252718123+252637942
2418+252465903+252293916+252195950+252210699+252296657+252330579+252251683
2408+252152745+252162254+252291400+252438679+252506314+252486603+252467239
2398+252589584+252988198+253770312+255118169+257422973+261254700+267234565
2388+275982274+288029803+303644658+322830623+345532779+371638587+400678343
2378+431667077+463287993+494144267+523071620+549512448+573215642+593471563
2368+609497178+621402807+629761255+634703142+635795864+632329887+623846995
2358+610496133+592803187+570811952+544630284+517536037+496071244+485464263
2348+487345189+500164370+518664295+534885460+544093328+547514747+548217860
2338+548310343+548850631+550123391+551824835+553167729+553271213+551801133
2328+548868746+544333263+537901966+529931115+521385619+512750694+503597240
2318+493607692+483440291+473962436+464989957+455396055+444435626+432461598
2308+420239861+408105714+396084524+384452006+373722768+364116963+355298078
2298+346708857+338102805+329710176+321901733+314782696+308192218+301993638
2288+296208368+290948951+286362975+282551827+279450160+276874743+274687946
2278+272781218+270992306+269236258+267615168+266237450+265053859+263961362
2268+262928190+261982123+261171968+260512893+259934067+259352796+258765815
2258+258174774+257516167+256766482+256022177+255404276+254942347+254568320
2248+254193721+253795541+253420404+253099264+252803266+252485232+252124618
2238+251757619+251482269+251363395+251320190+251212820+251041232+250929298
2228+250917377+250909066+250829041+250716795+250649680+250641074+250618170
2218+250497699+250304109+250170955+250177253+250249626+250285561+250295555
2208+250347800+250434175+250477936+250446061+250367754+250247908+250075140
2198+249932321+249968290+250214507+250529643+250757206+250862425+250908476
2188+250950640+250969657+250914757+250794026+250680114+250643416+250715147
2178+250875578+251046593+251129446+251060700+250844710+250571755+250376447
2168+250328280+250395933+250518538+250629032+250633612+250476877+250214229
2158+249957220+249778084+249690668+249669412+249658464+249608908+249535321
2148+249479900+249426701+249373033+249479432+249957342+250800082+251822183
2138+252926687+254139047+255472033+256965277+258768539+261010826+263622351
2128+266388528+269215731+272285922+275845042+279869387+284081335+288231305
2118+292188049+295830038+299005206+301533860+303205529+303893373+303668881
2108+302689845+301031225+298740562+295969509+292917293+289711050+286435157
2098+283175037+279939938+276664913+273375400+270239464+267430653+265043153
2088+263099709+261537597+260240458+259141733+258235140+257481516+256799745
2078+256169369+255673344+255399765+255332354+255370718+255428360+255489558
2068+255609942+255839796+256086550+256146465+255961135+255706347+255562156
2058+255539253+255548657+255514336+255435266+255405664+255534706+255829351
2048+256183788+256481069+256715730+256981761+257282288+257470654+257491615
2038+257485976+257543808+257589182+257589893+257654492+257866613+258162941
2028+258399371+258509639+258598547+258841901+259326456+260035157+260856954
2018+261518962+261715362+261451794+261092499+260965903+261069179+261206047
2008+261290253+261402603+261584741+261735577+261792697+261869113+262059562
1998+262284957+262564904+263202881+264293711+265257408+265400869+264804866
1988+264106958+263688702+263546178+263603212+263775078+263932524+263988292
1978+263944236+263893362+263991953+264295759+264714621+265257113+266039644
1968+266875166+267257747+267025238+266618348+266459044+266519705+266656122
1958+266935687+267418907+267932630+268274192+268464346+268690226+269120038
1948+269865524+271062978+272740547+274380931+274969074+274101035+272654917
1938+271705241+271404437+271317940+271237828+271275394+271501015+271829390
1928+272254933+273052837+274411851+275893782+276914096+277687015+278619236
1918+279068082+278151407+276495008+275593689+276002107+277081121+277881940
1908+277910917+277354770+276757118+276477934+276526067+276804088+277334521
1898+278213196+279300712+280147686+280651068+281410087+282675646+283506449
1888+282995728+281718873+280822881+280621032+280787519+281064170+281342972
1878+281550269+281692100+281938993+282823984+285176938+289185233+293217750
1868+294543154+292486562+289294113+287170735+286516726+286675023+287036956
1858+287343676+287581339+287860054+288256447+288830032+289747973+291290079
1848+293872453+297691358+301527961+302668156+300255201+296921719+295148406
1838+295029861+295407532+295790755+297039535+300054133+303925959+306264199
1828+306315143+305659434+305023817+303583859+301414864+299915912+299790773
1818+300387245+300925208+301569535+302998110+305171582+306961726+307331345
1808+306613379+306117545+306975954+309529594+313017850+315734698+316422369
1798+315807574+316017456+318594834+323014027+326243852+325382320+321763026
1788+319014009+318722540+320105620+322019480+324073990+325847407+326689158
1778+327047430+328688317+333005727+339267050+344107639+344520395+341559552
1768+337938869+335270987+334761897+336938873+340221412+342099007+342506626
1758+343043305+343896959+344870303+347343919+352536777+358839291+362612353
1748+362560264+360844280+359806319+360338522+362230657+364436402+365809557
1738+367116812+370833239+377372774+382176440+380756262+375886765+371461533
1728+368346748+366823677+367123197+368668235+371339414+376613338+385572144
1718+395448353+399673141+396011996+389394310+384236190+382033256+383198645
1708+387474378+393039562+397420478+400968770+406567304+414548046+420464353
1698+421376239+418829643+413566790+407229538+403592753+404129155+407461977
1688+412728717+421137692+432001751+438135992+434606474+427696625+423780137
1678+424420507+428544693+433385664+436844041+440068834+444254269+446810339
1668+445017419+441926371+442047414+445617846+449156838+450078614+450178523
1658+453056357+461161058+475127062+490465700+495833634+492205109+491568278
1648+496343348+500455179+498400843+493651938+491863321+494773255+502356546
1638+514086648+526918356+534010533+533054887+531053126+533812415+541784030
1628+552414088+563313579+574199883+584924957+593989468+601565367+610749325
1618+623528632+636905243+645419506+649625277+654038988+660276608+666843697
1608+671865470+675105324+677601635+680088230+682468217+684586893+686755263
1598+689332293+692412236+696059917+700394366+705270734+710055834+714005985
1588+717031028+719779282+722786418+725944373+729037365+732640626+738147753
1578+746281812+754759012+759302581+760774535+764477324+772644697+782749806
1568+791018373+797422845+804170805+812548547+824102151+841474859+863504337
1558+878105402+878865671+875500887+873640054+873289139+873661916+873930238
1548+874192175+875972707+880059864+885351763+889955854+890135128+881604485
1538+869245360+861380248+858497764+856267553+851567475+846224285+843532111
1528+843973045+845839223+847829081+850085874+852347664+853253476+852402772
1518+850302766+846838039+842592775+839629295+839794688+843938272+852111338
1508+861706038+864216508+854247850+841125125+833391952+832068734+835233491
1498+839272550+839855418+836327393+833052212+833790201+837918586+840932940
1488+838855353+832918953+827139548+823895253+823087163+823527542+824760671
1478+827404955+832013140+838164073+843588468+844198058+838898940+832381545
1468+829039110+829215262+830355041+830090466+829488789+831522443+837204818
1458+843501156+844265728+838339947+831108161+825994425+823658857+823666700
1448+824295584+823548849+821225983+818545608+816671726+816750085+819569549
1438+823843199+825776283+823423850+819948364+818373412+818206978+817617030
1428+816259526+815177631+814748635+814694429+815703587+818890692+822883527
1418+823497767+819248201+813457691+809362760+807627134+807090282+806602569
1408+806309677+806621586+806827304+806367492+806448627+808307379+811191390
1398+813530359+814817971+814885017+813193672+810482828+808802727+808975547
1388+809484220+808363389+806332512+806196269+809073408+813376695+817237659
1378+820731121+825027189+829971852+833679083+835092320+835453993+836012916
1368+836737927+838158104+841794542+847375516+851565462+851638755+849060892
1358+846930903+846343038+846493232+846542024+846432502+846247397+845769678
1348+845024401+844556815+844887602+846238374+848636893+851461909+853169912
1338+852753756+851300194+850766535+851822888+853856333+856356670+859202994
1328+861846862+863495036+864301460+865427358+867783053+871319200+875308772
1318+878884827+881644255+883903546+886149928+888517908+891058292+894096037
1308+897836027+902007998+906314407+910766846+915205265+918900905+921140971
1298+922028877+922239384+922152697+921700519+920848774+919566505+917538820
1288+914826241+912649751+912302098+913268710+913748789+913013991+911984984
1278+911462360+911046343+910044056+908520464+907249440+906978064+907727436
1268+908839106+909823346+910909891+912653846+915293757+918510360+921587388
1258+923958145+925672394+927105619+928515525+930015033+931311183+931592900
1248+930599428+929460204+929489771+930673414+931995105+932372047+930907034
1238+927568555+923940724+922015759+922134998+922888674+922868477+921761180
1228+919909022+917835113+916239686+915744616+916473514+918131475+920351760
1218+922575516+923833076+923483133+922366605+922310456+924207311+927019209
1208+928727490+928197855+926332441+925386304+926741795+929688896+932570478
1198+934403133+935294162+936159650+938010073+940750830+943222572+944992901
1188+946852277+949047299+950579219+950945264+951280771+952853224+955396870
1178+957885061+960166979+962610264+964966793+966962967+969042706+971240573
1168+972585654+972736472+972825867+973957595+976066276+978363740+979962776
1158+980374837+980251295+980945281+982931392+985336435+986911665+987052905
1148+986053673+984801873+984210399+984826165+986916107+990413941+994422253
1138+997740466+1000009474+1001476986+1002091503+1001950193+1002206925
1130+1003819009+1005727038+1006217389+1005951773+1007428031+1011742838
1121+1016750730+1018987256+1018007735+1017422021+1020047566+1024001117
1113+1025617782+1024986746+1025472169+1028494783+1032234079+1034854488
1104+1036168961+1036087062+1034335126+1031765869+1029921693+1029489435
1095+1029616308+1029196265+1028876236+1030614291+1035573877+1042974041
1087+1050340891+1054858363+1055336429+1053520223+1052168826+1051299937
1078+1048199936+1041731264+1034911470+1032135246+1035137246+1042063648
1070+1049774472+1055844478+1059159914+1060788794+1063207857+1067031412
1061+1069349351+1067108591+1061217027+1055435748+1052888285+1054412709
1053+1058428032+1062136165+1064709378+1068203672+1072842396+1073741823
1044+1068218872+1063261785+1065151075+1069203252+1067530091+1063925650
1035+1065761220+1068530364+1064040794+1057508893+1058715510+1066595475
1027+1072023757+1071056381+1067626981+1064763236+1061439194+1056961561
1018+1053581577+1053878217+1057718498+1062234027+1064422663+1063410313
1010+1060663378+1058617717+1058645202+1060570722+1063411146+1065132613
1001+1063365546+1058629169+1054817830+1054679990+1057171929+1059675667
993+1060783450+1060827731+1060514225+1059162759+1055493979+1050557645
984+1047067931+1045788230+1045971461+1047841317+1050902035+1051791190
975+1047959099+1041696700+1037084490+1035549377+1035802638+1035709565
967+1033912862+1030979295+1028755332+1027949116+1027466539+1026018391
958+1023560461+1020838096+1017679447+1013528644+1009479452+1007667064
950+1008080652+1007541925+1003357045+997107417+992690306+991582107+991834188
940+990854944+988000083+984411050+981330899+979634418+979894411+981616781
930+982971994+982418138+980463121+979022399+979216804+980199726+980079169
920+978112630+975800313+975304063+976891300+978505952+978056134+975573010
910+972798937+971129108+970629457+970833857+971185812+970985785+970151808
900+969418191+969184155+969126548+969184849+969743980+970750153+971597249
890+971665475+970395144+967681940+964627191+962798770+962513096+962459793
880+961172805+958836543+957170531+957094046+957198987+955641109+953039370
870+951890152+953507095+956930248+959998254+960866032+959555099+957682189
860+956073367+953831982+950606079+948232061+948245386+949525989+950265437
850+950570682+951386198+952534375+953330666+953774445+954075318+953909370
840+952910692+951220249+949186388+947611713+948099010+951835044+957640129
830+961883865+961388934+956606818+950828385+946924112+946392257+949780916
820+955846619+961491793+964152318+963732761+961805229+960094936+959872699
810+961574594+964424318+966823878+967420003+965943121+963100129+960019908
800+958396719+959572936+962765802+965110671+964435979+962192790+961942444
790+964758159+967724555+967847750+965940623+964886143+966218592+969639733
780+973313788+974278526+971814419+969085391+968653688+969123078+968365238
770+967494545+969079075+973160332+977130194+978929604+978812447+977681413
760+975436767+972024649+968654451+966650295+966488302+968559435+972866400
750+977489923+979521217+978558214+977409066+978420167+980710482+981939794
740+981262326+979562999+977561134+974603344+969852392+964312437+960787395
730+961417945+965372538+969671660+972146317+972378825+970606970+967968585
720+966579918+967270018+968767513+969871617+970701778+971748969+973048312
710+974523875+975248816+973340162+968695262+963888091+961273512+961158715
700+961997899+961425164+959015401+957181358+957053374+955932057+951887862
690+947628856+945555295+943824458+940742363+938612374+940316143+944744082
680+947220751+945068900+941612570+941793094+945942578+949578043+947898428
670+939437538+928461874+923005483+923560312+925197243+927572441+932553890
660+937889723+938943717+935766051+931449300+925978472+917817414+908600836
650+902199765+900944982+904126396+909196891+913523151+915285914+914278700
640+912130319+909868876+905536232+897117471+887165540+881056667+881202419
630+884989327+887479947+885924776+882062632+878614492+876581185+874536219
620+869253966+860497408+853709957+854941976+863906612+874452654+881871211
610+886658254+889598831+887523881+878276140+867449837+862548899+862718804
600+861375112
##END=
