##TITLE=<SNM>
##JCAMP-DX=4.24
##DATA TYPE=INFRARED SPECTRUM
##DATE=3/5/2025
##SAMPLING PROCEDURE=Instrument type and / or accessory
##ORIGIN=Admin
##XUNITS=1/CM
##YUNITS=ABSORBANCE
##RESOLUTION=4
##FIRSTX=4497.3318
##LASTX=599.83466
##DELTAX=-1.4281778
##MAXY=1.7104009
##MINY=0.1837305
##XFACTOR=1
##YFACTOR=1.592935e-09
##NPOINTS=2730
##FIRSTY=0.2034284
##XYDATA=(X++(Y..Y))
4497+127706656+127911763+128869967+129678245+129614400+128642277+127380463
4487+126649668+126884280+127929874+129303287+130523296+131293754+131556654
4477+131417514+131027327+130510078+129973539+129560219+129389340+129369405
4467+129221360+128828825+128465991+128575710+129257094+130009582+130234007
4457+129988507+129784428+129671369+129203811+128334401+127612259+127460519
4447+127842483+128587375+129503764+130111210+129793034+128592380+127496179
4437+127428255+128137226+128476375+127639247+125842747+123992486+122966892
4427+123031092+123605573+123700044+122863309+121632262+120843507+120755247
4417+121095799+121653207+122410204+123271111+123956817+124071045+123396780
4407+122311691+121471785+120971776+120478942+120085743+120135247+120405715
4397+120331655+119853947+119449251+119474593+119782450+119890299+119546211
4387+119114453+119131253+119570954+119943685+120019513+119969363+119776679
4377+119135407+118115557+117362031+117389271+118088560+119016922+119792563
4367+120235303+120372937+120215472+119502151+118045061+116337251+115340863
4357+115570816+116701292+118053630+119171057+119939438+120450177+120778072
4347+120729036+120001066+118872404+118324930+118959617+120131365+120712385
4337+120388175+119724742+119334256+119370786+119566361+119576744+119475603
4327+119785509+120710841+121529082+121261280+119975547+118849280+118747849
4317+119339467+119841188+119958793+119801899+119569841+119611319+120164209
4307+120872918+121114321+120834920+120615415+120985219+122008025+123326003
4297+124283683+124273655+123364273+122475545+122558726+123545919+124409988
4287+124369370+123695011+123062168+122582318+122008287+121510307+121564891
4277+122214788+122950494+123277425+123177042+123100409+123508819+124291550
4267+124846882+124930567+124990212+125309548+125396816+124833140+124193253
4257+124304394+125028612+125621540+125907386+126272700+126847255+127403101
4247+127701885+127432718+126346928+124865329+123942430+124027808+124730876
4237+125544814+126248350+126612568+126439669+125973364+125720894+125880548
4227+126333130+126991502+127760089+128393624+128766898+129015869+129144279
4217+128842174+128027778+127281155+127376029+128393989+129492352+129720293
4207+129076748+128503840+128753503+129610920+130395382+130849778+131203894
4197+131608075+131884062+131816476+131465045+131140480+131156036+131565522
4187+132046644+132115044+131607524+130858366+130277693+129984606+129968460
4177+130285550+130926963+131763913+132727916+133763444+134573743+134752162
4167+134299094+133761825+133663107+133895258+133909889+133526971+133197981
4157+133280872+133483884+133367102+133041695+132944454+133122209+133212340
4147+133138449+133332284+133983144+134489795+134164903+133253397+132713875
4137+133117841+134172555+135194014+135747989+135926436+136151955+136627596
4127+137070018+137154013+136956800+136750308+136684172+136863760+137406622
4117+138209653+138881149+139072533+138825574+138469690+138184508+137844517
4107+137378914+137101777+137466342+138509849+139689549+140341345+140262505
4097+139749586+139126640+138448334+137708923+137106828+136920598+137182609
4087+137628259+138051337+138553825+139241794+139900615+140235704+140193983
4077+139900971+139570681+139448455+139538876+139579895+139501036+139539774
4067+139768090+139965910+140026986+140064900+140170419+140400278+140820596
4057+141304805+141528023+141409716+141327209+141645404+142223467+142617798
4047+142631783+142448537+142294552+142195600+142137817+142237677+142531821
4037+142776189+142756376+142670745+142900848+143508106+144155187+144415964
4027+144135749+143702830+143872119+144936721+146182483+146616159+146146954
4017+145529087+145177769+144744439+143996628+143368452+143336974+143823869
4007+144470753+145068274+145602539+146222324+147071874+147878693+147987140
3997+147150293+146006580+145398227+145447815+145668657+145766272+145885598
3987+146165785+146480640+146637590+146601135+146526252+146623287+146942510
3977+147403343+148029152+148822762+149470273+149661452+149615306+149745587
3967+149996503+150041835+149883903+149772022+149771676+149749637+149598767
3957+149299572+148884754+148440283+148195662+148527804+149534614+150638654
3947+151216923+151534631+152206259+152991375+153018466+152084622+150936465
3937+150456755+151186643+153124705+155419943+156635779+156053179+154586211
3927+153761478+154063723+154743685+155165490+155750971+157039184+158418734
3917+158543168+156984554+154822497+153372675+153058887+153572058+154717314
3907+156852767+160206610+163915102+166398169+166976073+166029057+163850930
3897+160954972+158764515+158576452+160033626+161086703+160446684+159707489
3887+160786441+162913063+163983539+164110967+164638600+164721911+162995776
3878+161001782+161072035+163180303+165934315+168559907+170262713+169945126
3868+168488326+167906905+168159459+167545839+165639179+163873960+163681669
3858+165974446+171444489+179060463+183318926+179646506+172558128+167265221
3848+164976972+165195625+167083201+169950365+173534797+177608041+181069816
3838+182176888+180656963+178143345+175820240+173732870+172017904+171223049
3828+171363049+172080092+174002168+178054757+182603585+183977785+182287739
3818+180865569+179939901+177426076+173865087+171916463+173114835+177115674
3808+181696009+184426073+185976586+188465472+190984759+190710484+188233236
3798+186133200+184673107+183077205+181749741+181492267+182300573+183818402
3788+185995782+188708390+191383000+193816208+196653811+200022565+202654351
3778+203762432+204638054+207140896+212135038+219286091+226991419+233283071
3768+237885407+241957734+246177152+250961115+257229924+265233231+273511580
3758+280613503+287609982+297155290+310613599+325920756+338094931+345608566
3748+352989404+363483804+374842002+382233391+386369890+392299953+402650031
3738+417126992+433533868+448264225+458346539+463898753+467264327+470443408
3728+474140506+478016725+481527294+484794158+488063268+491140422+494426332
3718+499122345+505954970+515015395+526032526+537169845+545300804+549869670
3708+553071539+557164184+563961261+573419292+582084207+586463288+587684990
3698+589169292+592872752+599002327+606654746+613999176+618425740+618135525
3688+614704695+611384509+609516148+609414707+611610403+615740017+620280557
3678+623915803+625877747+626094735+626484408+628271759+628609869+624486093
3668+618479660+615505106+617095339+621475205+625786372+628680515+631373048
3658+635243205+639349396+642318524+645491581+651331878+660091835+668137631
3648+670899238+668827097+665884461+665027735+667020999+670514729+673305598
3638+674886888+676749562+679796895+683614666+687949407+692278085+693772191
3628+690110378+684826265+682945780+686173318+693430264+701716209+707609190
3618+710274857+711417607+711801292+711169151+710643725+711654538+712981011
3608+712310478+710682865+711251096+714530346+718049820+719855395+721061156
3598+723582614+726566261+727438627+726030882+725208582+727161733+730961394
3588+733416622+732716229+730031554+726767945+723508227+721517657+722703887
3578+727187701+731849775+732744443+729761544+727010639+727337972+728960123
3568+728714361+726901303+726092772+726794362+727546691+727351443+726652472
3558+726898609+728561545+730022274+729519075+727541153+726092622+725790733
3548+725384522+724164092+723435337+724415691+726366673+728106990+729522592
3538+730736062+731177746+730686371+730527269+732300065+736361503+741480378
3528+745451938+746049431+742357160+735943094+730187961+727410788+726875559
3518+726344446+725118479+724205177+724408432+725914736+728443229+730722367
3508+731006745+729541825+728857148+730064033+731109121+730393387+729324052
3498+729546839+730454603+730554884+730250599+731499242+735007716+738752597
3488+739134112+734537819+727756008+723671220+724631145+728794660+732931459
3478+735941822+738699463+741575196+743793492+744686213+744248347+742706121
3468+740351772+737894973+736161765+735162477+734092468+732525472+731324649
3458+731458756+732588484+733731608+734479147+734935349+735305040+735306387
3448+733637164+730121731+727738646+729203490+732873835+735345227+736506761
3438+738385225+740562287+740275589+736911026+733499615+732548297+732625079
3428+731070954+728903921+729471404+733172581+736715105+737273832+735500737
3418+733755780+732780813+731517278+729634847+728451760+728973668+730668635
3408+732556978+734079896+735479034+738042326+742288610+745706306+745120264
3398+741170481+736938566+733669568+730852582+728638103+728154511+729857260
3388+732889401+736125245+739074093+741683259+743442959+743219348+740668180
3378+737245095+734710391+733230355+732246333+732057371+732695874+733316192
3368+734373778+737386161+741320378+742748478+740735757+738216245+737774113
3358+738902793+739747021+739529172+738714430+737944590+737727564+738869491
3348+741889283+745600488+747643293+747058149+745024698+743096766+742376617
3338+743468179+745672256+747177662+747029262+745952667+744860732+743978337
3328+743743426+744552032+744850554+742046140+736428482+731403302+729466690
3318+730512975+733911439+739099014+744101668+746584809+746011189+743584774
3308+740795402+738599257+737433832+737577967+739398658+742895457+747320749
3298+751690513+754964599+755887330+754249763+751674947+749491599+747435248
3288+745320600+743796934+743063165+742656130+742674390+743591958+744935418
3278+745769618+746150909+746930852+748017250+747692610+744956372+741518095
3268+739780473+740146721+741461893+742466795+741973549+739622418+737473495
3258+738449809+742580471+746677457+747983948+746837606+745428365+745069375
3248+745172050+744772051+744241162+744284642+744282098+743413698+742239891
3238+741580808+741263128+741107244+741548704+742774970+744595512+746856914
3228+749064733+750278802+749885687+747997568+745195100+742574260+741376580
3218+741908067+743485541+744983837+745084941+742965503+739325618+736078772
3208+734413516+733888165+733814900+734419128+735857182+736867322+736376770
3198+736037388+737954169+740639817+740636375+737453514+733896472+732087530
3188+731838400+732346538+733211945+733869755+733470504+731568915+728484164
3178+725277955+723323905+723375767+724848245+726275223+726637056+725960387
3168+724725514+723355486+722226357+721390062+720374758+718941569+717853225
3158+718108716+719483608+720771839+721219210+720821156+719644805+717865648
3148+716044733+714391899+712455361+710000582+707764924+706752090+706770350
3138+706530874+705483840+704700754+705285449+706960360+709096037+711363351
3128+712726493+712079459+710121518+708660639+708254653+708064045+707655289
3118+707320846+706881557+705646459+703662176+702075648+701899483+702873776
3108+703633364+702907602+700816752+698987604+699048895+700679727+701587266
3098+699988913+696508055+693108169+691040892+690324410+690391239+690636327
3088+690821996+691258741+692033894+692375821+691651107+690526692+690271950
3078+691069779+691597000+690543007+688234158+686103271+684775002+683675209
3068+682520111+682085163+683048231+684701064+685454815+684644338+683237491
3058+682291786+681463423+679921048+677928907+676411228+675742192+675678880
3048+675651939+675023539+673834466+672742979+671925692+671047339+670183280
3038+669696769+669491793+669238622+669007153+669010446+668952149+668161503
3028+666255200+663596267+661159000+659743697+659220666+658682594+657463811
3018+655810902+654350024+653429762+653222167+653619921+653926825+653540295
3008+652754440+652102841+651441138+650349352+648897379+647559756+646616819
2998+645879982+644951189+643722527+642585241+642095512+642630367+644023818
2988+645185277+644720469+642360058+639378432+637502063+637416750+638124626
2978+638004289+636589135+634850240+633740793+633253833+633088969+633256602
2968+633527584+633083431+631371701+628799355+626151686+623880031+622205720
2958+621330210+621249163+621655224+622103867+622058142+621160182+619611895
2948+617877789+616254366+615014966+614436931+614405462+614408268+613924864
2938+612622862+610563481+608414146+607023352+606727000+607138188+607432482
2928+606855382+605195888+603057330+601579987+601532317+602447003+602828293
2918+601674505+599692056+598426051+598376547+598593834+598067248+596803900
2908+595273611+593653593+592050526+590707664+589572061+588294270+586960949
2898+586119940+585934458+586049257+586116946+585731988+584364805+582119755
2888+579942095+578477512+577377980+576037251+574427149+573112239+572783558
2878+573590555+574783706+575326980+574759235+573229582+571250051+569668835
2868+569142026+569314823+569089753+567896376+566287696+565177126+564758268
2858+564366874+563291701+561490056+559480590+557811966+556797636+556436139
2848+556391911+556177430+555366467+553744055+551524449+549370138+547904956
2838+547133282+546520223+545712254+544856090+544168606+543647185+543274949
2828+543118990+543110160+542932386+542203631+540748851+538742229+536592184
2818+534710838+533378678+532590989+531996040+531342944+530926181+531108258
2808+531598697+531734750+531201092+530115854+528761917+527433835+526261076
2798+525137709+523984071+522913800+521952978+520828264+519339060+517787105
2788+516661493+515953879+515198893+514208398+513330831+512846042+512458951
2778+511621758+510221160+508707110+507475717+506368964+504932145+503014915
2768+501037217+499681446+499224721+499198042+498910072+498177350+497282832
2758+496485190+495833217+495175930+494235238+492880889+491251217+489520629
2748+487873894+486618142+485865327+485242876+484346562+483323888+482565160
2738+481972831+481033674+479600485+478108624+476935566+476003256+475081535
2728+474078841+472973323+471769469+470577665+469550612+468658115+467617629
2718+466232522+464765544+463624441+462741934+461764423+460714583+459886333
2708+459237802+458403789+457224632+455984595+455118066+454706242+454385269
2698+453858647+453171987+452314924+451068901+449457115+447831260+446395377
2688+445089858+443958334+443231375+442978503+442885519+442459813+441412405
2678+439850834+438207130+436963352+436263970+435799573+435202979+434441370
2668+433684065+432999874+432358303+431760810+431242195+430790708+430275535
2658+429501167+428414470+427225097+426258624+425695257+425406913+425003845
2648+424123471+422745661+421221321+420008525+419331556+418999021+418603736
2638+417965271+417277114+416758985+416332381+415786675+415129276+414539155
2628+414047630+413518313+412904394+412285723+411690550+411077230+410465481
2618+409956444+409585369+409176314+408478578+407551506+406788850+406361124
2608+405950946+405297626+404610479+404129955+403714352+403167973+402542417
2598+401869788+401062941+400278283+399881314+399851754+399687301+399094785
2588+398361165+397854786+397555029+397254449+396883524+396426199+395783244
2578+394963001+394233272+393858792+393762777+393578867+393013591+392163526
2568+391473985+391272077+391398587+391497895+391519560+391625379+391797240
2558+391872638+391811534+391706800+391659018+391718550+391813218+391722179
2548+391251085+390479860+389772246+389433836+389371760+389259094+389011910
2538+388823210+388744033+388578271+388238851+387898571+387727308+387708487
2528+387751218+387797916+387798327+387712790+387538870+387278290+386962594
2518+386728618+386680461+386684090+386553539+386371761+386326972+386345793
2508+386180330+385740518+385136963+384513390+383952268+383493409+383211950
2498+383212399+383447348+383642446+383546057+383170004+382713578+382371876
2488+382226619+382183251+382036834+381678518+381206413+380825160+380684618
2478+380775169+380912494+380873429+380600389+380238968+379980483+379890755
2468+379876162+379805441+379643234+379460820+379327387+379211803+379045442
2458+378867481+378750998+378573749+378162299+377712571+377647800+377977828
2448+378258651+378221794+377963833+377551635+376933488+376215845+375665911
2438+375425649+375359906+375200542+374871786+374644883+374811581+375231150
2428+375401889+374993844+374175248+373394145+372942246+372814351+372931207
2418+373290384+373808737+374217381+374266997+373947895+373453565+373022957
2408+372820001+372853752+372977045+372999496+372825501+372511488+372224454
2398+372117775+372210834+372411881+372638448+372842564+372951002+372894650
2388+372665090+372211470+371360507+369986251+368120696+365752465+362750446
2378+359173049+355395876+351704839+348004112+344154123+340348774+336905858
2368+333921051+331402474+329524571+328458716+328176059+328720605+330479556
2358+333879816+338863275+344950867+351863193+359511046+367108311+373051956
2348+375943479+375575472+373291432+370931096+368854128+366084738+362296527
2338+358284256+354718907+351406991+347936385+344547388+341977623+340611225
2328+340122245+339875435+339481834+339103537+339278541+340295192+341848081
2318+343436406+344857397+346172045+347424542+348569874+349591613+350554307
2308+351518647+352462332+353294848+353900760+354199394+354266597+354369796
2298+354774099+355517597+356407475+357173237+357626707+357768185+357758344
2288+357763171+357842610+357972750+358120065+358263900+358334508+358185247
2278+357746669+357200365+356829402+356694547+356632358+356550524+356505585
2268+356496904+356442835+356387755+356476623+356674229+356744575+356551609
2258+356183752+355795352+355515015+355440590+355546371+355667943+355707905
2248+355778663+356045305+356485080+356874453+357007437+356900945+356796249
2238+356965641+357459336+358024050+358356735+358428316+358424873+358448671
2228+358452862+358377801+358220795+358075537+358100533+358314602+358540196
2218+358691440+358919616+359359540+359938174+360499371+360971364+361390896
2208+361805975+362165488+362385133+362543973+362873477+363483879+364181091
2198+364619070+364651736+364503747+364528331+364865805+365429659+366087095
2188+366728554+367300715+367843315+368379105+368833698+369205485+369660452
2178+370291733+370944829+371431377+371811732+372356390+373252105+374408662
2168+375599457+376745537+377951822+379303066+380786170+382419060+384333259
2158+386666990+389403939+392361094+395359857+398367489+401410892+404406812
2148+407159626+409503573+411466453+413336985+415429369+417713746+419915204
2138+422036475+424441188+427299859+430300007+433090613+435770088+438708683
2128+441992797+445272646+448162186+450537264+452338722+453359152+453426692
2118+452642445+451295018+449598181+447571353+445165929+442433508+439470441
2108+436287655+432914037+429525002+426290729+423203097+420143230+416983082
2098+413638687+410197978+406930291+404017813+401384326+398897592+396593683
2088+394576696+392809475+391150879+389555745+388088131+386746654+385446261
2078+384212586+383226244+382603344+382239341+381913092+381489145+381018500
2068+380670399+380531503+380468940+380261942+379867368+379455357+379187743
2058+379058688+378946022+378728810+378378987+378003833+377760092+377684470
2048+377667968+377608735+377517173+377458651+377471224+377598109+377938389
2038+378544825+379290456+379986246+380616217+381286338+381994028+382643868
2028+383208807+383679377+383935055+383840874+383432530+382903325+382401099
2018+381840538+380960576+379659885+378199231+376937679+375984265+375225874
2008+374548120+373885220+373177905+372431264+371761442+371283725+370955643
1998+370636990+370356728+370349843+370652967+370853641+370513922+369656485
1988+368578207+367507525+366645149+366160809+365985804+365872577+365696562
1978+365516955+365399911+365332409+365261315+365172970+365146927+365239575
1968+365286796+365018284+364458658+363971587+363787115+363736301+363568406
1958+363292111+363043355+362835722+362612111+362386929+362201298+362028426
1948+361888257+362054731+362839052+363918864+364275759+363364702+361904946
1938+360936153+360738324+360954039+361171663+361194151+361055405+360898361
1928+360874937+361207771+361998903+362857686+363309660+363586853+364130801
1918+364530052+364033027+362887209+362053122+361972972+362300792+362447920
1908+362163879+361683992+361334320+361140943+360965676+360795087+360726761
1898+360836771+361086200+361318641+361541579+362041485+362790034+363081671
1888+362410278+361288333+360521149+360299035+360353216+360435050+360439091
1878+360376116+360339222+360466705+361049755+362519763+364891811+367099779
1868+367510294+365776674+363291624+361485339+360767959+360839540+361253945
1858+361661990+361874974+361894431+361874637+362034525+362526536+363443916
1848+365038190+367465766+369826850+370248365+368329863+366011885+364942063
1838+365065655+365462587+365689041+366356206+368244774+370847729+372456596
1828+372399833+371750329+371173678+370241218+368935139+368049152+368028610
1818+368527094+369080321+369742921+370884099+372447541+373688999+373959645
1808+373554818+373362564+374058915+375855771+378408510+380719080+381805964
1798+381905833+382433279+384546992+387862649+390247306+389905380+387988636
1788+386942537+387664371+389506652+391701337+393998174+396109530+397644234
1778+398899874+400944663+404645241+409577025+413589445+414691596+413531410
1768+411895377+410872665+411320148+413652308+416808452+419056046+420310938
1758+421626111+423092939+424531890+426888521+431091138+436164101+439607841
1748+440339253+439733079+439515530+440483799+442641927+445313095+447552420
1738+449680127+453394362+459022797+463326929+463229867+460922179+459372320
1728+459195295+460331085+462670840+465715441+469381706+474691264+482463308
1718+491075726+496277033+496154451+493638718+491931741+492288635+495008484
1708+500004814+506212257+511826734+516723944+522796008+530485695+537000865
1698+540613435+542564042+542947653+541956222+542084342+545123030+550584880
1688+557626335+566718603+577426511+585002672+585860520+584069950+584334534
1678+588167123+594963901+602463953+608608159+614105780+620439210+626476924
1668+630012151+632182552+635875796+641569413+647065837+650773898+654118929
1658+659401097+667836415+679545445+691715616+697741880+698542404+701531364
1648+708191566+714264303+715565032+714188045+714159308+716735022+721807423
1638+728955708+735917425+737989791+734274844+729996156+728607420+729591666
1628+731092058+732272600+733260738+733094227+730416886+726705681+724865158
1618+724903250+723306394+717884657+711323238+706299930+702769829+699686650
1608+696427157+693044783+689956665+687582185+686004038+684863983+683770400
1598+682730925+681922843+681271842+680590907+679902339+679292349+678575717
1588+677385147+675719516+674180733+673310088+673045168+673449284+675353791
1578+679093284+682613956+683106154+682125200+683466341+687692868+692013090
1568+694083136+695172003+697501506+702025657+709715157+722132961+738080342
1558+749199887+751534030+751988885+754850174+760362613+767815555+776070892
1548+784196313+792732211+802760269+813712256+823412456+829137355+828655859
1538+824750005+822892794+824156553+825812904+825545365+825041567+827312698
1528+832595314+838784197+844412782+849933377+855106808+858082671+859118405
1518+860717506+863266579+865221526+866466128+868717951+873340885+880191321
1508+887169203+889895339+886657698+882385371+880856092+882016802+884428176
1498+886427950+887091598+887194124+888268398+890770399+893839883+896141172
1488+896937804+896507571+895835990+895976458+897023791+898011929+898448449
1478+899285642+901840402+906307303+910810051+911844812+908519687+904703338
1468+903927585+906247434+909266703+910890051+912074933+915322303+921200017
1458+926467217+925746844+919786959+914854127+913593511+915179291+917811956
1448+919476538+918983517+916907410+914737458+913652107+914442453+917524884
1438+922019025+924835862+923318407+919414424+916599159+915593210+915126157
1428+914734090+915258019+916647429+917686455+918277662+919596950+921235415
1418+920823666+918260374+916305502+916266737+916731470+915797813+913597327
1408+911934690+911671117+911704494+910919087+910077853+910554261+912277815
1398+913808440+913725896+911297759+906732074+901661768+898108992+896566916
1388+895637973+893791913+891620838+891123252+893130136+896825400+901066969
1378+905329493+909492185+913142922+915540077+916692255+917788232+919843535
1368+922682224+925572101+928124691+930112342+931100554+930898721+930011388
1358+929335916+929580106+930705793+931826541+932143323+932059057+932768280
1348+934636942+936645397+937923076+939118361+941179501+943541258+944875888
1338+945118358+945214896+945474204+945696393+946079480+946792520+947436411
1328+947896055+948770816+950266344+951722358+952677942+953561833+955012983
1318+956979530+958566133+958733093+957370025+955578071+954618222+954838539
1308+955777884+956850063+957684787+958063832+957758800+956649801+955078988
1298+953704172+952802544+952103125+951404828+950846474+950433079+949766288
1288+948307430+945853250+942949678+940481129+938577669+936314920+932709384
1278+927823400+922841551+919198372+917521666+917070179+916359010+914773678
1268+913081331+911893456+910521632+908080548+904979708+902354976+900492377
1258+898646915+896177169+893355393+891117115+890056685+889747238+889371485
1248+888804825+888548361+888893880+889669932+890530773+891197714+891619117
1238+891993448+892580763+893541136+894764784+895788095+896331182+896873146
1228+898014399+899425511+900372040+901138737+902867904+905971812+909509247
1218+912268984+913910517+914811620+915352163+915724249+916151788+916963462
1208+918367091+920124096+921582431+922395526+923236910+925353205+929110958
1198+933174641+935720346+936528727+937094415+938633422+940889660+943077498
1188+944887263+946228404+947077721+947927935+949478617+951554425+953267053
1178+954625256+956667163+959631727+962413016+964278010+965949852+968232208
1168+970817053+973009306+974594637+975789847+976870782+977880622+978816524
1158+979696599+979988834+979072240+977781913+978147563+980821462+983959047
1148+985639196+986426623+988265200+991686265+995282072+997446935+997762071
1138+996907216+995978872+995941679+997340443+1000221863+1004000870+1007552075
1128+1010036788+1011370520+1011673157+1011234767+1010981970+1011729584
1120+1013022754+1014108928+1015615980+1018563331+1022226716+1025161120
1111+1027942784+1031859638+1035669402+1037005379+1036006989+1034536082
1103+1033122500+1031329873+1030327890+1032366953+1038143264+1045622250
1094+1050832874+1051228159+1048651322+1047019443+1047712277+1049048553
1085+1049389133+1049000583+1048763652+1048580078+1047575850+1045689752
1077+1044473364+1045429547+1048162642+1050899852+1052390815+1052702658
1068+1052445895+1052045146+1052174688+1053946810+1057446977+1061193430
1060+1064301454+1067130190+1068854043+1067227851+1062218537+1056797847
1051+1053645894+1053348719+1055204134+1058530830+1062924018+1067206747
1043+1069343771+1068822237+1067821228+1068290226+1069274398+1068507401
1034+1065423324+1061403719+1058259175+1056933076+1057224115+1058907481
1025+1062455842+1067607046+1072102161+1073741823+1072854714+1070978719
1017+1068647644+1065956982+1063848021+1063309425+1063883269+1064120874
1008+1063665346+1063602483+1064133372+1063691239+1061504748+1059392345
1000+1059449520+1061168958+1061948303+1059888136+1055603311+1051332107
991+1048465878+1046420828+1044235385+1042486836+1042414993+1043740492
983+1044640698+1043585282+1040388427+1035929009+1031607814+1028458705
974+1025943683+1022520149+1017743874+1013060547+1010088126+1008672074
965+1007388408+1005372319+1002503995+998245812+991886901+984191863+977703410
955+974799389+975537873+977320548+977068050+974202869+970842871+968667082
945+966839730+963825625+960158275+958078725+958839211+961232399+962790266
935+962178105+960082915+957885423+956340204+955687407+955997454+956863683
925+957474048+957408566+956910830+956321046+955774516+955307014+954777997
915+953992965+953066716+952460842+952442732+952615529+952435472+951843593
905+950909561+949352967+946827618+943662269+941078622+940221971+941042251
895+942377929+943042849+942551325+940985077+939141261+938542571+939876153
885+941745563+942181035+940923636+939181448+937809550+936697333+935718026
875+935507961+936727268+938781897+940295011+940944815+941446517+941808874
865+941189454+939187884+936190692+933156980+931437318+931718702+933056325
855+933912901+933732096+933137971+933319973+935101151+938043712+940597350
845+941415161+940132168+937234134+934063846+932652134+934141226+937088951
835+938254825+935636380+930681247+926949986+926458162+928188077+929917842
825+930408843+929727833+928726150+928775991+930851275+934263359+937071889
815+938206481+938714694+940560680+944283859+948172650+949867317+948523856
805+945506234+943178827+943265262+945823914+948731078+948937027+946213062
795+944157385+945381706+947926214+948497963+947295344+946773736+947841799
785+949430797+950443107+950850964+951027129+950984847+950356896+948701967
776+946083745+943569921+942733326+944226609+946769320+948154165+947737028
766+947224400+948250779+949720563+948879852+945339873+942063542+941592522
756+943029079+943412241+941514468+939399296+939914619+943410220+947333661
746+948848122+947525092+945333362+944721351+946936729+950904398+953718390
736+953403105+950877756+948268814+946910162+947270349+948812649+949661667
726+948311097+945943577+945056019+946402174+948666644+950188140+949867242
716+947279329+943392185+940493103+940074993+941221035+942078509+942100286
706+941609211+940391176+938273310+936107848+934708560+933775876+932891012
696+932133370+931106317+928958441+925691315+921865162+917683013+914121181
686+912820752+913329339+912340752+907027677+898372041+890670418+888063048
676+890904880+895284746+896533090+892763962+885552591+880749600+884388513
666+892013654+895342220+893557451+890914010+889760334+888457210+885672553
656+882758878+880879815+879121313+876411043+873709529+872705301+873132691
646+873708781+873969061+873151924+869321056+862117468+854530494+849983592
636+849256109+850390103+851032797+850637063+849980449+849768887+850461123
626+852361140+854627631+855822093+855736779+854465311+851287465+845884062
616+839552017+834198531+830832172+829810507+831792695+836578399+841174318
606+842572633+842680846+845772706+851311861+854585423
##END=
