##TITLE=<SNM>
##JCAMP-DX=4.24
##DATA TYPE=INFRARED SPECTRUM
##DATE=3/5/2025
##SAMPLING PROCEDURE=Instrument type and / or accessory
##ORIGIN=Admin
##XUNITS=1/CM
##YUNITS=ABSORBANCE
##RESOLUTION=4
##FIRSTX=4497.3318
##LASTX=599.83466
##DELTAX=-1.4281778
##MAXY=1.7241136
##MINY=0.18468341
##XFACTOR=1
##YFACTOR=1.6057059e-09
##NPOINTS=2730
##FIRSTY=0.20246927
##XYDATA=(X++(Y..Y))
4497+126093623+126242680+126679310+126873989+126584430+126236741+126194730
4487+126239878+126236453+126628632+127667876+128708578+128811207+127749328
4477+126181571+125073105+125029489+125967766+127166842+127643989+126892772
4467+125408072+124188356+123788030+124184932+125179233+126345541+127037217
4457+127049207+126844636+126754053+126500807+125820276+125009908+124572795
4447+124655518+125018074+125321534+125379730+125288126+125247720+125218089
4437+124991477+124589917+124235156+123998689+123801375+123582781+123279989
4427+122923391+122739375+122831063+122940281+122793747+122362453+121654129
4417+120765630+120159165+120299851+121003192+121573605+121527362+120887274
4407+119900184+118857589+118195053+118323341+119095717+119677062+119284707
4397+118055730+116898377+116445061+116503480+116696599+117113435+117889829
4387+118665620+118986212+118812515+118294053+117538474+116785169+116293424
4377+116033172+115859995+115798867+115889738+116089474+116435141+116868903
4367+117002045+116605608+116096462+115962170+116031260+115930469+115867791
4357+116257872+116939934+117416979+117525705+117363061+116960730+116484038
4347+116371331+116845304+117490227+117632018+117070830+116214580+115546550
4337+115198656+115046935+115016960+115209022+115715764+116368472+116873423
4327+117236601+117688710+118136838+118172168+117638495+116778042+115924631
4317+115386746+115383711+115767723+116120656+116374347+116868801+117616455
4307+118137933+118261396+118368387+118610450+118710879+118742061+119118853
4297+119635663+119617019+119192908+119319638+120401988+121789749+122656021
4287+122710876+122121810+121255909+120551612+120361935+120703027+121161029
4277+121296779+121174402+121217276+121595460+122056617+122259221+122056896
4267+121584927+121200915+121192062+121480897+121742309+121773638+121667399
4257+121693885+122071707+122766612+123440276+123751930+123813383+124032905
4247+124414745+124483576+124091332+123723960+123714021+123699098+123260055
4237+122685801+122626844+123148443+123572295+123359780+122810043+122626612
4227+123078248+123840565+124427190+124571895+124363092+124142484+124189525
4217+124520900+125088928+125948482+126981518+127667561+127492640+126567336
4207+125603836+125308180+125891734+126990882+127904213+128105490+127744261
4197+127509919+127801427+128225195+128173504+127698529+127427326+127679709
4187+128071738+128101583+127864216+127864968+128186608+128345530+128138268
4177+128060110+128602840+129700745+131046846+132363595+133259183+133369821
4167+132762241+131928153+131412131+131419833+131645415+131604656+131167599
4157+130573745+130095559+129943532+130170180+130443879+130375921+130170756
4147+130391326+131060507+131563378+131508718+131163702+130895441+130671948
4137+130363309+130142627+130278665+130786826+131521878+132385032+133223278
4127+133759317+133840778+133595105+133268760+133093375+133264538+133774834
4117+134258792+134303866+133958627+133668214+133674321+133761220+133677197
4107+133548658+133677095+134121614+134750909+135505940+136275792+136771518
4097+136876161+136792881+136559281+135926942+134987171+134301008+134202017
4087+134518775+135001806+135519619+135890518+135948073+135755093+135569435
4077+135686392+136298259+137295066+138221752+138665713+138647404+138415539
4067+138032678+137524610+137225576+137452141+137948981+138164707+138003028
4057+137883101+138161264+138837535+139687725+140414118+140795680+140853448
4047+140771987+140621306+140275222+139659485+139028436+138852587+139269144
4037+139742255+139681266+139375950+139697478+140790000+141748480+141786436
4027+141138052+140616991+140680690+141067151+141212033+140959817+140749994
4017+141016343+141592648+141907337+141635699+141009067+140575759+140762819
4007+141558247+142504978+143113365+143339957+143496253+143690115+143690969
3997+143392168+142958136+142457640+141874049+141514806+141803428+142614140
3987+143358796+143750241+144003069+144332950+144684788+144916670+144963117
3977+144875958+144852934+145069579+145389892+145467780+145197561+144862873
3967+144847858+145346545+146266976+147280292+148016531+148304067+148258288
3957+148127456+147994268+147715725+147312698+147164402+147485290+147928992
3947+148092034+148012244+147842120+147551327+147163409+146832748+146617839
3937+146507563+146596884+146976275+147521557+147946512+148056074+147903480
3927+147698742+147620520+147675672+147741162+147832655+148228118+149138053
3917+150239262+150817275+150558925+149904648+149521694+149640276+149977311
3907+150294645+150795819+151707388+152633062+152897165+152456471+151849030
3897+151541951+151769592+152535036+153387305+153580777+153082907+152918621
3887+153673922+154640939+154945040+154857974+154975321+154937922+154240733
3878+153401884+153134412+153479132+154308172+155691775+157264905+158162294
3868+158204946+157986566+157776575+157474729+157149850+156953056+157015326
3858+157721599+159493418+161781211+162522842+160908359+158959959+157948406
3848+157781085+158208008+159082660+160258731+161748378+163541801+164992897
3838+165153555+164234098+163409113+163129837+163064004+163093979+163445343
3828+164060857+164691961+165561027+167002881+168339702+168373909+167664926
3818+167764075+168528924+168653464+167986649+167564051+168176446+169890320
3808+171953979+173331968+174089300+175033108+175950264+175892708+175269269
3798+175164311+175535460+175829938+176121334+176834939+178038961+179506855
3788+181082826+182773796+184728822+187232008+190400801+193774055+196617078
3778+198918551+201440705+204693409+208664693+213187198+218041003+223117439
3768+228508119+233859859+238395542+242357786+247285555+254203410+262420353
3758+270589096+278476836+286728394+295760338+305571645+315650331+325070926
3748+333933377+343760516+355334250+366487557+375168934+383067402+392748435
3738+404979759+418618174+431780369+443321474+453081091+460801640+465765805
3728+467782971+468116722+468949521+471595398+475678136+480209438+484958007
3718+490363869+496588201+503383262+510564710+518095870+525936987+533845774
3708+541386289+548655676+556258924+564073611+571002305+576223456+579438130
3698+580597812+580991142+583038487+587869278+594099141+599096417+601179139
3688+601307947+601937511+603949258+606527686+608662265+610062266+611270316
3678+612275911+611173617+606763290+602036326+600594936+603180900+607465054
3668+610396499+611802476+613887573+617664363+621394308+623531930+625214826
3658+628318622+633047109+638261057+643046338+646988984+649406718+649495064
3648+647775642+646017317+645885093+648225765+652499080+656981532+660253483
3638+662513084+664770977+667331550+669851811+672039101+673381082+673203869
3628+672161747+672551439+675361388+679681475+684577523+689282327+692120859
3618+692335342+692765494+696062242+700504307+702273471+701121027+700560507
3608+702098633+703307872+702562640+701877321+703782123+708167988+713112516
3598+717321835+719919380+719572897+716680763+714593625+716315274+720495342
3588+721931684+718499298+714759405+714635348+716704817+717462670+715692541
3578+713352240+712858240+714609364+717464526+720093179+721639620+722078830
3568+722360575+723378716+724095068+722446100+718290829+713665240+710654320
3558+709833882+710489876+711958364+713987149+715902049+717044767+718323866
3548+721367081+725866608+729623873+731057691+730216614+728157019+726033725
3538+724097073+721958411+720386951+720673669+721980609+722118623+720692749
3528+719477869+720084864+722291308+723943988+722854723+719461684+716299090
3518+715320816+716890643+719747215+721386532+720470546+718962116+719843135
3508+723018647+725232144+724246594+721591957+720336764+721095359+722068659
3498+722671273+724469837+727976687+731207509+732686317+733320855+733852569
3488+733095162+730349283+727284464+725888138+726417551+727924421+729056300
3478+728406394+725955697+723659273+723107662+723325189+722332734+720538031
3468+720602101+723666697+727492784+729418968+729778666+730332504+730998224
3458+730490786+728880201+727704000+727801033+728047959+726767969+724138202
3448+722271782+722689017+724674742+726132688+725327395+722358867+719469702
3438+719175485+721698938+724819067+726362390+725816644+723742052+721347036
3428+720690745+723491043+728581158+731942495+731004534+727382313+723983484
3418+721970883+721277843+721663451+722404674+722620789+722477727+722940249
3408+724479266+726621862+728419758+728844045+727295303+724580679+722829555
3398+723527273+725618866+726637527+726201955+726843769+730486257+735613790
3388+738692566+737582068+733308085+728885843+726517108+725961488+725364145
3378+723394678+720593489+718511250+718168183+719545206+721574436+722713517
3368+722676173+722966827+724863686+727759978+729894630+730256407+729305453
3358+728380484+728565938+729604199+730084465+729067956+727508449+727604962
3348+729722614+730803118+728151154+723841832+722108600+723697359+725692661
3338+725856957+724700207+723949407+724958714+727708380+730115275+729295060
3328+724796052+719823832+718538200+722420784+728601203+732109686+731601803
3318+730908615+733311055+737668188+740602343+740611400+739127618+737997892
3308+737616219+737111454+735606440+733439937+731585990+730321813+729593954
3298+729918239+731479825+733037031+733187815+732080064+730828212+730331390
3288+731220724+733578248+736391539+738212078+738497980+738118311+738234944
3278+738730577+738488551+737041593+735007983+732620390+729456385+726260160
3268+725059831+726991137+731220279+735751729+738614687+738902000+737196237
3258+734840346+733042525+732413778+732377845+731436617+728994383+726575165
3248+726216580+727978246+729910221+730684258+731033414+731601061+731430975
3238+730089142+729242423+730341562+732207684+732389575+730283282+728007571
3228+728100670+730651666+733488714+735082743+735735025+735846164+735059654
3218+733363543+731317757+729181025+727018161+725588501+725927115+727750846
3208+729399888+729875847+730000721+730817744+732000107+732731455+732824108
3198+732214589+730362869+726909918+722761105+719962069+719826802+721337236
3188+722449367+722766599+723192520+723246493+721360845+718044497+716124178
3178+717089460+719264426+720415756+720366015+720253317+720451021+720243888
3168+719199391+717737584+716588630+716269690+716902373+718044126+718474427
3158+716955826+713570286+709689112+706836177+706080255+707656764+710372798
3148+712220509+711993480+709895057+706964095+704052138+701096082+698054427
3138+696218742+696833607+698818590+700042750+700472680+701631954+703674177
3128+704940284+703792591+700147133+695632981+692385974+691472289+692348260
3118+693840727+695223021+696022375+695735879+694517435+693243384+692132144
3108+690431133+688143766+686515734+686116021+685916164+684991194+684048556
3098+684327554+685642363+686587897+686453149+685659215+684502243+683058329
3088+682030387+682046201+682439827+682085326+680956862+679839682+679088660
3078+678362360+677080217+674961377+672545574+671035511+671180800+672391078
3068+673286722+673028363+671830558+670440766+669480532+668970644+668492161
3058+667938471+667603495+667450262+667060125+666479412+666147777+665922084
3048+665191998+664025894+663220081+662964247+662339063+660753794+659153379
3038+658786703+659356948+659676259+659425695+658764356+657217470+654670185
3028+652486236+652033366+652832422+653292939+652587427+650860877+648586428
3018+646655122+645916200+645974405+645632525+644721662+644086084+643977915
3008+644006869+644040575+643746728+642259977+639539934+636996658+635934194
2998+636375409+637546042+638640726+639149946+638970134+638214434+636790342
2988+634522130+631827625+629768104+629023170+629096817+628957615+628300359
2978+627740136+627683267+627472126+626117301+623683531+621303103+619844266
2968+619177841+618690820+618043475+617480505+617482918+617948447+618087834
2958+617458382+616390053+615237127+614104394+613159231+612323128+611042470
2948+609212503+607617359+606803306+606421336+606170624+606377126+607060960
2938+607253467+605931902+603391114+601070079+599986827+599803229+599606565
2928+599141370+598683266+598113169+597048441+595730885+594860223+594602347
2918+594389609+593528747+591695105+589162074+586749686+585171024+584400810
2908+583951429+583519309+583114213+582742414+582228331+581587297+581245343
2898+581318099+581033830+579634424+577466214+575429745+573909771+572836096
2888+572145543+571709303+571265713+570583809+569498182+568104269+567015932
2878+566778769+566887347+566066092+563780619+560954745+558936093+558137260
2868+558027309+558105485+558220744+558062128+557195030+555836270+554898828
2858+554923847+555353480+555128790+553896017+552284949+550994937+550086486
2848+549244481+548220178+546860824+545104763+543123864+541350245+540333514
2838+540407087+541233390+541875278+541628612+540610544+539375470+538267348
2828+537309082+536374536+535315784+534135352+533085286+532391763+531827346
2818+530820118+529180912+527395267+525970915+524886402+523913139+523030264
2808+522269145+521553053+520870629+520314787+519856793+519281982+518405789
2798+517182965+515606568+513752398+511992142+510882201+510602684+510617458
2788+510089456+508636855+506661895+505027849+504350994+504401960+504268363
2778+503298590+501736076+500280988+499293137+498590482+497811397+496837094
2768+495935734+495427257+495134858+494402396+492837358+490833109+489166918
2758+488157165+487376112+486298726+485102517+484443405+484450755+484452611
2748+483787782+482468705+480931469+479449729+477901804+476028962+473937888
2738+472185800+471155185+470579335+469931062+469014630+467986986+467096910
2728+466501608+466030512+465147674+463523651+461582396+460096610+459325765
2718+458823673+458021239+456816715+455566978+454574895+453747813+452850795
2708+451899619+451044436+450258483+449460615+448740588+448140757+447409001
2698+446269141+444794231+443296752+442004252+441034404+440474961+440205169
2688+439810207+439015308+438077829+437420833+436988230+436267015+434938472
2678+433303424+431959698+431128421+430489948+429755444+429077364+428628354
2668+428153397+427371564+426505097+425917925+425502880+424904646+424093711
2658+423263584+422434275+421587593+420875547+420333699+419762971+419121268
2648+418580273+418073801+417248203+415957857+414493526+413283212+412528700
2638+412108718+411766727+411340435+410792573+410176929+409596550+409043157
2628+408354126+407477710+406582363+405790434+405085144+404482455+403988158
2618+403485769+402932599+402475163+402182765+401895155+401425654+400690928
2608+399662095+398449813+397417974+396949624+397054601+397378775+397618202
2598+397719207+397630786+397149556+396186872+394991257+393914799+393045882
2588+392218539+391339006+390551679+390045504+389799469+389616985+389395635
2578+389237242+389208770+389139652+388872310+388580171+388498246+388437591
2568+387977705+387088668+386169676+385512420+385060626+384681217+384409606
2558+384344979+384417847+384399918+384186772+383952764+383893631+383905546
2548+383710367+383287378+382982842+383084997+383424502+383553829+383259724
2538+382747275+382357472+382229221+382251307+382261144+382191246+382015703
2528+381722229+381448465+381473632+381903525+382445151+382601465+382084970
2518+381075032+380084731+379491174+379212510+378952629+378672740+378605441
2508+378829389+379060464+378938189+378400016+377699514+377136804+376841733
2498+376763706+376798043+376890510+376987654+376937838+376606612+376111498
2488+375736396+375543777+375280221+374772487+374239696+374077331+374419916
2478+375011357+375459328+375543406+375315634+374994059+374761054+374617509
2468+374444861+374182902+373855202+373476906+373085359+372786502+372609919
2458+372433597+372206345+372074827+372133069+372225091+372153597+371924378
2448+371643115+371316418+370910690+370515320+370291037+370274704+370328678
2438+370265610+369976886+369493540+368975115+368594815+368407950+368350970
2428+368348892+368368937+368385678+368345105+368191575+367944241+367704108
2418+367538365+367414382+367290140+367171466+367037572+366827804+366561353
2408+366375008+366383434+366537187+366664845+366660650+366604747+366659277
2398+366863736+367084121+367141398+366939945+366526385+366098237+365866419
2388+365773581+365394840+364234527+362077305+358969797+354979526+350115513
2378+344435553+338145443+331581792+325078647+318869906+313111696+307824397
2368+302849170+298273880+294787984+293017354+292763820+293558051+295550829
2358+299270027+304985716+312777871+322709541+334152462+345027514+352548058
2348+354905026+352496386+348040216+344477573+342232301+339927748+336833381
2338+333185399+329339786+325436675+321587276+318277722+316299940+315919863
2328+316450241+316947025+317041311+317102857+317881126+319828580+322598142
2318+325373162+327664537+329564737+331353983+333162421+335004787+336931936
2308+339035816+341303175+343472387+345130301+346091351+346632271+347183066
2298+347870204+348554780+349168754+349766543+350369974+350949759+351467925
2288+351875657+352166273+352401395+352605409+352705449+352619329+352358298
2278+352049158+351829961+351667596+351386928+350963197+350593885+350387829
2268+350213548+349964692+349768918+349813612+350076907+350316669+350298628
2258+350021078+349730647+349698872+349940490+350177059+350146397+349919628
2248+349829202+350113397+350697414+351268216+351515847+351366623+351033132
2238+350826965+350916945+351247169+351644804+352003982+352352396+352714618
2228+353004084+353162551+353327218+353693226+354224124+354651529+354801459
2218+354788282+354809180+354900720+355027152+355248019+355613174+356004944
2208+356261929+356389624+356539665+356853333+357370497+357997982+358560284
2198+358972507+359340668+359815885+360398937+360975419+361510363+362103438
2188+362812737+363513090+364037306+364403462+364765573+365183253+365587904
2178+365938656+366299059+366781143+367431421+368128470+368676109+369084435
2168+369638644+370595760+371941119+373495652+375136120+376866159+378783434
2158+381047229+383805507+387031874+390450266+393742819+396806859+399670596
2148+402255261+404472544+406498619+408670467+411116078+413698739+416278653
2138+418821965+421324445+423843481+426542997+429539774+432779060+436131563
2128+439467213+442631292+445539797+448242319+450700292+452622207+453663326
2118+453651002+452595740+450661983+448095470+445086666+441819912+438612401
2108+435736081+433115186+430448299+427603345+424681588+421758459+418790042
2098+415731719+412548708+409189969+405732749+402410091+399342450+396455587
2088+393760860+391402890+389350979+387391423+385478677+383797451+382449457
2078+381303138+380190710+379132033+378282529+377671043+377121251+376512437
2068+375944605+375532196+375232410+374975276+374750437+374500282+374132640
2058+373675130+373244569+372860557+372461809+372095874+371895795+371858080
2048+371866098+371968031+372380552+373120327+373849671+374243816+374381237
2038+374636329+375296517+376414253+377922238+379685537+381427566+382785026
2028+383545737+383780265+383700344+383438941+382990637+382302385+381364572
2018+380238521+379038155+377844210+376612291+375270904+373937795+372859963
2008+372070410+371301124+370319880+369165135+367993648+366901896+365952094
1998+365208421+364695378+364397412+364268455+364177844+363919299+363368319
1988+362594653+361790326+361155379+360844309+360889782+361115957+361230845
1978+361088006+360777344+360413266+359962994+359381167+358810587+358507313
1968+358570343+358821426+358981379+358905839+358614108+358203630+357823961
1958+357637170+357679636+357787954+357753395+357546039+357300042+357097364
1948+356919705+356815582+356887670+357034110+356942831+356483576+355878920
1938+355390599+355075223+354858588+354674841+354531964+354498853+354612590
1928+354834719+355119879+355417957+355626611+355730994+355916448+356281714
1918+356562197+356442372+356031299+355706161+355656048+355775725+355847701
1908+355764254+355602112+355469554+355373487+355320627+355402849+355648661
1898+355914927+356025583+355953643+355851302+355892803+356040876+356049451
1888+355798999+355465842+355229756+355074369+354942072+354850718+354823175
1878+354854467+354947120+355128788+355488003+356138429+356993946+357613896
1868+357555134+356954932+356358517+356064968+355997742+355975619+355890353
1858+355751522+355685670+355811472+356085458+356355362+356545938+356751660
1848+357186787+357982577+358916269+359445942+359290556+358761403+358331732
1838+358260350+358506793+358863298+359289219+359936119+360762162+361452010
1828+361861746+362112421+362202030+362051023+361816644+361750310+361917390
1818+362257451+362740240+363368913+364109394+364850431+365454047+365919390
1808+366436702+367167420+368062544+368969472+369811440+370588336+371291473
1798+371960050+372795670+374052052+375690366+377159522+377909060+378214339
1788+378808676+380035806+381755266+383674286+385558932+387234515+388659498
1778+390046172+391738719+393927939+396403916+398504380+399731696+400403429
1768+401092312+402061603+403428232+405214064+407165972+408953771+410606859
1758+412318449+414078890+415909043+417991765+420274009+422355394+424011303
1748+425443896+426806145+428108333+429575670+431513287+433769064+435776579
1738+437438428+439424042+442248171+445361767+447662756+449133917+450472892
1728+452095578+454142070+456488866+458843830+461297311+464462912+468685371
1718+473228144+476611012+478449925+479802968+481542473+483865290+486703748
1708+489958587+493396987+496712889+500055778+504036249+508788010+513369314
1698+517057349+520297563+523424596+526434625+529701565+533636897+538194407
1688+543171452+548642238+554458467+559524305+563206179+566600145+570741163
1678+575782241+581357187+586834172+591925512+597202009+603215756+609383294
1668+614582246+619040421+623964236+629662979+635084060+639227527+642656202
1658+646738865+652409694+659941893+668374414+674823883+678523463+682022443
1648+686573123+691523367+695591109+698507668+700937058+703394140+706077582
1638+708950711+711526133+712950744+713292550+713699688+714669128+715734709
1628+716339774+716533320+716511642+715809544+713991752+711744847+709880877
1618+708026633+705279937+701849852+698718958+695998840+693204556+690102913
1608+686820791+683549507+680491667+678051661+676666768+676258740+676185686
1598+675864148+675107781+673970185+672660870+671478136+670540694+669637477
1588+668419553+666832725+665322959+664358568+663910523+663772435+664063534
1578+664971947+666362334+667992222+669868219+671984979+674073677+675913370
1568+677860639+680593303+684264672+688541401+693468186+700012608+708997483
1558+718305157+725142609+730940984+737685189+745483840+753671885+761874185
1548+769955546+777799409+785226409+791984721+797887849+802137258+803247310
1538+802455381+802956731+805552792+808771141+810959322+812348298+814324966
1528+817412205+821073180+824552487+827506909+829925311+832042518+834233965
1518+836482578+838618864+840963248+843885227+847162449+850371667+853264173
1508+855472176+856787059+858307813+861074776+864462989+867436046+869350797
1498+869988379+869574486+869016787+869597278+871967275+875525277+878586532
1488+879897481+879984343+879996444+880475076+881542588+883143151+884988635
1478+886725504+888176991+889201517+889630185+889879709+890974394+893108156
1468+895444596+897324379+898682916+899734912+900821652+902255098+903701388
1458+903918543+902338471+900783715+900558245+900846820+900802424+900523351
1448+900452377+900632263+900707989+900324311+899538247+899051894+899528744
1438+900498258+900762333+900391574+900527360+901084614+901210155+901038659
1428+901496355+902726009+904031909+904987540+905664099+905939533+905348797
1418+904067248+903126985+902934478+902984145+902740115+901935119+900628699
1408+899346557+898494641+897767672+897010636+896896305+897673460+898393153
1398+898134720+896897270+894732847+891605888+888413968+886371894+885438387
1388+884264413+881790924+879021585+878351040+880970264+885659477+890054547
1378+892903473+894633512+896018553+897449995+899361108+901976843+904673575
1368+906735545+908567814+911114431+914297219+917089870+918835648+919567294
1358+919450142+918881975+918623764+919040108+919663288+920154021+921018632
1348+922680592+924670846+926432883+928000409+929262952+929668679+929470530
1338+930232614+932917987+936272643+938100532+937733262+936583342+936355422
1328+937476165+939284826+940997492+942168571+942592561+942371917+942165749
1318+942767250+944138557+945420403+946006313+945994806+945734442+945575641
1308+945786188+946057688+945828432+945464353+945834445+946688217+946817545
1298+945839419+944668267+944168550+944177830+943938626+942959460+941119916
1288+938353323+934921085+931773562+929789321+928643039+927030821+924009730
1278+919742280+915130797+911170483+908456453+906887294+905764992+904354264
1268+902569138+900971842+899938555+899033853+897403297+894588893+890761544
1258+886537155+882828814+880481015+879763550+880272249+881214888+881782238
1248+881541697+880590744+879344830+878406275+878491726+879891616+881966356
1238+883736708+884948099+885985469+887001013+887847212+888633276+889659807
1228+890897628+892019114+892937698+893985536+895432569+896972996+897888759
1218+897931151+897871238+898777128+900773692+902850660+904124265+905038172
1208+906675336+909125810+911438493+913115450+914606507+916205437+917688995
1198+919231947+921416935+924157618+926807652+929380476+932414262+935562602
1188+937685970+938589558+939395148+940951017+943087155+945400952+947782604
1178+950046659+951822876+953062850+954102299+955252219+956773567+958934130
1168+961658479+964370950+966362318+967266945+967480462+968074316+969674508
1158+971601805+972837176+973443429+974242411+975516239+976755842+977355412
1148+977378947+977888092+979825783+982585323+984570751+985283094+986040501
1138+988119028+991240493+994289795+996432466+997186607+996266166+994111468
1128+992161008+991997603+994140274+997590404+1000571628+1002073895+1002928335
1118+1004909829+1008649573+1012905961+1016254232+1018806788+1021468107
1110+1024350738+1026583167+1026993423+1024729665+1019906892+1014104880
1101+1010036470+1010140111+1014680619+1021145530+1026458367+1029866477
1093+1032360754+1033973937+1033731763+1031617229+1029244263+1028652859
1084+1030519204+1033779426+1037132151+1040279972+1042999347+1043968935
1075+1042449815+1040603440+1041784690+1046285999+1050252846+1050144454
1067+1047574155+1047009106+1049656765+1052647120+1053530440+1053078683
1058+1053072595+1053815154+1055307103+1058231160+1062078332+1064623240
1050+1064906099+1064685677+1065717628+1067707288+1069532504+1070555100
1041+1070051300+1067172010+1062368540+1057488527+1053763928+1051037129
1033+1049727442+1051409819+1056204083+1061974320+1066937408+1071040414
1024+1073741823+1072601184+1066491516+1058533247+1053826439+1054747102
1015+1058831771+1061706384+1061903791+1060781192+1058886709+1055815876
1007+1052309026+1049875850+1049589057+1051925126+1055994946+1058955827
998+1058300427+1054335955+1048911162+1043386366+1038730413+1035758915
990+1034547078+1034305646+1034012617+1032885192+1030494556+1026864689
981+1022721816+1019415713+1017938984+1017896147+1017654344+1016002704
973+1013611103+1012194806+1012126950+1011319133+1007312418+1000521218+993992757
963+989912098+987772991+985767517+982715690+978517433+973915305+970141038
953+968075356+967145783+965395031+961517198+956701256+953432942+952481692
943+952176115+950789590+948602597+946993348+946524070+946994387+948251808
933+949816883+950795306+951184775+952074925+953698874+954601125+953251571
923+949764989+945961471+944041524+944790542+946727491+947424243+946004606
913+943901876+942978466+943341134+943227174+941286587+938627866+937544541
903+938591117+940005483+939949134+938593716+937346317+936556244+935348268
893+933531887+932050704+931324923+930748590+930163645+930312795+931082897
883+930799371+928754549+926961851+927370028+928713791+928363151+926439639
873+925454461+926630365+929102740+931940084+934671709+936144949+935037198
863+931649208+927679391+924399718+922094459+920671110+920000490+920225664
853+921919102+925127652+928186977+928691296+926402742+923932074+923663024
843+924886294+924813389+922425203+919961959+919859432+921924299+924372100
833+926169922+927327562+927979027+928291508+928862496+930488598+933189784
823+935388655+935230893+933389195+932221903+932421612+932867207+933162389
813+934172067+936196472+938358891+939760042+940203781+940007414+939688474
803+939573178+939594856+939694785+940084699+940819165+941278049+940284704
793+937128568+932728970+929560659+929767346+932997128+936271604+937134359
783+936572058+937004215+938889046+940888729+941854828+941537373+940222267
773+938225925+935589032+932535498+929985466+929101849+930375083+933241233
763+936169003+937522640+937401182+937689460+939430709+941336922+941559868
753+939713568+936821136+934829101+935487247+938493936+941401512+942079407
743+941030604+940729631+942638591+945357149+946391179+945371329+944347768
733+944896558+946130815+946425552+946044473+945943505+945527458+943926524
723+941920977+940675360+939811046+938131936+935229779+931728943+928911644
713+928217341+930337146+934414316+938149309+939257134+937454784+934369845
703+931287134+928292473+925609105+923830883+922768419+921686133+920516985
693+919601445+918759477+917711342+916778800+916091254+914838362+912232724
683+908264763+903166778+897645174+893837871+893749821+896209204+897366771
673+893931860+884302499+869399499+857001616+857401998+866892825+874282630
663+875660618+873607853+871712257+871175791+871259980+870657588+868306597
653+864101881+858886299+854114233+851732431+852388574+853776510+853010046
643+849876331+845993153+842354451+838861112+835633631+833975012+835141859
633+838398591+841133111+841547005+841014697+842394912+845988476+847957645
623+843907202+834457356+825387327+820804130+819236456+817597214+815815800
613+815436354+816476991+818387955+820972138+822150937+818712463+810855088
603+803502403+801964128+806894996
##END=
