##TITLE=<SNM>
##JCAMP-DX=4.24
##DATA TYPE=INFRARED SPECTRUM
##DATE=3/5/2025
##SAMPLING PROCEDURE=Instrument type and / or accessory
##ORIGIN=Admin
##XUNITS=1/CM
##YUNITS=ABSORBANCE
##RESOLUTION=4
##FIRSTX=4497.3318
##LASTX=599.83466
##DELTAX=-1.4281778
##MAXY=1.7318294
##MINY=0.18129112
##XFACTOR=1
##YFACTOR=1.6128918e-09
##NPOINTS=2730
##FIRSTY=0.19955729
##XYDATA=(X++(Y..Y))
4497+123726394+123241820+123450681+124379299+125346314+125731405+125639664
4487+125530794+125582623+125852673+126590214+127851438+129158273+129883564
4477+129709432+128705065+127322481+126226714+125845522+126139122+126751829
4467+127167528+126943321+126162653+125492342+125464182+125794182+125752063
4457+125238580+125004506+125487510+125971770+125554122+124486765+123789246
4447+123915900+124448692+124759845+124542909+123943136+123411084+123345073
4437+123803353+124424080+124573877+123879435+122720614+121906446+121871209
4427+122376358+122807255+122625953+121782064+120747875+119984890+119488508
4417+118978583+118330630+117709654+117427566+117720417+118512310+119294226
4407+119372949+118465488+117052702+115997559+115794250+116169317+116354416
4397+115870627+115062141+114637259+114852384+115511627+116405876+117276087
4387+117734312+117614698+117059373+116190871+115097258+114006499+113139753
4377+112611415+112546568+112946626+113480027+113802165+113992355+114331982
4367+114776617+114992730+114885228+114720482+114628436+114397365+113965470
4357+113702063+113935204+114484717+114864256+114837704+114685753+114823420
4347+115130056+114990051+114174710+113227965+112745313+112746606+112940011
4337+113135845+113235347+113218560+113238008+113368450+113331855+112905079
4327+112431573+112401288+112715379+112887867+112781908+112668012+112741091
4317+112979026+113311733+113600381+113607282+113278825+112941036+112936934
4307+113188331+113454094+113768924+114189372+114488126+114538191+114574768
4297+114785024+115112927+115517808+115947245+116212684+116238285+116115511
4287+115832379+115402018+115090902+115093442+115254474+115395190+115557645
4277+115737783+115745775+115496983+115183622+115031875+115051877+115178846
4267+115536867+116248623+116989149+117126040+116481357+115700976+115618510
4257+116334193+117150439+117447550+117393115+117605828+118323414+119130524
4247+119431708+119071248+118465387+118167020+118365035+118810658+119119631
4237+119042931+118587320+118050750+117818441+117924493+117951645+117579156
4227+117111932+117187736+117957688+118843502+119220944+119138441+119125507
4217+119408380+119748183+120012560+120402815+120998698+121457912+121355546
4207+120688017+119966070+119760997+120125042+120573548+120675507+120499721
4197+120416544+120552373+120580274+120187681+119661634+119661837+120365777
4187+121254336+121802759+121979747+121978813+121852288+121623055+121528044
4177+121927898+122922435+124097646+124825717+124905282+124689787+124482690
4167+124206395+123804721+123457730+123234688+123059299+123094230+123555994
4157+124111670+124095077+123421588+122752515+122653134+123018851+123410696
4147+123581465+123552206+123527456+123823910+124482432+124992865+124902861
4137+124535389+124552138+125075848+125751933+126342236+126794798+126968829
4127+126684247+126027074+125390641+125114291+125183027+125379315+125535395
4117+125499197+125176034+124784900+124733958+125102437+125539718+125702700
4107+125559083+125343985+125445289+126172298+127368305+128385107+128680397
4097+128304148+127671143+127106459+126763497+126663746+126602715+126293483
4087+125760923+125387371+125485487+125948525+126349285+126376235+126206121
4077+126324507+126844992+127210590+126817442+125775104+124756399+124220401
4067+124129686+124349245+124886222+125634444+126234614+126406492+126249211
4057+126026122+125788851+125458842+125182039+125261603+125709952+126193760
4047+126508035+126754656+126920538+126707473+126087892+125633806+125870088
4037+126535456+126910218+126757067+126520748+126623446+126924132+126968339
4027+126588284+126139916+126130677+126658535+127345402+127817328+128028693
4017+128088006+128027917+127878046+127747298+127689445+127635555+127540849
4007+127471327+127490155+127574358+127684733+127847160+128157325+128729945
3997+129590436+130538927+131165529+131148520+130570459+129889440+129641813
3987+130115024+131057694+131692278+131387555+130411542+129674620+129743624
3977+130432385+131218014+131685192+131654593+131205477+130641265+130318277
3967+130457265+131081345+132045754+133077653+133854006+134170758+134076809
3957+133785334+133456609+133146620+133000028+133336597+134229960+135087643
3947+135279190+135125947+135370691+135828760+135567404+134431504+133335202
3937+133072155+133777398+135280761+137158378+138470830+138371569+137310005
3927+136760121+137533491+138906467+139710029+139882905+140152151+140695151
3917+140851407+139962109+138181158+136353938+135277657+135279403+136529337
3907+139420337+144033900+149120535+152475535+153046317+151391438+148141806
3897+144064619+140929567+140502559+142685740+145025009+145322618+144851828
3887+145923250+147909534+148617964+148520171+149334690+149791881+147852743
3878+145311846+145314793+148122386+151914316+155311445+157176904+156478562
3868+154599856+153999963+154498820+153842173+151416226+149155190+148919786
3858+151486043+157376425+165973687+171750718+168316532+159646394+152458379
3848+149142708+149411271+151900329+155156030+158577411+162320302+165749314
3838+166953922+165350051+162800867+160626444+158514163+156502583+155632438
3828+156207275+157512586+159782648+164093114+169166205+171233383+170054957
3818+168799333+167553889+164075967+159119525+155789534+155896501+159262578
3808+163678459+166481192+168257256+171385379+174950682+175634426+173748882
3798+171976643+170434431+168264019+166388490+166153381+167523309+169889528
3788+173167319+177160489+180847263+183767403+187261253+192510841+198254742
3778+202456985+205575962+209823438+216517455+225053446+233185905+239158207
3768+244160437+250367256+257882195+266092167+275838051+288012959+301536268
3758+314581008+327464235+342357009+360863331+381851079+400202744+412241029
3748+421836468+433657679+446579339+455565610+460719596+467369267+478275246
3738+492655859+507876647+520318076+526785114+527461024+526018073+525668330
3728+526967340+528709701+529540674+528888860+526778758+523833581+521482606
3718+520900858+522286676+525788360+531474796+537442608+540624371+541015911
3708+540956265+542341381+546560180+553655715+560731146+564093177+563922075
3698+563337518+564237191+566768877+571345993+579004650+588633904+595057262
3688+594376511+590065287+587645058+588991038+592524763+595745034+598422988
3678+602113735+605494022+604414968+599640290+595400242+592010199+587642397
3668+583273671+580784003+580135145+580691283+582239740+584819209+588167604
3658+591252804+593275839+595671456+601048872+609984478+619278289+622632264
3648+617954667+610820810+606029021+604128751+603884145+604616891+606506223
3638+609195892+611253591+611765494+612386858+616785258+626867323+637826074
3628+640380783+634487991+628311087+627407238+632723456+641273546+647320220
3618+647586592+645288722+645232624+648683717+653863867+658648227+661915801
3608+663767844+665880718+669891681+674905015+677637478+675878488+671481565
3598+668305123+668620646+672326655+677491062+681537354+683578830+684895764
3588+686294664+686679514+685571378+684247866+683653036+683586295+683741359
3578+684277061+685248464+686132283+685983206+684938706+685331834+689122028
3568+693753689+693592639+687714998+680751688+676008644+673218974+671410907
3558+670987031+672454963+674833692+676637842+677789955+679662694+683003808
3548+686550911+687748775+684840405+679094102+673740854+670644383+669393304
3538+669029074+669241049+670125459+672129536+675823055+680325226+682579933
3528+680186496+674816249+670535070+669231884+669648368+670146228+670564856
3518+671441653+672478319+672337224+670243124+667219011+665122176+664935405
3508+666279833+668350430+670458425+671669519+671037660+668975193+667135123
3498+666052707+664575093+662080916+659827244+659699083+662287865+666130239
3488+668395811+667384570+664812714+664017957+665994318+668724194+670080522
3478+669873647+669122201+668910226+669579114+669748886+667348132+662503018
3468+658106760+657068469+659465305+662577889+663792457+662848327+660913799
3458+658966041+657682220+657431516+657859309+658239577+658088504+657271500
3448+656439862+656692265+657918511+658770918+658866114+659283412+660276175
3438+660504705+659061681+656700026+654752046+653987371+654585601+656383320
3428+658914600+661155338+661516759+659422955+656935504+656995815+659942248
3418+662929997+662790824+659002922+653800821+649510773+646392941+643896696
3408+642691958+643565208+645566477+647365675+649238339+651695339+653557804
3398+653363420+651681074+650491562+650891343+652196820+653024985+652817888
3388+651874793+650299543+647908324+645282144+643916503+644657602+646377125
3378+647064195+646453548+646126199+646731598+647324211+647678019+648892957
3368+651030368+652158535+650736870+647723400+645427451+645074086+646180301
3358+647562572+648567825+649388229+650202943+650607380+650280622+649636125
3348+649151421+648714020+648350455+648565534+649100792+648659400+646813934
3338+644845925+643963067+644043703+644615399+645690424+647017335+647697754
3328+647337737+646730046+646667222+646890431+646708908+646015925+645522796
3318+646218957+648162945+649866651+649877368+648544839+647093167+645981778
3308+645219542+644839717+644474822+643981323+644028034+644621016+644320941
3298+642430685+640533778+640440503+641924030+643524631+644533285+645168987
3288+645711710+646365742+647083707+647129014+645687394+643182870+641143833
3278+640800446+642503117+645853544+649637455+652189355+652469845+650765769
3268+648321852+646363303+645269209+644793153+644700839+644349322+642643990
3258+639606943+636854893+635725544+636238777+638002942+640392831+642005627
3248+641905553+641078718+641007469+641520258+641298675+640000219+638888091
3238+639247591+640648560+641255512+640074351+638141524+636709660+635328794
3228+633120798+630941849+630563872+632458932+635541434+638244924+639209379
3218+637975669+635543355+633405279+631928034+630275400+627976199+625813067
3208+624596208+623764052+622256208+620470906+619975596+621181701+622650741
3198+622957173+622141574+621113999+620480514+620253757+620206972+620264622
3188+620532029+620708010+619947621+618022664+615925349+614447735+613116722
3178+611399823+609906207+609538281+610300407+611449269+612146501+611864607
3168+610748488+609430372+608201281+606754746+604877869+602890569+601182502
3158+599782457+598685000+598203955+598484555+598787033+598057058+596401320
3148+595107299+594906891+595050942+594413614+592800300+590841456+589156523
3138+588068527+587861763+588702640+590114401+590833658+589704568+586868594
3128+583697879+581564644+580840840+581008173+581444503+581798939+581798792
3118+581147864+579880746+578619282+577920387+577377257+576114795+574225094
3108+572769653+572296036+572264624+572043669+571701317+571560370+571420642
3098+570617238+569007841+567584699+567496265+568518444+569204443+568753331
3088+567975167+567870325+568065337+567518808+566176375+564945400+564326253
3078+563853190+562815084+561101511+559283392+558048018+557625214+557660174
3068+557497054+556781196+555929158+555605099+555785477+555954140+555928863
3058+555626533+554506459+552271043+549562009+547194071+545383528+544137844
3048+543591204+543580080+543492016+542887467+542085060+541862923+542528300
3038+543458128+543658906+542729632+541212993+539940221+539093172+538201370
3028+537105429+536372608+536452764+536859825+536556202+535040523+532891915
3018+531197632+530519838+530504280+530340864+529477075+528062580+526868079
3008+526618779+527246093+527828469+527350195+525626829+523498102+521978027
2998+521202375+520493797+519505506+518744895+518726824+519167145+519338838
2988+518792974+517451022+515450566+513249924+511521052+510651350+510537306
2978+510789784+510911773+510483906+509480352+508358801+507612418+507183960
2968+506505833+505312256+504109440+503442141+503121296+502636112+501804991
2958+500678081+499417098+498449390+498139263+498274334+498277845+497831057
2948+497065051+496268631+495619070+495188617+494910123+494332551+492874301
2938+490734931+489013782+488532737+489060974+489778014+489904660+488975349
2928+487126335+485127543+483828643+483490910+483522174+482944565+481476670
2918+479959033+479274920+479255666+479068415+478274249+477085217+475844596
2908+474680102+473661027+472972294+472743542+472829130+472838554+472346496
2898+471193385+469685763+468311697+467259177+466477022+466007137+465883929
2888+465894831+465712974+465091019+463926526+462429473+461083013+460218410
2878+459795680+459608687+459451111+459159645+458719399+458207164+457580293
2868+456768130+455901939+455125955+454317339+453338545+452422723+451952654
2858+451940754+452021242+451874678+451456272+450910519+450355489+449656409
2848+448580497+447336439+446506353+446149403+445571573+444355785+442971187
2838+441944610+441098005+440077784+439082952+438550835+438471862+438414470
2828+438009331+437222704+436357325+435804957+435577572+435216705+434403101
2818+433424196+432801613+432656416+432586016+432072081+431029651+429942911
2808+429314267+429095603+428860679+428347188+427585727+426658633+425574444
2798+424421554+423492391+422971841+422508312+421519836+420053050+418822222
2788+418225840+417831048+417032374+415841199+414785944+414210368+413892184
2778+413369380+412457327+411312124+410137394+409022199+407985755+407029689
2768+406180755+405519221+405079159+404667479+403877489+402477813+400829281
2758+399649488+399221732+399108022+398770436+398098887+397182880+396030915
2748+394698867+393352147+392116589+391064883+390260961+389660994+389130873
2738+388643176+388264681+387949343+387525763+386864340+385973943+384997551
2728+384113621+383371599+382624440+381646422+380343273+378898474+377723375
2718+377156668+377117421+377062432+376385820+374991651+373447037+372427814
2708+372045772+371861033+371446175+370727877+369871812+369052442+368335365
2698+367681074+367029961+366358856+365660662+364958108+364372148+364050970
2688+363928132+363690214+363135259+362405358+361694415+360969946+360185204
2678+359478363+358948648+358460581+357781161+356774688+355486173+354134760
2668+352968567+352120705+351617968+351391580+351253405+351020846+350657577
2658+350195897+349637394+349021610+348455162+347984723+347513877+346908404
2648+346177801+345492801+344980750+344588915+344208610+343821578+343454577
2638+343087243+342670167+342158301+341484572+340601973+339630865+338867890
2628+338505360+338418293+338342720+338125202+337700514+337062520+336381067
2618+335892188+335590708+335241075+334700902+334044431+333408802+332884557
2608+332516779+332278049+332049592+331714668+331291088+330897700+330575525
2598+330252759+329905159+329590154+329282872+328843881+328196649+327427354
2588+326714046+326234627+326095823+326255506+326509351+326591946+326346231
2578+325845378+325302692+324831070+324399213+324026040+323804309+323682172
2568+323460404+323083314+322733423+322587080+322656593+322883202+323190558
2558+323438527+323511994+323468719+323432429+323362510+323120417+322743142
2548+322449533+322350235+322308254+322132902+321788591+321344094+320852037
2538+320393202+320110051+320057021+320143126+320299077+320506247+320632375
2528+320496676+320136215+319809754+319725459+319861269+320013266+319969363
2518+319642975+319085137+318459967+317987237+317757893+317639785+317491743
2508+317330027+317190410+317052309+316958110+316969973+317003048+316878842
2498+316518898+316005148+315491287+315066709+314687402+314247488+313683996
2488+313020060+312386944+311961960+311788123+311706637+311524892+311202384
2478+310867607+310680910+310633866+310507036+310124550+309589255+309141377
2468+308865322+308671474+308501869+308408668+308420272+308434037+308292185
2458+307936363+307471910+307079022+306846814+306712002+306581994+306451930
2448+306354664+306282232+306213237+306132176+305983856+305719978+305435682
2438+305327773+305435479+305557283+305522767+305379954+305212510+304994844
2428+304734347+304512709+304313687+304042233+303741899+303606015+303767268
2418+304153283+304502639+304546098+304274145+303968064+303871999+303943008
2408+304004945+303993120+303943544+303900695+303951619+304199570+304605392
2398+304975979+305136955+305020971+304672780+304275716+304027248+303902062
2388+303690309+303235336+302429954+301069118+298928824+295932649+292146909
2378+287730363+282941808+278077034+273351746+268861530+264601434+260556472
2368+256911937+254096935+252414035+251770387+252024509+253357629+256053229
2358+260200224+265749113+272675892+281069975+290669830+300007267+306782161
2348+309400821+308100776+304980265+302340966+300537149+298428248+295382073
2338+291763204+288115269+284541171+280918330+277507407+274936604+273485117
2328+272813845+272490506+272381396+272556841+273169132+274386601+276183581
2318+278187844+279908309+281174429+282278334+283633572+285348401+287175389
2308+288798053+290091464+291136241+292035268+292775036+293304972+293676630
2298+293996828+294324214+294735284+295365794+296205489+296955789+297303186
2288+297305680+297338164+297644153+298063889+298248554+298063686+297682438
2278+297327244+297076355+296910039+296764953+296528551+296143737+295725682
2268+295457720+295406297+295526900+295777474+296109313+296388657+296461237
2258+296302866+296001589+295628009+295262338+295065534+295132016+295349035
2248+295532333+295594473+295551494+295504487+295558035+295671949+295759200
2238+295918107+296309647+296874211+297403408+297777080+298001047+298173978
2228+298458958+298945491+299571511+300254978+301011283+301883110+302843519
2218+303856182+304988506+306345758+307917146+309620371+311425741+313292678
2208+315121366+316885641+318668653+320552146+322588965+324781255+327018002
2198+329186123+331322315+333520850+335784833+338041425+340205961+342228331
2188+344114559+345867156+347436567+348759746+349819656+350734666+351770186
2178+353086269+354497808+355621429+356193938+356212822+355868474+355350954
2168+354734025+354063511+353405377+352777620+352169523+351530606+350706284
2158+349604393+348377297+347268865+346411949+345759802+345106509+344385588
2148+343848556+343701511+344172467+346179760+350788879+357682824+365327771
2138+372770056+380178009+387794279+395395175+402648213+409524826+416372576
2128+423471696+430660912+437698428+444532209+450932470+456457744+460818007
2118+463802689+465221767+465279269+464635289+464079151+464441385+466611650
2108+471339358+479047498+489844312+503401047+518403430+532286922+542184100
2098+546251531+544121954+537002878+527202855+516471637+505157340+493095662
2088+480173410+466224729+451394225+436166896+420925746+406246314+393048930
2078+381790695+372284835+364391623+358057881+353006668+348953428+345656992
2068+342766324+340118673+337797669+335732246+333828650+332227014+330948883
2058+329837420+328933017+328301084+327816676+327531383+327720113+328499423
2048+329874191+331969067+335084866+339806439+346789667+356271137+368270324
2038+383103452+401011174+421534360+443619750+465800225+486133018+502579164
2028+513594162+518538538+518016990+513551109+506707054+498641372+489914527
2018+480521565+470538466+460495167+450811072+441390061+431948651+422377972
2008+412786006+403314625+393954368+384731917+376012500+368254174+361531923
1998+355615812+350415817+346045539+342429552+339120404+335738972+332415818
1988+329498283+327094019+325138833+323548136+322147610+320785259+319528340
1978+318514402+317733207+317074002+316430280+315797904+315388256+315437924
1968+315773181+315811207+315196902+314238360+313506759+313205390+313129927
1958+313061006+312920613+312658490+312259892+311817391+311463916+311284609
1948+311344661+311776371+312684100+313725570+314022837+313090829+311588417
1938+310496910+310052229+309885155+309724917+309628908+309708472+309862889
1928+309964479+310258180+311079545+312153203+312923791+313519324+314308907
1918+314768777+314099408+312724234+311855492+312016728+312757530+313337283
1908+313397150+313127119+312880850+312749068+312635726+312571276+312734544
1898+313230297+313896118+314391613+314700853+315289401+316269193+316836750
1888+316296576+315148787+314305581+313986400+313907870+313868808+313832777
1878+313817773+313852437+314014264+314679235+316512579+319621356+322596097
1868+323248282+321161166+318206714+316174624+315439956+315500673+315775028
1858+315914128+315861356+315778391+315837335+316160434+316876735+318117726
1848+320097856+322911436+325600403+326081485+323769460+320842280+319370874
1838+319453913+320007205+320429898+321424324+323916209+327275579+329412954
1828+329438896+328566016+327664458+326416890+324861928+323808300+323698395
1818+324174969+324727559+325377748+326544828+328230278+329642334+329997917
1808+329498579+329108924+329730435+331691719+334447907+336693560+337426417
1798+337153245+337554726+339931015+343831704+346662431+346057032+343248552
1788+341261400+341346656+342806716+344675094+346649977+348484467+349732775
1778+350681155+352604226+356574058+362028933+366287496+366960966+364926031
1768+362374722+360584800+360530698+362693275+365820456+367826492+368602366
1758+369466672+370611099+371884204+374449556+379341197+385156384+388741883
1748+388971152+387712904+387038214+387765971+389628621+391501138+392338727
1738+393099226+396201795+402004602+406465310+405673546+402021897+398910090
1728+397059598+396565951+397541382+399567189+402595885+407743108+415738426
1718+424372293+428613080+426626556+422066144+418517305+417366485+418993287
1708+423249485+428866075+433899513+438335793+444222266+451741825+457377927
1698+459203105+459027826+457372051+454651414+453408317+455235564+459507541
1688+465630269+474499207+485541847+492827220+492031613+488173570+486705047
1678+489082112+494480297+500643491+505746257+510569383+516171450+520715232
1668+521930059+521861655+524039606+528784794+533326137+535634356+537379340
1658+541599063+550108428+563094538+576670896+581919228+580019734+580611127
1648+585591350+589963217+589069087+585478045+583729476+585356094+590547145
1638+598984558+608035944+612012650+609198553+605280717+604687291+607548358
1628+612025806+616783632+621802104+626790013+630859735+634783484+640801998
1618+649210771+656174006+657381774+654430463+651112113+648431683+645617253
1608+642259287+639193119+637927701+639432293+643355598+648372850+653377907
1598+658044897+662127849+664968000+666228539+666505999+666575548+666493877
1588+665851745+664588988+663279371+662614844+662822015+663971246+666660249
1578+671334927+676298520+678366751+678304223+680240007+685982910+693821909
1568+701058760+707482155+714560616+723515438+736151879+755322433+780560872
1558+800464172+807536130+810796682+816247639+823425806+830831098+837459446
1548+842903530+848154412+854708037+862848811+871375471+876540986+872868902
1538+863076233+855600577+852480233+850481256+846895868+843425189+843137234
1528+846240727+850411115+853568414+855725560+857568808+859217894+860818865
1518+862118947+862123012+860937565+860494842+862453465+866988821+873399873
1508+879559187+880305680+873275852+865002039+860963951+861599801+864982305
1498+867966359+868081289+866192882+865325766+866955636+869946194+871566972
1488+870009239+866419712+863248666+861665729+861070973+860562101+860664319
1478+862890496+867881805+874696333+880878707+882838660+879362290+874201208
1468+871469780+871808880+872785161+872024551+870764824+872033642+876702332
1458+881998743+882722251+877992954+872469564+869068509+867827555+867569091
1448+866841888+865153333+863432406+862623532+862641049+863233736+864819259
1438+867114321+867358816+863374609+858200963+855996736+856974200+858306359
1428+858254622+857886475+858149817+858514712+858984412+860455670+862162997
1418+861419903+857754619+853558067+850389829+848271412+846956548+846403404
1408+846390100+846177608+845007977+843299689+842631910+843935613+846427203
1398+848490039+849149023+848237487+845952107+843153938+840980754+839501735
1388+837455825+834196677+831717135+832765183+837541782+843710704+848980655
1378+853039586+856941975+861159961+864839141+867214913+868781959+870105692
1368+871128536+872381685+874911856+878382831+880927562+881580633+881339759
1358+881303395+881430373+881125715+880257269+879549061+879936572+881592754
1348+883807180+885748951+887173719+888520513+890379356+892680109+894573100
1338+895572219+896448647+898215472+900803515+903464137+905967996+908606223
1328+911356646+913898938+916256676+918754770+921616428+924822065+927897102
1318+930110346+931506733+933125664+935643491+938506036+940730145+941912783
1308+942305099+942543090+943296975+944673776+945968905+946255899+945142293
1298+942942723+940483802+938738041+938082161+937886077+937338032+936467443
1288+935667660+934577779+932353671+928937537+925410243+922989977+921963954
1278+921577330+920730687+918937920+916776783+915384461+915395769+916336647
1268+917192528+917363187+916782252+915631469+914457331+913890808+913835523
1258+913589550+912717039+911024641+908077765+903727036+898846296+894748341
1248+891887791+889599085+887034768+883878725+880377817+877369594+875885180
1238+875835808+875642016+874257528+872766832+872651532+873533133+874056936
1228+874198178+875094932+876988957+878892294+880278260+881630448+883020553
1218+883684193+883551155+883771481+885239857+887811122+891030801+894464821
1208+897455601+899683774+901716233+904188014+906992318+909772084+912329084
1198+914202414+915021340+915533390+917089054+920029722+923421391+926142546
1188+927877294+929489130+932303707+936407502+940163844+942139170+942722101
1178+943206213+944386856+946327814+948414523+949820075+950574181+951684757
1168+954029487+957262101+959994490+961387847+962262205+964150909+967552851
1158+971513038+974515274+975605229+975195470+974757108+975410697+976991416
1148+978334957+978352104+977449290+977884400+981515908+987163392+991444646
1138+992496832+991499191+990585660+990957355+992703338+995054498+997211126
1128+999442995+1002651883+1006520569+1009219699+1009597898+1008876607
1120+1009413048+1012300427+1016680055+1020650515+1022572774+1022294058
1111+1021272027+1021215707+1022883567+1025566732+1027187436+1026227194
1103+1023951127+1023201381+1024914399+1027227717+1028391213+1029074514
1094+1030751020+1033273209+1035567827+1037807752+1040923884+1044093083
1085+1044979563+1043104533+1040718413+1039710647+1039758540+1040417081
1077+1043098177+1048724819+1054673118+1057072320+1056070761+1055553242
1068+1057683779+1060647286+1061674122+1060137231+1057319624+1054959151
1060+1054262251+1055013327+1055496700+1054255747+1051768074+1050136061
1051+1051618776+1056635658+1063059939+1068238537+1070994430+1071028577
1043+1068387319+1064547753+1062225862+1062931853+1065786638+1068430704
1034+1068349107+1065336081+1063002289+1065097794+1070326872+1073741823
1025+1073328665+1071239295+1069180450+1067227445+1065969713+1065752048
1017+1065287891+1063780786+1062338501+1062062520+1062378856+1061986762
1008+1060627330+1059012760+1057696714+1056556130+1055359597+1054480877
1000+1054264468+1054209774+1053729136+1053106146+1052284412+1049505089
991+1043395518+1035919714+1031010889+1030596178+1033035735+1035210841
983+1035540555+1034521775+1032836325+1030027143+1025315732+1019064179
974+1012988975+1008898706+1007071127+1006027735+1004209543+1001535986+998781350
964+995923165+992020998+986706701+981094250+976697549+973781492+971555758
954+969651090+968037185+965900291+962621040+959304316+957294030+956255738
944+955474359+955502667+956658919+957439855+956326175+954209015+953193636
934+953565552+953473386+951614468+949023913+947471501+947502470+948836181
924+951133534+953553357+954544863+953172349+950459472+948407353+947832110
914+948048962+948407206+949054808+950001007+950564055+950223699+949049412
904+947161743+944861729+942980048+941946782+941157642+940050318+938983719
894+938300344+937439585+936080375+935179261+935702841+937207802+938468416
884+938674034+937759469+936374094+935423978+935057900+934574527+933397358
874+931574730+929782406+929190754+930418626+932622408+934457601+935399070
864+935531961+935036466+934123305+932704227+930581819+928306713+926706629
854+925832936+925567968+926172110+927228879+927774411+927701462+927478401
844+927328067+927554824+928415583+929182328+928692451+927101236+925904851
834+925994430+926729616+927380987+928458747+930605766+932846504+933327291
824+931719373+929608717+928542709+929040568+930579454+931972959+932638521
814+933033571+933802312+935098625+936610312+937663681+937948088+937922367
804+937499896+935801511+933098760+931375985+931933934+934102831+937046900
794+940662147+944109397+945873783+945767943+944853525+943340804+940708267
784+937934193+937413421+940052535+943863719+946280733+946858342+946521163
774+945534683+943742358+941926752+941391568+942181077+942852109+942162822
764+940408191+938698055+937518669+937104032+938203448+940958675+943649601
754+943986632+941802361+939352531+938734567+939759998+940367171+939238266
744+937651116+937544907+938721263+939572710+939568201+939775667+941493860
734+944963504+948867888+951410698+952328220+952563920+952326964+950467750
724+946076445+940479515+936506911+935961453+938548535+942798524+946849768
714+948565448+946950951+943327500+940005972+938595911+939334423+940750248
704+940402796+937295090+933220712+930724171+930274500+930102881+928572199
694+926222517+924779936+924065224+921544366+915822823+909286198+906591207
684+909166315+912795606+912564562+908393583+903936424+901615936+900903220
674+899720729+895227723+884756484+869413374+858293942+861288417+872573187
664+880536354+882871328+882874432+883076651+883471923+882462456+878690667
654+872892110+867688161+865340179+866212246+868780776+870448783+869283736
644+865810100+862462186+860794031+859991661+858340505+855246769+851989543
634+850660784+852258650+855978111+859299122+858611091+851979934+842419565
624+835745245+834580419+836969939+840275946+843372343+845459421+847086556
614+851723096+860730986+867756380+864089912+850486725+837410296+833683001
604+839200920+846164082+846755586+841396130
##END=
