##TITLE=<SNM>
##JCAMP-DX=4.24
##DATA TYPE=INFRARED SPECTRUM
##DATE=3/5/2025
##SAMPLING PROCEDURE=Instrument type and / or accessory
##ORIGIN=Admin
##XUNITS=1/CM
##YUNITS=ABSORBANCE
##RESOLUTION=4
##FIRSTX=4497.3318
##LASTX=599.83466
##DELTAX=-1.4281778
##MAXY=1.7114958
##MINY=0.18022121
##XFACTOR=1
##YFACTOR=1.5939546e-09
##NPOINTS=2730
##FIRSTY=0.20035295
##XYDATA=(X++(Y..Y))
4497+125695517+125982863+126208257+126323777+126502194+126637664+126314045
4487+125297979+123952667+123086590+123260977+124237284+125242140+125724273
4477+125658581+125268241+124801403+124544206+124691558+125014559+124996984
4467+124562342+124244632+124473540+125139110+125891519+126430229+126572710
4457+126424208+126280278+126139928+125692404+124969499+124555031+124925514
4447+125864454+126683471+126796028+126013760+124590509+123145532+122344390
4437+122435575+123090796+123722375+123916703+123650597+123228557+122941351
4427+122683686+122056941+120941799+119721963+118821679+118329403+118182594
4417+118394656+118924354+119501337+119719972+119375057+118741665+118264824
4407+117896874+117196079+116152342+115322649+115140473+115619016+116498602
4397+117263800+117405617+116896374+116082788+115308243+114942097+115303110
4387+116278659+117373383+118107880+118145564+117372383+116087435+114770056
4377+113745025+113316619+113769902+114935591+116132495+116674580+116294860
4367+115233566+114054780+113274260+113065460+113207895+113289891+113168304
4357+113237960+113985685+115324313+116554769+116924429+116247108+115058290
4347+114095661+113718251+113929622+114609317+115484453+116217417+116673514
4337+116857213+116697409+116142843+115314712+114482149+113987676+114027463
4327+114387971+114666951+114784481+114932889+115147261+115321761+115465494
4317+115634684+115848766+116205030+116732681+117116214+116995076+116512345
4307+116140974+116096316+116301105+116700307+117259004+117803594+118108581
4297+118060810+117681025+117119683+116698708+116832028+117675192+118793549
4287+119401663+119071463+118030025+116784210+115763507+115296239+115584286
4277+116522862+117628197+118353831+118625949+118889353+119408787+119835567
4267+119766341+119397260+119287031+119644604+120113686+120343268+120561565
4257+121199193+122055819+122420664+122051247+121521119+121540835+122217277
4247+122964404+123101407+122615385+122156241+122215034+122587396+122760297
4237+122550086+122188839+121966185+121966465+122104478+122310782+122634999
4227+123131238+123685401+124081135+124244632+124311848+124419721+124522321
4217+124488030+124380363+124470184+124833422+125179066+125320977+125446462
4207+125636873+125647045+125425662+125264596+125271018+125247235+125066425
4197+124780453+124509700+124437436+124704365+125203363+125590495+125549549
4187+125156592+124975688+125475957+126327497+126706712+126316242+125679007
4177+125495673+126065065+127173700+128289262+128995853+129323427+129534470
4167+129753254+129954706+130035907+129824817+129343666+128981017+129039137
4157+129329176+129497057+129433693+129255463+129226127+129609716+130302481
4147+130879053+131138251+131185246+131028536+130583321+129975114+129515764
4137+129473863+129892435+130491285+130871228+130920878+130907014+131186929
4127+131874598+132642460+132897367+132378252+131509024+130938809+130813286
4117+130724241+130410840+130222299+130601653+131366879+131945891+132142846
4107+132252962+132582349+133209356+134064571+134925123+135370413+135057246
4097+134205453+133552149+133542473+133830576+133865531+133641913+133570154
4087+133905430+134518013+135063426+135307881+135286968+135177244+135160361
4077+135377275+135801278+136231536+136515797+136558660+136206585+135529806
4067+135032108+135154415+135725153+136154654+136039040+135518775+135133474
4057+135227792+135499442+135402367+134975063+134871995+135500433+136528184
4047+137408556+137994036+138352918+138395585+138113716+137828296+137828679
4037+138067703+138386703+138718913+139031099+139319520+139594171+139753097
4027+139673148+139477277+139484653+139818340+140191609+140212606+139921698
4017+139815358+140115904+140346318+140042902+139548990+139560451+140161179
4007+140825038+141172374+141315884+141596677+142238015+143091454+143601361
3997+143290400+142374448+141581467+141323737+141423794+141606016+141839964
3987+142236922+142854533+143465218+143550935+142933314+142231041+142128002
3977+142475300+142716549+142795095+143004372+143324008+143499864+143513756
3967+143535285+143602707+143677654+143824408+144047511+144125646+143912939
3957+143648618+143656022+143912415+144224357+144622493+145224203+145849247
3947+146116148+145896149+145452803+145170664+145279229+145772196+146448975
3937+146995127+147162466+146967212+146640050+146393772+146334446+146508217
3927+146886880+147303507+147493862+147391141+147335909+147702513+148357453
3917+148766134+148637003+148149981+147599978+147129662+146727599+146430101
3907+146566337+147494788+148868707+149694716+149652358+149507708+149809975
3897+150289901+150712792+151272994+151933750+152106595+151508260+150846700
3887+150767013+150850141+150426109+149896729+150128461+151011169+151667998
3878+151726146+151467509+151278089+151587367+152633928+153860803+154343151
3868+154202203+154292220+154740025+154950105+154665844+154250600+154136539
3858+154621523+155848080+157471839+158387660+157956879+157020304+156314161
3848+156033593+156203502+156662077+157157597+157696260+158475947+159382944
3838+159903938+159844463+159699635+159865198+160140064+160198623+160159958
3828+160396719+161089932+162282358+163903733+165393630+166046289+166291072
3818+167039535+168000061+168227137+167715697+167238080+167369576+168228558
3808+169392957+170310218+171223702+172568416+173655521+173631346+173304427
3798+173604553+173931528+173583089+173279915+174110852+175987012+177968287
3788+179596411+181220890+183108492+185102781+187313020+190208696+193743101
3778+197185966+200179315+203222248+206999024+211694613+216875896+221966386
3768+226812748+231532119+236230251+241251243+247158815+254226804+262122811
3758+270153289+278126609+286704220+296563666+307444160+318083742+327561001
3748+336575993+346483060+357534652+367962097+376266561+383673005+392262114
3738+403093940+415900814+429322861+441637329+451611968+458741657+463211459
3728+465836943+467525814+468961676+471038662+474528176+479215238+484453454
3718+490281339+497123728+504959531+513150729+520571195+526516385+531862109
3708+537876180+544755252+552089039+559248830+565303697+569902435+573845278
3698+577907335+582016283+586107619+591185937+598474589+606835369+612141829
3688+612118645+609514850+607307059+605949500+605128025+605264962+607374743
3678+611401274+614331072+612767434+608822982+606903127+608369054+612133527
3668+616838876+621597324+625521807+627835685+628978078+630737474+633761991
3658+636048571+635689138+634471658+635531858+639409935+644257120+647124731
3648+646381933+643900828+642408052+643350535+647219488+653314890+659915788
3638+665852116+671103606+675531827+678414470+679490675+679126455+677668381
3628+676005910+675382848+676211653+678602488+682516164+686902353+689845725
3618+690898820+691513954+692318603+692956697+693625305+695002458+697073124
3608+699315430+701533204+703046622+702722041+701550032+702981182+708333563
3598+713860574+714982474+712072084+709480368+710111731+712977996+715488418
3588+716808507+718344511+720439334+720766458+717641201+712952194+710085555
3578+710137084+711897902+714324336+717274289+719999952+720362601+716678301
3568+710404303+705398866+704162689+706695473+711674734+716841339+720199861
3558+722103375+724131561+725838307+725171045+722075255+719017233+717909168
3548+718747620+720655472+722638636+724006440+724748491+724848408+723646185
3538+721032406+718680161+718457591+720277417+722571700+724008684+724238584
3528+723708184+723314723+723728676+724507896+724577749+723439171+721814094
3518+721362746+723171727+725993044+726465408+722881100+717973112+716242733
3508+718877453+722756801+724606468+723996120+722115715+720233067+719668864
3498+720912819+722630932+723443209+724023791+725095658+724985346+721897034
3488+717152235+714092717+714690500+718376221+722963142+726191233+727039483
3478+725962904+724367743+723687094+724074498+724180922+723217722+722407913
3468+723192219+725049215+726231395+726158850+725987061+726965742+728880698
3458+729859080+728201246+724951915+723512762+725734949+729460383+731316407
3448+730813529+729731641+728706292+726687903+723068968+718882240+716237947
3438+716692735+719854040+723652766+725785432+725250695+723092152+721448827
3428+721626300+723356604+725670407+727611240+728566288+728975007+729793640
3418+730845688+731017328+729900962+728079491+726392414+725932615+727704352
3408+731176552+733914630+733989867+731983444+729572117+727287855+724747743
3398+722711779+723175093+726657763+730594399+731293147+727632854+722528323
3388+719995390+721111532+723710204+725805251+727940758+731248050+734743809
3378+736305166+735253267+732532017+729418801+727167745+726623361+727288155
3368+727858416+728228394+729435105+731257847+731952257+730961087+729937982
3358+730478178+732381617+734355956+735666622+736745071+738074734+739369769
3348+739946313+739066577+736433203+733050973+730739713+730285972+730827814
3338+731212974+731204299+731061303+731001622+731317528+732026597+732347589
3328+731536210+730451628+731121134+734130768+737395805+738482929+737314958
3318+735283706+732917252+729947555+726517386+723543799+722589649+724906519
3308+729767838+734291040+736083867+735852322+736033385+737355868+738264995
3298+737416521+735329775+733473004+732990395+734077070+735507099+735604473
3288+734726757+735099053+737347117+739334693+739120126+737473211+736609031
3278+737459300+738916477+739419803+738640433+737218855+735571267+733848891
3268+732267490+731304964+731829978+734098983+736578667+737132325+735351464
3258+732398071+729440564+727431225+727056311+728180829+730174089+732333229
3248+733512268+732664542+730441233+728651248+727740026+726591426+725100071
3238+725186676+728459640+733677924+737353325+737439705+735666323+735137046
3228+736809389+739151836+740116456+738377028+733921735+728969622+726721408
3218+727954818+730010078+730305492+729672857+730669038+733949855+737553458
3208+738642751+735769830+730565157+726791784+726637197+728585509+729674278
3198+729234223+729149787+730396061+731165857+729791023+727746907+727689320
3188+729519167+730157037+727496365+723047952+719828761+718953289+718990982
3178+718085369+716210350+715106324+716039384+718205554+719778279+720064569
3168+719650840+718755324+717015447+714977463+713950469+714104159+714050461
3158+712837693+711301315+710532939+710236703+709609976+708763970+708021396
3148+706894036+705109660+703533719+702965028+702998159+702898317+702676794
3138+702645083+702665501+702346154+701513236+700166746+698252014+695907323
3128+693633083+691680508+689840340+688322435+688029564+689332003+691317037
3118+692893576+693844435+694233335+693804124+692451427+690479407+688425568
3108+687186100+687596763+689189457+690445752+690812963+691107330+691558603
3098+690991857+688749626+686124105+684775446+684695871+684587503+683821296
3088+683061446+682829827+682616829+681904470+680599936+678335344+675052657
3078+672112876+671165082+672165901+673598547+674367820+674586726+674569898
3068+673955287+672276812+670113782+669024115+669931822+671864578+672818579
3058+671825389+669635884+667596630+666682716+667250584+668767143+669992625
3048+670152896+669722564+669517868+669545540+668984478+667031678+663880769
3038+660748407+658641768+657422119+656321383+654815071+652852100+650912314
3028+649719215+649521923+649936026+650353345+650229944+649239597+647685868
3018+646504286+646176489+646013749+645160264+643872857+643004714+642679010
3008+642324812+641667123+640871524+639956264+638800335+637575002+636807000
2998+637105555+638638493+640662566+641863667+641471701+639942877+638435069
2988+637564307+636625788+634485045+631291432+628515437+627216362+627082304
2978+627203948+626978461+626262212+625443205+625252457+625916952+626816506
2968+627246951+626935121+625763635+623920700+622192004+621156596+620352359
2958+619068617+617475437+616192891+615341052+614595898+613753556+612764667
2948+611559714+610206941+608970689+607914341+606693458+605130942+603684422
2938+602817849+602297771+601672128+600959358+600309372+599623525+599012803
2928+598871752+599067473+598786307+597504621+595488737+593306263+591542603
2918+590781519+591123040+591875299+592149511+591520840+589911094+587417313
2908+584619517+582521179+581742296+581917749+582134374+581946019+581595262
2898+581098368+579806025+577465859+575032693+573670236+573470065+573603301
2888+573292667+572407135+571383170+570579644+569722980+568346014+566610475
2878+565087671+564015804+563273791+562704090+562159332+561587238+561077368
2868+560536199+559636121+558307468+556832380+555476878+554506573+554180309
2858+554196538+553713181+552376151+550697227+549216791+548089393+547497331
2848+547497294+547540746+547085471+546333325+545595051+544597935+543085303
2838+541401779+540059514+539262420+538855646+538356844+537368329+536124710
2828+535116114+534307914+533383791+532417562+531571407+530559931+529162024
2818+527831576+527062565+526496005+525372085+523761854+522584984+522281343
2808+522182884+521481594+520286438+519329371+518963506+518829673+518389879
2798+517452444+516094848+514399919+512517944+510791380+509535047+508770972
2788+508265440+507686353+506793268+505663926+504653684+504025798+503712136
2778+503392565+502632229+501115371+499058503+497220392+496165689+495658399
2768+495057549+494111177+493078836+492344339+492179431+492490812+492531796
2758+491346325+488799220+485853904+483700485+482757254+482474815+482027431
2748+481155286+480157422+479172534+477955204+476362473+474639087+473132961
2738+471911704+470794515+469713711+468871482+468477197+468443879+468355068
2728+467657255+466045116+463841925+461844627+460621912+460056063+459549184
2718+458549039+456998414+455372814+454166664+453355809+452521283+451483332
2708+450571886+450069794+449607378+448573989+447071752+445854871+445283525
2698+444917174+444165625+442862438+441244204+439766498+438853070+438554103
2688+438530059+438415221+438008148+437178296+435937520+434637174+433741770
2678+433292442+432821200+431874828+430480884+429071460+428039904+427356899
2668+426629806+425635831+424679699+424187143+424046616+423659735+422630460
2658+421140825+419632194+418384125+417454805+416790422+416291397+415869441
2648+415452944+414927967+414196275+413316988+412461521+411734055+411127334
2638+410595701+410104939+409658565+409272133+408905147+408478628+407933945
2628+407209806+406291779+405342602+404575871+403970310+403331542+402619183
2618+401976078+401461122+400975260+400467783+400009555+399574697+398936229
2608+397962522+396902396+396175117+395936205+395963092+395878506+395447912
2598+394777060+394185147+393795837+393411349+392847557+392142340+391415509
2588+390807031+390457507+390256925+389792040+388828243+387678184+386896047
2578+386752603+387070641+387404907+387356108+386848183+386172096+385715400
2568+385580632+385495186+385184553+384742217+384440670+384324449+384271873
2558+384276061+384351447+384365096+384225205+384004392+383717840+383270045
2548+382720088+382290915+382035999+381782541+381479648+381333437+381451004
2538+381551183+381260406+380622835+380072206+379915973+380090791+380373640
2528+380542512+380415073+380063642+379870090+380044684+380299862+380284306
2518+380035971+379742838+379403971+378969675+378542372+378270740+378168355
2508+378082573+377854768+377535234+377328669+377294004+377273475+377123300
2498+376836785+376470734+376111637+375856871+375696375+375463858+375040331
2488+374588198+374401264+374502939+374626864+374601248+374461095+374216724
2478+373858226+373547256+373482676+373587754+373533906+373092094+372401498
2468+371851392+371673022+371738611+371807977+371806107+371752335+371585669
2458+371241567+370848442+370664912+370752377+370850125+370687535+370291680
2448+369883560+369607105+369458051+369382403+369368754+369428622+369486247
2438+369372307+368994887+368469087+368022975+367755905+367522079+367158047
2428+366772662+366591525+366599191+366617177+366600126+366592871+366575146
2418+366529338+366481848+366435666+366393971+366351454+366213769+365935556
2408+365692681+365659849+365736357+365743051+365725363+365831974+366025863
2398+366067819+365742340+365112659+364575342+364508930+364810701+364959755
2388+364559375+363569252+361969304+359463257+355647778+350398531+344020092
2378+336968033+329470909+321576584+313534739+305882205+299064627+293092400
2368+287634082+282479330+277875937+274351553+272407317+272527259+275121874
2358+280165546+287125353+295639431+306156342+318901927+331904075+341413866
2348+344576742+341418241+334989619+329136306+325407582+322934891+320412167
2338+317139838+313169248+308987101+305092402+302093425+300755928+301293638
2328+302850938+304207861+304931046+305605002+307067488+309644659+313046352
2318+316683031+320001130+322765533+325145598+327475443+329959091+332597924
2308+335251004+337699052+339749413+341354596+342627457+343723705+344711024
2298+345577597+346331913+347012973+347626388+348158918+348635919+349121033
2288+349681535+350319293+350900511+351243528+351312370+351217352+351035018
2278+350758899+350404253+350036256+349695857+349370228+349054247+348820833
2268+348769005+348867463+348947001+348921722+348893976+348948235+349008776
2258+349007916+349011955+349087192+349217922+349399845+349633296+349830962
2248+349913865+349959299+350081653+350235006+350290537+350231267+350154160
2238+350157077+350295361+350563103+350866407+351093054+351242443+351421487
2228+351690687+351965460+352111185+352133023+352239447+352656280+353349943
2218+353992150+354257574+354146588+353978202+354067799+354450267+354939420
2208+355397125+355840508+356308571+356777120+357238490+357744358+358336682
2198+358991118+359619827+360118889+360465646+360758293+361109574+361552994
2188+362062565+362570041+363008077+363426107+363949775+364551447+365052305
2178+365399809+365707676+366029266+366359344+366827520+367629027+368772878
2168+370051572+371249906+372339311+373499354+374948790+376749470+378829858
2158+381186104+383933306+387103510+390492583+393806157+396910137+399837504
2148+402603216+405168607+407578513+409982885+412485341+415047965+417577794
2138+420104034+422837624+425960338+429359470+432736652+435997575+439315187
2128+442777254+446231243+449521184+452599810+455309281+457282236+458211669
2118+458110405+457206177+455675894+453580847+450979258+447998119+444838945
2108+441743753+438860474+436129090+433423134+430778393+428324773+426014784
2098+423569428+420700695+417331217+413622686+409802831+405969478+402122663
2088+398375054+394994021+392179286+389868138+387816131+385877205+384141816
2078+382736056+381578743+380475726+379378169+378401209+377633955+377047539
2068+376555619+376096530+375662907+375248542+374779694+374186360+373566738
2058+373146614+372990232+372891698+372679823+372458150+372365487+372297093
2048+372088733+371818186+371732815+371978607+372503472+373184570+374038615
2038+375271764+377031908+379185627+381469514+383770940+386093643+388310221
2028+390117931+391263165+391701687+391497178+390685986+389321771+387542032
2018+385521175+383440375+381478265+379723131+378150593+376741991+375493810
2008+374292223+372986044+371623362+370409734+369391228+368369207+367192113
1998+365983533+365000552+364369786+364026508+363818185+363583536+363181511
1988+362538780+361740189+361046939+360683504+360572855+360435805+360163501
1978+359899834+359764692+359714023+359651799+359496239+359181679+358730256
1968+358267840+357898310+357624024+357424526+357329694+357352018+357385598
1958+357271920+356997596+356718112+356536115+356359726+356027329+355502277
1948+354956771+354688019+354847580+355216810+355391815+355233787+354951685
1938+354736183+354578603+354461971+354496710+354748971+355055828+355196991
1928+355208621+355311380+355519591+355582039+355384747+355145088+355060502
1918+355021313+354827574+354521278+354325445+354364821+354552540+354694152
1908+354671902+354529879+354396793+354355697+354381873+354403748+354431383
1898+354560505+354807194+355042441+355162102+355205143+355232404+355221971
1888+355136338+354986836+354817964+354697180+354674520+354705183+354681512
1878+354572770+354479322+354536012+354811719+355293543+355854942+356197323
1868+356041502+355508971+355019369+354817852+354875177+355068991+355265348
1858+355364368+355396714+355475466+355636410+355827158+356007697+356202783
1848+356491915+356902316+357283924+357430098+357360881+357254831+357205059
1838+357252662+357438399+357775657+358313834+359107638+359996087+360607295
1828+360767305+360678606+360634181+360813636+361229422+361725381+362116450
1818+362361457+362584064+362932765+363451497+364080617+364728771+365336912
1808+365910801+366502564+367173042+367972605+368889361+369768161+370419830
1798+370907076+371532943+372486420+373657681+374790239+375798835+376869692
1788+378157960+379586418+381000853+382410128+383955592+385668172+387412536
1778+389066070+390669420+392365023+394187017+395935457+397386427+398557650
1768+399577801+400621361+401977686+403814413+405923408+407939105+409790417
1758+411603324+413336209+414938625+416603713+418523531+420598609+422577360
1748+424370150+426023497+427603028+429249606+431071974+432944526+434713795
1738+436626695+439116662+442134485+444920427+446938554+448709880+450737206
1728+452900983+454973444+456981737+459117020+461615513+464645265+468089831
1718+471422139+474046239+476050979+478052616+480381264+482963856+485677815
1708+488559710+491629026+494789807+498208758+502395748+507467447+512472772
1698+516415616+519494018+522270536+525177486+528620893+532769068+537464432
1688+542504720+547976650+553910809+559528837+563989516+567758214+571729141
1678+576504828+582326094+588558846+593980069+598492912+603160417+608450050
1668+613668297+618335840+622907205+627883475+633199807+638442024+643484705
1658+648601502+654079153+660018547+666132049+671514643+675977191+680458736
1648+685364704+690207177+694295559+697731487+700942900+703992920+706912508
1638+709898883+712764176+714605017+715119038+715310197+715823320+716327992
1628+716294487+715777475+715084710+713950320+712073954+710160269+709040761
1618+708316586+706630033+703448236+699803125+696531133+693587612+690620308
1608+687396181+684034742+680998334+678762984+677407370+676624784+676246654
1598+676395707+676920946+677178293+676644752+675381951+673767718+672081091
1588+670367988+668597522+666894441+665446164+664377289+663977769+664607188
1578+666083735+667559011+668475991+669322970+670558997+672005853+673499078
1568+675318829+677803972+681031615+685008562+689807134+695683706+702958073
1558+711019961+718888896+727145384+736376215+746086514+755795317+765618846
1548+775186524+783362914+789412321+793668528+797187471+800839313+804351899
1538+806732488+807854464+808364446+809246874+811371462+814438010+817478607
1528+820207709+822876907+825415898+827391732+828786311+830347818+832814862
1518+836096277+839732114+843422996+846913818+849923677+852364919+854418085
1508+856377765+858621865+861373853+864142743+866241829+867527292+868580985
1498+870202322+872240381+873659041+874191983+874440954+874688130+874899781
1488+875535706+877119350+879226513+881003635+882223732+883387888+885062849
1478+887314652+889546487+890780720+890474985+889350916+888925071+889841303
1468+891697326+894054357+896578016+898665136+899786737+899982683+899503065
1458+898669025+898338236+899231583+900734231+901891432+902451821+902743720
1448+903136658+903558390+903537973+902911321+902352801+902754116+903951702
1438+904467218+903133667+901060907+900156865+900641493+901881410+903625999
1428+905674677+907268941+907605638+906767933+905678790+905074874+904962168
1418+904961644+904717610+904045636+903133891+902556973+902558170+902516139
1408+901741780+900486382+899725261+900100325+901139360+901686885+901108696
1398+899827871+898443538+896853462+894957277+893349476+892442593+891632036
1388+889652163+885995909+882376301+881603288+884678063+889797103+894207972
1378+896792883+898380641+899967874+901681351+903419732+905479778+907986984
1368+910382456+912064671+913187245+914407791+916157764+918215043+919870409
1358+920784622+921619036+923305365+925592169+927096612+927081356+926332948
1348+926157196+927197502+929312143+932024120+934671329+936408290+936874072
1338+936968380+937978920+939941368+941831943+942951301+943251950+942900744
1328+942390762+942456426+943280145+944344534+945292551+946263304+947167272
1318+947252530+946083737+944728422+944885254+946781438+948919638+950002200
1308+950111391+950121861+950921200+952629067+953910716+953096719+950448836
1298+947993234+946868118+946295314+945291654+943938807+942580799+941086303
1288+939478951+938270221+937556740+936570281+934595419+931788462+928888093
1278+926390386+924011816+921073605+917603873+914480859+912183435+910251950
1268+908231766+906168804+903950954+901191562+898011336+895136694+893017566
1258+891236779+888943917+885774535+882362913+879983895+879576149+880976711
1248+882935493+883949624+883489526+882551978+882564468+883567306+884114532
1238+883236591+881687649+880952629+881793176+883867656+886169567+887815435
1228+888670416+889169853+889789250+890958417+892963344+895524697+897763412
1218+898969076+899421396+900166811+901798245+903798161+905459735+907057514
1208+909563897+913353574+917554138+920756876+922335060+922907565+923510734
1198+924770170+926839116+929401815+931733118+933567453+935707448+938863517
1188+942338784+944877924+946489390+948342197+950921125+953326843+954647606
1178+955003598+954913104+954838540+955455544+957070076+958943749+960323520
1168+961605169+963668057+966601182+969238296+969952899+968738934+968017300
1158+970065231+974408416+978870665+982267329+984676487+986106142+986318317
1148+985644773+985301793+986435884+988841228+991003884+991659778+990998275
1138+990213894+990312316+991507509+993644811+996872827+1001275993+1005816247
1128+1008330258+1007421205+1004418153+1002676855+1004570796+1009251800
1120+1013722874+1016224546+1017583750+1019046087+1020586653+1021727101
1111+1022374469+1022640492+1023103506+1024823789+1027828188+1030260904
1103+1030693032+1030287454+1030592740+1031075948+1030894885+1030647261
1094+1030834307+1031013051+1031499923+1033105032+1034822323+1034727865
1085+1032975872+1031984178+1033712089+1037923198+1042875236+1046701634
1077+1048416009+1048592659+1049097779+1051218030+1054386365+1057127883
1068+1058587378+1058794617+1058086221+1057157499+1056657240+1056178220
1060+1055105455+1054364452+1055734351+1059377517+1063132044+1064540384
1051+1063201821+1060698430+1058763654+1058597998+1060963181+1065298514
1043+1069584935+1072362052+1073741823+1073679076+1071371779+1067572230
1034+1065258278+1066525193+1070100676+1072830452+1072658663+1068886038
1025+1061423428+1051961202+1044367040+1042009486+1044712637+1049569919
1017+1054119371+1057546249+1059862894+1061262633+1061762444+1061154041
1008+1059842402+1059016888+1059442509+1060924740+1062719586+1063519896
1000+1061817115+1057286434+1051278534+1045845158+1042728876+1042546541
991+1043939774+1044191587+1041810250+1037843923+1034243610+1032199270
983+1032339273+1034588534+1036825081+1035936221+1031644789+1026928708
974+1023749828+1020945413+1016979086+1012486174+1008769864+1005710346
965+1002101807+997267336+992163552+988550002+986978623+986207256+984492134
955+981125759+976869926+972840702+969262078+965990535+963690643+962979331
945+962855780+961726476+959572944+957569289+956305290+955678638+955719099
935+956441704+957253008+957412682+956922294+956247703+955292281+953478813
925+951062475+949197327+948458418+948515183+949301807+951134945+953385327
915+954326913+953035841+950471796+948114990+946645623+946203474+946480041
905+946403832+945327627+944291957+944562093+945547654+945454019+943700007
895+941393982+939446942+937338582+934167330+930548395+928528959+929448857
885+932446899+935064342+935341433+933799446+932679341+932897648+933384969
875+933574707+934104284+934760103+934168153+931680243+928071778+924919897
865+923944880+925782730+928908810+930760196+930241987+928568747+927461430
855+927203111+927290688+927996541+929508912+930414599+929427168+927780627
845+927319706+927559702+927168110+926989441+928691998+931322829+931945068
835+929815245+927657600+928197497+931012607+933081403+932071087+928739264
825+925686926+924425471+924525238+925238719+926622005+928872238+931957035
815+936095375+941069625+944894378+945134523+942223236+939489870+939499817
805+941703905+943621405+943254493+940288460+936054541+932871173+932623474
795+935239721+938813634+941572951+943348801+944639125+945312819+945257326
785+945177901+945777629+946849570+947838422+948477714+948526476+947834683
776+946827583+946057562+945367265+944016960+941553356+938656653+936743342
766+936505215+937634296+939727622+942062740+942971942+941201851+937723593
756+934902725+934205323+935155360+936236201+937016693+938549780+941088547
746+943119051+943820342+944513256+946171614+947530369+947057632+945428292
736+944436374+944153150+943070588+940930743+940156085+942839791+946709716
726+947340257+943924073+940061104+938973008+940277915+941348212+940398100
716+937807655+935424299+935002343+936868313+939780273+942477292+944885179
706+946630740+945541596+940115699+932048725+924339763+918681797+915870427
696+916641196+920316223+923562338+923249348+919975487+915896603+911056673
686+904491824+897787419+894466665+895473990+897610171+897161964+893732543
676+890083019+888628086+887365134+880516239+865530591+851413387+851926584
666+863014187+870770490+872030824+872380011+874510283+874131405+868662280
656+862700898+860943595+862084567+861714738+858882502+856660091+856629502
646+856666971+854415392+850286026+846278491+843826030+843480957+845315291
636+848958084+853411583+857012269+857705034+853540892+845034985+837062094
626+835113558+839448891+844470332+844355308+838634894+831719362+828280891
616+829514899+832879105+835241820+835665346+834689807+832823463+830965570
606+830476154+832178787+835903099+839271717+838221539
##END=
