##TITLE=<SNM>
##JCAMP-DX=4.24
##DATA TYPE=INFRARED SPECTRUM
##DATE=3/5/2025
##SAMPLING PROCEDURE=Instrument type and / or accessory
##ORIGIN=Admin
##XUNITS=1/CM
##YUNITS=ABSORBANCE
##RESOLUTION=4
##FIRSTX=4497.3318
##LASTX=599.83466
##DELTAX=-1.4281778
##MAXY=1.7187067
##MINY=0.18464836
##XFACTOR=1
##YFACTOR=1.6006704e-09
##NPOINTS=2730
##FIRSTY=0.20515682
##XYDATA=(X++(Y..Y))
4497+128169310+127631650+126986318+126798540+127254166+127834286+127804757
4487+126972168+125927895+125573163+126230187+127252872+127775563+127657642
4477+127368969+127325262+127730552+128615301+129604929+130023337+129579273
4467+128694030+127998680+127786958+128040953+128630867+129264450+129501149
4457+129156974+128567116+128152432+127887526+127480886+126891196+126381957
4447+126153087+126084673+125876935+125469885+125190242+125263414+125384947
4437+125156636+124657377+124103881+123351930+122290276+121351356+121075921
4427+121406625+121806917+121935023+121935097+122048829+122129737+121834054
4417+121277933+121027848+121311950+121786828+122115382+122142518+121698091
4407+120940647+120527993+120717838+120811555+120204354+119372231+119111365
4397+119393623+119599090+119463192+119252233+119219958+119317948+119338810
4387+119051692+118306741+117258725+116371826+116049705+116349576+116997748
4377+117557871+117697260+117425660+117026653+116851908+117203949+117965703
4367+118327408+117626444+116398423+115696304+115637823+115632898+115635570
4357+116061555+116824091+117443981+117792029+117985811+117909754+117432642
4347+116870461+116744627+117145040+117657434+117863282+117630586+117034138
4337+116341356+115976840+116146112+116521110+116563998+116177643+115875089
4327+116194669+116961134+117328499+116764251+115784407+115356895+115758341
4317+116487941+117152310+117784562+118354647+118669023+118781517+118894262
4307+118879376+118474672+117891601+117732095+118300569+119264959+120009054
4297+120203749+120002407+119735508+119569337+119506899+119521245+119592201
4287+119726450+119946970+120183771+120253721+120020448+119536671+119089246
4277+119134722+119943926+121165235+121980238+121943690+121484302+121291292
4267+121511765+121957300+122636127+123493916+124053723+123926744+123350273
4257+122810164+122504874+122411465+122497278+122734172+123142330+123781918
4247+124573434+125248919+125591297+125603195+125368851+124922832+124397032
4237+124103341+124208071+124461145+124497377+124248874+123911951+123720095
4227+123825616+124190514+124536449+124581059+124385572+124342433+124750377
4217+125472836+126154819+126659636+127062068+127373540+127537291+127521251
4207+127276164+126836215+126452773+126367044+126548566+126863268+127309855
4197+127916311+128534748+128884118+128819818+128551449+128458877+128622004
4187+128734424+128597949+128450275+128603199+128996853+129324048+129381878
4177+129190739+128977518+128998380+129234092+129464628+129686814+130080608
4167+130571256+130882848+130956215+130925141+130881387+130955768+131311124
4157+131815494+132030818+131734540+131245456+131096050+131531438+132422024
4147+133472340+134334886+134737030+134723373+134536395+134171730+133471418
4137+132671039+132313943+132612819+133310125+134103056+134883326+135570801
4127+135926994+135695807+134929025+133994676+133251820+132941708+133289961
4117+134313977+135579356+136472940+136683889+136288075+135575139+134921848
4107+134615888+134686545+134999665+135469525+136050362+136600217+136884133
4097+136673854+135906737+134907540+134294027+134384802+134857800+135263491
4087+135668558+136494761+137875036+139356289+140176068+139897403+138881002
4077+138001969+137845144+138286387+138783673+138922400+138703845+138414707
4067+138294868+138339031+138335093+138093693+137737919+137649620+137977466
4057+138424323+138694573+138847358+139042425+139286162+139553433+139870620
4047+140245265+140640297+140939573+140977369+140791769+140676528+140734088
4037+140681825+140432410+140476322+141238002+142362671+143079852+143097772
4027+142762422+142453371+142238326+142136724+142273459+142640517+143092187
4017+143637573+144260218+144437021+143550131+141979396+141084975+141775494
4007+143500307+144891977+145212991+144897600+144740263+144922847+145032008
3997+144804069+144472248+144361634+144482823+144684444+144946874+145314034
3987+145698127+145960185+146104265+146219924+146274673+146157468+145972650
3977+146071208+146590026+147130004+147157159+146622264+145941268+145505518
3967+145509939+146080825+147148148+148254589+148915067+149177869+149410807
3957+149585301+149316495+148654564+148320034+148919601+150157350+151050198
3947+151045208+150654636+150566057+150601833+150161148+149313916+148747695
3937+148969759+150157853+152276125+154713232+156164863+155717037+153978046
3927+152412143+151807782+151856265+152086689+152662229+153869760+155315815
3917+156049287+155437441+153800564+152094034+151092872+151052684+152151631
3907+154835305+159093092+163497185+166047456+166345280+165280628+163085880
3897+159989282+157587849+157591870+159755916+161675555+161556786+160960524
3887+162111008+164212998+164918198+164476079+164656717+164723000+163095301
3878+161210368+161417314+163649337+166483058+169177121+170891284+170483108
3868+169002943+168673226+169358597+168858295+166320685+163470709+162439925
3858+164513968+170223526+178091787+182227436+178202475+170908171+165607832
3848+163533994+164308418+167019033+170520996+174114135+177593570+180189140
3838+180570413+178803634+176466490+174406597+172487573+170928186+170392360
3828+170853041+171841524+174058559+178714971+184217695+186219293+184303955
3818+182240078+180716625+177714889+173695979+171167492+171615587+174926523
3808+179246869+182329243+184760373+188395795+191790403+191682117+189040559
3798+186872268+185110850+182669908+180382234+179692041+180667751+182491672
3788+184665380+186987163+189153797+191406188+194695285+199019262+202593856
3778+204165270+204948594+206886386+210984575+217226589+224336958+230416413
3768+235012725+239030034+243054437+247859948+254886645+264494129+274695251
3758+283218180+290717624+299881556+312408817+327140117+339939545+348406340
3748+355526745+364708830+375529208+384194961+389802898+396050535+405960908
3738+420243535+437256774+453184285+464477428+470508828+473321212+475452601
3728+477854407+479536937+479705324+479635504+480927191+483657319+487563474
3718+493167167+501226138+512272770+525543213+537095415+542754517+544421072
3708+546939431+552324205+560345083+569784776+578062255+582892306+584826411
3698+586035283+588429083+593237349+600852154+610687419+620324879+625473681
3688+624864255+622290376+620063697+618071836+617102810+618395205+621666279
3678+625251747+626642411+624265331+620853575+619600688+619606162+618247373
3668+615525215+613994277+615675988+620853723+627847187+634160026+638697838
3658+641851167+644012867+645988157+650017754+658038371+668151054+673416334
3648+670474810+665968501+665664794+667994955+668778056+667044585+665225617
3638+665082998+666207118+668313408+672353730+678815817+686483647+692874760
3628+696015279+696471585+695893886+695553835+696520441+698729953+700570444
3618+701483130+703263446+706968929+710853748+712595337+712312855+711334184
3608+710199414+709442305+710039890+712117657+714455340+715784712+716166617
3598+716274754+716289798+716611454+718274621+721351316+724153869+725060225
3588+724307883+723109661+721697474+719857355+717822858+715963451+714784964
3578+714861897+716378274+719035602+722444901+726335305+730128967+733119271
3568+734909343+735100072+733915628+732206138+730143340+727195487+723249971
3558+719140239+716500115+717096582+720946919+725471027+728320277+729616805
3548+729475005+726519853+721054683+716279148+714785560+716574887+719967950
3538+722934944+724000601+723209457+722049217+722008852+723373450+724910234
3528+725203515+724607420+724545680+725079142+725080855+724401349+724012740
3518+724468152+725436694+726465785+727570988+728772188+729134433+727448030
3508+724641902+723706128+725838559+728314542+727903293+725412714+724148805
3498+725448313+728021261+730323048+731582115+731174590+729160946+726904812
3488+725681120+725569930+726065186+726608925+726970127+727835224+729639296
3478+730526438+728351705+724605781+722956318+724618442+728125823+732177093
3468+735827019+737648146+737514464+737014218+736265376+733414563+728256899
3458+723510707+721855434+723171252+725319620+727224308+729664543+732644868
3448+734280702+733649158+732412507+731777983+730531204+727503514+724130038
3438+723138781+725338388+728753868+731156493+732392622+732931521+731672751
3428+728045987+724342514+722973224+723756622+724980835+725347102+724516784
3418+723281251+722671750+722452646+721899598+721495201+722138214+723271048
3408+723672615+723605960+724289115+725727965+727037526+728787307+732474842
3398+737198841+739463018+737793372+734621126+731908910+729049532+726123723
3388+725135445+727314348+731460945+735134256+736497662+735046972+731625981
3378+728030421+726007468+726526258+729699397+734385041+737676223+736632536
3368+731788038+727093978+725735561+727526377+730193983+731932593+732649411
3358+733588089+735736904+738472878+740186241+739839859+737456374+734214271
3348+732292454+732967194+735050621+736801593+738302182+740376076+742598547
3338+743624658+742522583+739295599+735178270+732329840+731994481+733148540
3328+733813970+733571481+733778893+735272406+737139559+738149211+738362357
3318+738745827+739948890+741928499+743920918+744525056+742992890+740459041
3308+738594495+737536360+736529165+735800729+735985426+736079785+734286511
3298+731050516+729021008+729742890+731557241+731364798+728479727+725776075
3288+726407396+730424259+735345317+739007084+740668985+740482947+739575549
3278+739701411+741287124+742558480+741752739+739031363+735341593+731440613
3268+728785966+729327322+733538563+739416769+743623988+743651916+739865478
3258+735425601+733241037+733421414+734444844+735911175+738614305+742223046
3248+744477020+743356848+739385564+734955666+731963947+731050367+732307051
3238+735106030+737548127+738090749+737346822+736503471+735718733+735298249
3228+736192317+738194417+739313175+737913871+734627754+731762269+731400025
3218+733727058+736676401+737785477+736751919+735263693+734264541+732827331
3208+730133137+727168750+725484209+725339877+726048652+727336914+729336334
3198+731652270+733333907+733608197+732254770+729824664+727891675+728002121
3188+729770744+730973434+729921630+727002746+724033146+722727904+723196573
3178+723522325+721966774+719462789+718145631+718388939+718925827+718873322
3168+718403313+717839242+717000584+715591301+713611766+711262167+709261407
3158+709014747+711016475+713393034+713871310+712632425+711177266+709830244
3148+708473465+708030416+709194454+710875644+711261720+709667666+706835248
3138+704251500+703339037+704437910+706356376+707390530+706812831+705049198
3128+702913341+701365758+701240120+702248208+702829333+701751760+699410874
3118+697066563+695519204+694925120+695240148+696289272+697391794+697551095
3108+696460340+694740125+692990270+691345424+689931226+689124368+689228558
3098+689985518+690540577+690038544+688329575+685889787+683174369+680660329
3088+679228257+679601449+681349517+683022962+683447243+682601584+681203547
3078+679822490+678619949+677655428+677017479+676683907+676526766+676337600
3068+675780530+674792401+673960967+673979138+674939637+676293883+677080186
3058+676336930+673976681+671070533+668788184+667566652+667372943+667761254
3048+667747253+666846035+665851353+665381567+664675399+663208323+662170743
3038+662647008+663640276+663364571+661587756+659500605+657876091+656528324
3028+655242371+654467239+654758435+655748054+656339978+655960008+654950803
3018+653814693+652961140+652826787+653229844+653022879+651258650+648492738
3008+646294545+645557396+645779330+646061142+645999849+645151509+642956221
2998+640096620+638293069+638092583+638453785+638585084+638422208+637588316
2988+635746857+633504948+631716961+630500568+629449135+628304758+627343217
2978+627239250+628241306+629545207+629992353+629270471+627989954+626847737
2968+626142537+625840841+625670443+625261875+624436101+623250949+621801524
2958+620169488+618410659+616530175+614843660+614009805+613929671+613369733
2948+611715950+610099032+609721521+610227278+610515234+610083206+609148662
2938+608293842+607992779+608050050+607799852+606773518+604772199+601905188
2928+599091425+597782460+598551410+600288158+601138732+600162445+597866467
2918+595256803+592910145+591021432+589786569+589454784+589957562+590551237
2908+590206903+588627371+586606950+585136710+584536146+584490345+584493137
2898+584245956+583769133+583133715+582268097+581041426+579402873+577652533
2888+576436810+575941591+575480817+574504120+573324628+572226761+570803328
2878+568834033+566909386+565663016+565072805+564776284+564609461+564547312
2868+564255670+563144546+561184821+559265313+558237600+557947708+557579468
2858+556680709+555486955+554364325+553383681+552480751+551649205+550880850
2848+550157292+549502325+548908688+548299002+547661648+546996404+546027340
2838+544354715+542067377+539908842+538593732+538020613+537348405+535987866
2828+534347675+533280491+532942562+532659112+531967988+531230131+530873546
2818+530586037+529798170+528613652+527655946+527139092+526654113+525862634
2808+524881469+523902128+522867936+521760052+520912643+520636677+520617984
2798+520149427+518997044+517565642+516193113+514759216+513063020+511248818
2788+509657780+508474416+507720323+507391555+507385821+507335737+506714358
2778+505268322+503278844+501280467+499682391+498815395+498925133+499635025
2768+499823372+498726435+496868852+495299226+494381475+493817367+493259292
2758+492440704+491194111+489698252+488385153+487420334+486531405+485413467
2748+484077914+482715364+481388636+480036326+478655046+477268366+475886788
2738+474688715+473918945+473411140+472650717+471522799+470508120+469929378
2728+469456799+468569137+467179105+465613463+464177779+462916961+461726522
2718+460524762+459233187+457733231+456043551+454485952+453445505+452947903
2708+452685380+452445274+452207141+451818570+450993205+449739462+448454403
2698+447474466+446749940+446028169+445218035+444484832+443964367+443469669
2688+442616376+441245634+439630131+438234924+437343090+436900562+436593727
2678+436000723+434843797+433305822+431950347+431152463+430759349+430375991
2668+429755283+428881137+427919744+427134596+426654309+426318243+425876459
2658+425270720+424560419+423676144+422517171+421271136+420322739+419774159
2648+419313273+418615334+417696132+416836471+416206379+415621977+414792218
2638+413733524+412738171+412050808+411739206+411677765+411571229+411221906
2628+410689747+409994415+408993961+407762262+406638329+405769173+405049302
2618+404441477+403905781+403206763+402223884+401253703+400702591+400661444
2608+400907992+401114734+401008310+400513054+399766148+398926707+398073899
2598+397317758+396785525+396398481+395880510+395089105+394168674+393371312
2588+392900185+392825152+392961552+392982145+392771605+392450172+392034120
2578+391407900+390636939+389984989+389614813+389436223+389183828+388640052
2568+387920813+387423435+387334549+387389102+387281710+387104944+387189808
2558+387610552+388011300+388007018+387674935+387428946+387444846+387498505
2548+387334624+386897793+386244762+385494394+384838533+384425050+384220021
2538+384030521+383692965+383298808+383178233+383537573+384168299+384624418
2528+384622668+384215590+383706445+383428505+383422436+383319177+382772719
2518+381977442+381486803+381553086+381894291+382093511+381996359+381703860
2508+381378815+381139454+381032546+381003985+380909439+380613291+380080760
2498+379372432+378623143+378037847+377787501+377871657+378117051+378275608
2488+378140213+377679550+377081370+376575799+376235897+376018133+375914949
2478+375956804+376090560+376137293+375944739+375593740+375345255+375342500
2468+375490779+375627253+375642297+375468101+375128311+374743910+374372803
2458+373990264+373685701+373613497+373706032+373717129+373573207+373407650
2448+373265329+373063354+372826040+372703157+372741772+372781802+372584891
2438+372043759+371305716+370686162+370418872+370484559+370662143+370712972
2428+370547192+370250187+369945884+369670849+369415029+369190860+368978794
2418+368698583+368331051+368000682+367873889+368004070+368280408+368508897
2408+368571343+368535894+368598899+368889462+369290805+369491887+369333889
2398+369037629+368889350+368859076+368811599+368861050+369151240+369483062
2388+369464071+368879259+367766571+366266913+364449509+362232252+359521711
2378+356367302+352883343+349213905+345681947+342623796+339907856+337016454
2368+333815983+330914117+329086324+328613262+329283086+330803225+333058949
2358+336159364+340353773+345823262+352541467+360066307+367231732+372492953
2348+374837190+374433202+372600866+370653765+368650733+366106681+363124643
2338+359909202+356182009+351791024+347335730+343738420+341414664+340069019
2328+339168175+338375690+337638876+337202008+337487879+338666179+340362412
2318+341971287+343174983+344042091+344771085+345506522+346334493+347296854
2308+348348584+349331091+350074980+350593621+351091670+351668029+352133384
2298+352330034+352489968+352972601+353734290+354342263+354481605+354266523
2288+354072665+354154699+354408657+354511023+354319362+354046525+353962554
2278+354050360+354096534+354007686+353859928+353712134+353537565+353276159
2268+352860628+352313501+351872239+351827665+352163918+352529030+352611622
2258+352411472+352128692+351932191+351876819+351941872+352068256+352187564
2248+352278460+352388422+352559267+352756736+352920394+353029276+353077610
2238+353056347+353004997+353017732+353157186+353401984+353703085+354055350
2228+354461907+354831859+355008848+354960886+354839009+354786392+354835173
2218+355041468+355490773+356085379+356571474+356860957+357108846+357436385
2208+357792150+358103826+358392415+358704539+359020162+359276317+359485554
2198+359768706+360214958+360785396+361418579+362124598+362902262+363664026
2188+364303800+364784571+365141788+365426355+365658530+365853989+366086238
2178+366476410+367116184+368006900+369033645+370000325+370764993+371364774
2168+371965188+372699992+373630999+374850632+376493914+378571607+380902885
2158+383329193+385927165+388891739+392228536+395643941+398794999+401630917
2148+404339782+406936749+409183983+411032181+412822849+414910037+417341521
2138+419970363+422662061+425367425+428117847+430989774+434068107+437371875
2128+440734105+443878646+446708830+449298759+451519107+452998247+453549806
2118+453335506+452549836+451178796+449109035+446349676+443120420+439756254
2108+436523050+433483854+430498986+427372952+424052502+420695633+417529979
2098+414634592+411849913+408935796+405841153+402727742+399726788+396865250
2088+394231754+391955922+389994670+388169521+386412144+384804759+383440384
2078+382369104+381572896+380909141+380197090+379403414+378649172+378037885
2068+377561024+377172006+376885837+376742101+376657423+376421525+375938930
2058+375365475+374911478+374636406+374489766+374383565+374199613+373889835
2048+373571159+373414650+373494450+373805195+374313447+374934267+375557918
2038+376158779+376809985+377576626+378486408+379611347+380992404+382395505
2028+383368404+383712477+383690879+383622474+383500895+383121744+382343075
2018+381117931+379491368+377687519+376067361+374894051+374141709+373528894
2008+372760428+371773789+370728798+369767555+368907224+368164191+367561840
1998+367017989+366514765+366277749+366395456+366453882+366008784+365178504
1988+364353512+363708636+363283609+363107067+363059553+362914923+362577330
1978+362158522+361875518+361859581+361981868+362009535+361971181+362076376
1968+362215755+361940274+361136954+360321159+359973958+359963420+359893265
1958+359687752+359488384+359266114+358897875+358429094+358018776+357780905
1948+357839069+358389474+359444071+360454431+360542981+359472856+358014606
1938+357037015+356756990+356925229+357225585+357432401+357464983+357370847
1928+357307060+357553385+358213267+358900221+359278105+359728229+360592954
1918+361144960+360450633+358941591+357884871+357832702+358365605+358798190
1908+358771454+358373760+357883903+357446439+357029121+356630830+356423381
1898+356622415+357160047+357654856+357989545+358577336+359536420+360106784
1888+359632529+358577485+357747316+357292202+356988606+356779817+356694506
1878+356654327+356547791+356436266+356813777+358448532+361411951+364181401
1868+364598533+362475262+359799464+358170146+357640818+357558039+357521212
1858+357517488+357610879+357778819+357994907+358342666+358941926+359929832
1848+361672165+364418975+367150517+367692841+365579550+362999042+361724670
1838+361608378+361685161+361669484+362388276+364647724+367693213+369535827
1828+369572990+369106741+368699998+367633634+365906940+364609853+364361406
1818+364757425+365224641+365840658+367088964+368899814+370345142+370662963
1808+370230005+370037041+370781824+372651286+375226580+377442386+378365498
1798+378344050+378881943+381257608+385147975+388113256+387796106+385304632
1788+383624820+384100899+386103856+388570008+391004509+393075759+394420137
1778+395459133+397514892+401587871+407046859+411319579+412233010+410682449
1768+408749423+407648651+408232718+410814976+414166408+416446634+417660458
1758+418983984+420514362+422137387+424956512+429824991+435351006+438753714
1748+439173006+438261586+437818722+438720386+440990633+443754348+445881790
1738+447843451+451657854+457805360+462818729+463093280+460639379+458600935
1728+457773782+458269858+460069574+462703964+466336463+472407595+481752184
1718+491823049+497049937+495680498+491920127+489535822+489746027+492673735
1708+497919615+504123386+509581071+514603080+521323370+530013960+537268755
1698+540724078+541570184+540387714+538237707+538071963+541372678+547142225
1688+554421485+564085383+575914408+584293806+584774316+582262958+582351844
1678+586497919+593608605+601067274+606997463+612549061+619012749+624308786
1668+625941754+626346002+629546920+635873091+642054930+645497593+647824552
1658+652435125+661531006+675677085+691397258+699356061+699371626+701026303
1648+706879262+712247987+712444600+709978821+709219105+711225972+716024818
1638+723921956+732766857+735967105+730972541+724427936+721570420+722388523
1628+724707365+726933932+728412997+727857268+724438213+720547735+719315552
1618+720185043+718783282+712637862+705231437+700026407+696991716+694485422
1608+691363596+687809221+684624315+682258256+680569619+679150059+677850924
1598+677000871+676885435+677078473+676655458+675148390+672995105+670991292
1588+669607479+668870106+668526331+668191717+667840495+668399948+671211364
1578+676301480+680838100+681213750+679086904+679135090+682544537+686622543
1568+688810681+690134467+692542231+696853193+704484382+717847286+735939103
1558+748567687+750381218+749732321+751955090+757161907+764279296+772271165
1548+780489959+789230447+799279752+810911568+823369456+832996862+833299676
1538+826002059+820491385+820334243+822887084+824098413+823631979+824428485
1528+828032311+833700647+840577632+848613963+856324691+860487374+860999238
1518+861036699+861446384+861041465+860390036+861818682+867004721+875838377
1508+885231188+887904156+881201666+873928848+872061174+874848982+879594355
1498+883672807+885185908+884405861+884205822+886965851+891820105+894996820
1488+893946132+890451560+887420071+886058303+886382715+888056904+890860873
1478+894913036+900227171+905869292+909395292+908281674+903682346+899737500
1468+898724422+900237076+902497157+903702156+904225861+906441704+911583878
1458+917179899+918040528+913732544+909081680+906493836+905806659+906117069
1448+905967226+904425826+902409426+901589162+902678502+905523209+909741450
1438+914221917+916591252+915674321+913676614+912714849+912455305+912039215
1428+912039290+913264025+914939331+915774265+916110667+917252288+918612344
1418+917643578+914179764+911103293+909926594+909440350+908102264+906462259
1408+906294840+907826559+909039751+908206976+906187522+904839011+904688349
1398+905366961+906668405+907709113+906632731+903151267+899415696+897020592
1388+895099446+891842075+887608790+885190302+886538441+890695837+895196709
1378+898945686+902673736+906663787+909804530+911534128+912902897+914839609
1368+917118755+919337875+921591626+923746846+925042406+925136468+924789565
1358+924688875+924559066+924033275+923771944+924938738+927607684+930509885
1348+932489569+933464218+933861987+934151469+935183687+937773765+941426521
1338+944391727+945414710+944736843+943545025+943066452+943549643+943939890
1328+943321900+942315897+942180949+943144129+944324849+944882366+944989758
1318+945723705+947795440+950544521+952548335+952919367+951838741+950246920
1308+949030899+948441954+948486043+949254695+950203055+949981642+947830369
1298+944549315+941703641+940330329+940278271+940388717+939612915+938010296
1288+936240333+934450485+932297871+929766181+927343374+925403757+923735228
1278+921839254+919509092+916888182+914269506+911991775+910172807+908566390
1268+906941652+905401219+904093371+902947430+901761497+900137727+897632401
1258+894465890+891533825+889335782+887563807+885917993+884543713+883569735
1248+882898420+882367119+881751214+880983976+880527298+880971167+882275143
1238+883972642+885880607+887941543+889727444+890761151+891102245+891270557
1228+891700797+892346417+892897530+893388168+894253340+895595223+896917520
1218+898026521+899637853+902420001+905844418+908812529+911170692+913556337
1208+915945185+917575806+918257174+918611152+919108568+919813098+920921429
1198+922873110+925921579+929715464+933178831+935253619+936194680+937306586
1188+939187516+941196916+942726699+944135460+946015199+948310655+950573641
1178+952416812+953529240+953924253+954277560+955315215+956835986+958085372
1168+959082587+960815984+963916287+967667721+970697199+972434171+973512414
1158+974982989+977412500+980231587+981938619+981822439+981333811+982449217
1148+985024474+987156757+987780705+987709135+988335317+990352015+993491194
1138+996636480+998497526+998892316+999170180+1000617520+1002595491+1003524412
1128+1003563586+1004205930+1005746139+1007615824+1010271886+1014296866
1120+1018583698+1021247878+1021271859+1018869011+1016009782+1015571871
1111+1018004360+1020518697+1021113750+1021473015+1024167134+1029067786
1103+1033877058+1036584359+1036442410+1033855386+1030566885+1028956670
1094+1030209928+1033465511+1036839285+1039236697+1041027364+1043361175
1085+1046845171+1050147003+1051078010+1049898928+1049240498+1049909354
1077+1049661726+1047425180+1045592583+1046368087+1048840569+1050849373
1068+1051676637+1052053255+1052793532+1054194176+1056107056+1058190558
1060+1060062328+1061115176+1061003091+1060463225+1060437606+1060891379
1051+1061435416+1062294779+1063918325+1066399074+1069572958+1072647419
1043+1073741823+1071503861+1067555590+1065216566+1065493314+1066409575
1034+1066245358+1065322693+1064204456+1062589251+1060710853+1059500045
1025+1059246608+1059627471+1060530401+1061566789+1061442268+1059279749
1017+1056029454+1053665109+1053319844+1054614958+1056273060+1057034787
1008+1056781349+1056271720+1055914837+1055825096+1055789497+1055219245
1000+1053918397+1052199746+1050124214+1047705800+1045944178+1046108171
991+1047612930+1048244922+1046784549+1044241763+1042103299+1040164204
983+1037060177+1032429793+1027669153+1024364194+1022449526+1020873271
974+1019442986+1018275299+1016362344+1013114581+1010093743+1008496709
965+1006618609+1002543135+997385769+993115395+989307211+984462340+978817687
955+973978997+970849053+968874806+966731352+963594333+960045320+957499704
945+956734031+957141928+957391492+956557898+954655966+952558389+951548736
935+952371457+954236227+955432513+955475484+955611922+956671174+957780399
925+957822030+956878511+955521212+953802040+951535257+948900866+946390774
915+944527271+943659344+943613393+943794888+944008928+944652388+945763251
905+946711313+946935929+946296266+945142878+944421070+944760823+945327352
895+944670858+942548481+939670261+936406784+933169075+931090563+930846212
885+931454074+931384514+930692050+931107469+933632605+936795020+938087378
875+936861675+934632128+932986463+932296605+931822574+930476818+927950640
865+925258159+923767252+923671254+923923500+923907339+924568227+927242237
855+931531825+934968083+935218467+932529413+929663481+929251636+931089074
845+932545201+931834639+929788375+928060341+927178412+926866885+926883642
835+926895185+926206072+924305257+921841116+920691228+922501109+927077797
825+932417775+936244206+937546096+937095897+936643017+937079811+937611559
815+937555480+937930907+939810571+942155404+943011787+942262722+941425255
805+941149997+940568201+939023449+937176330+936228789+936809617+938366806
795+939696848+940449712+941043945+941292318+941137262+941990219+944946637
785+948146513+948804869+947731988+948152769+950603579+952148034+950523966
776+946826376+943688166+942334068+941829950+940791997+938901534+936542104
766+934279715+933487007+935962543+941844621+948738735+953325552+953615034
756+950284530+946107026+943157906+940763101+937417032+934107529+933465856
746+936212331+940470193+944137471+946270126+946818557+946926694+948331136
736+950629571+950588163+946418702+940914434+938403001+940557179+945399443
726+948784984+947871255+944194072+941568693+941620080+943021320+944321200
716+945714694+947446824+948180325+946741922+944453020+943800175+944859353
706+944914390+942692366+940090744+938456176+936790626+934099486+930686539
696+927106842+923942342+921897269+920806887+919491516+916828677+912153981
686+905730546+899658930+896625728+897284009+899973362+902583622+903950603
676+904224744+903960434+902181161+896370504+885884107+876006317+874082415
666+876872680+876189748+870555521+864266141+861943800+864160313+868001564
656+870711769+871804907+872086942+871414958+868322996+862840846+857958589
646+856575074+858045278+858938973+857559554+855467935+854200377+853372294
636+851715309+849180268+845695676+839941991+832657407+827739849+827526852
626+830107546+832775822+835471951+839641859+844735400+847269398+845010807
616+841295418+841771832+847109352+851118395+847372322+837507714+828930772
606+825563776+824109957+819716104+813434321+809931259
##END=
