##TITLE=<SNM>
##JCAMP-DX=4.24
##DATA TYPE=INFRARED SPECTRUM
##DATE=2/5/2025
##SAMPLING PROCEDURE=Instrument type and / or accessory
##ORIGIN=Admin
##XUNITS=1/CM
##YUNITS=ABSORBANCE
##RESOLUTION=4
##FIRSTX=4497.3318
##LASTX=599.83466
##DELTAX=-1.4281778
##MAXY=1.8012383
##MINY=0.28105614
##XFACTOR=1
##YFACTOR=1.6775339e-09
##NPOINTS=2730
##FIRSTY=0.30047902
##XYDATA=(X++(Y..Y))
4497+179119496+178445382+178288494+178039687+177379608+176627574+176431301
4487+177105184+178285598+179364323+180022022+180214600+179959078+179382888
4477+178899203+179079523+180046094+181057860+181180052+180374757+179428066
4467+178896840+178614101+178248060+178019026+178501645+179682522+180694839
4457+180922273+180807366+180890864+180785194+179924098+178549985+177254183
4447+176324157+175976414+176401188+177255853+177763984+177511731+176808090
4437+176208041+175848306+175461177+175105955+175365740+176360878+177140946
4427+176771245+175595964+174739966+174786921+175438277+176058348+176187984
4417+175830754+175537924+175914181+176780998+177229916+176735607+175712879
4407+174780188+174155426+173978108+174442287+175347211+176104254+176294559
4397+175869163+175032547+174236313+173911150+173992712+174086798+174080385
4387+174128032+174170385+174000173+173723954+173658915+173772472+173638129
4377+173018697+172159750+171479081+171260707+171636395+172554537+173685598
4367+174568795+174886106+174559077+173740299+172732974+171822347+171152674
4357+170735965+170586841+170873950+171756312+172908053+173544629+173251568
4347+172524726+172191018+172470914+172795828+172528848+171689905+170731009
4337+169803398+168787404+167892748+167541256+167724952+168063493+168357548
4327+168624831+168773440+168636112+168288849+168063226+168127093+168235588
4317+168163868+168161719+168502977+168879536+168834482+168474765+168248557
4307+168360746+168732863+169188816+169518847+169669890+169854065+170234479
4297+170634791+170790559+170788036+170952901+171281013+171363800+170967220
4287+170231441+169330177+168461299+168032545+168230169+168625222+168824694
4277+169136923+169920242+170782280+171088647+170834369+170456478+170171571
4267+169995515+170062242+170408546+170659982+170453315+170155209+170537666
4257+171638278+172680565+173176846+173217192+172756939+171766297+170926625
4247+170976689+171584164+171862994+171625185+171323419+171197692+171127447
4237+171016626+170989817+171280675+171862337+172276132+172161367+171781486
4227+171661462+171974242+172499250+172854615+172766124+172458780+172545156
4217+173147853+173564046+173189477+172341652+171784577+171825083+172153657
4207+172343446+172385124+172672908+173337038+173839395+173628074+172971050
4197+172608633+172722208+172763015+172261671+171434827+170894416+170968588
4187+171458633+171962695+172249626+172316158+172325610+172538690+173068370
4177+173703915+174139313+174281882+174297995+174497147+175026667+175552794
4167+175544799+174999024+174487216+174346406+174342142+174300820+174487855
4157+175060350+175643434+175831269+175714496+175535899+175226316+174706052
4147+174281899+174284813+174552931+174645827+174434754+174217268+174282841
4137+174560161+174802199+174956564+175042532+174861909+174373925+174131265
4127+174661691+175588645+175986042+175515007+174763630+174512017+174975005
4117+175756352+176329184+176396498+175908709+175049265+174197548+173626652
4107+173265798+172956020+172814180+173105287+173808980+174521006+174846879
4097+174765122+174520402+174271737+173978535+173519064+172832496+172083216
4087+171637283+171705325+172158222+172798991+173562412+174383625+175107678
4077+175553860+175563098+175136334+174567587+174154094+173826248+173417871
4067+173143838+173304367+173614714+173422508+172671398+172091353+172293543
4057+173167661+174173174+174729964+174430242+173400923+172373896+172024252
4047+172373577+173005426+173584015+174008150+174283445+174405423+174339779
4037+174084613+173718536+173351411+173148475+173400319+174242033+175220329
4027+175579886+175234755+175002879+175468177+176102762+176083238+175563524
4017+175455616+176185798+177261521+177857235+177443244+176140212+174772975
4007+174240221+174643517+175392673+176057247+176553652+176706418+176379816
3997+175949108+175989542+176558875+177214069+177588229+177624347+177434060
3987+177182144+177006087+176950446+176948314+176808001+176402556+176059876
3977+176440237+177681765+178923080+179105656+178151895+176941527+176281413
3967+176364591+177089621+178309813+179640897+180519937+180709549+180470069
3957+180165088+179959629+179933389+180291241+181250634+182550984+183360898
3947+183255175+182962843+183353703+184108082+184193996+183397779+182533094
3937+182412661+183290706+184874843+186333324+186613629+185458424+183941583
3927+183413804+184128494+185155130+185654129+185864829+186461520+187464830
3917+188061682+187300836+185116064+182644822+181275435+181461884+182803095
3907+185183235+188948965+193619760+197375594+198714904+197655935+194943330
3897+191624244+189136871+188520175+189423749+190154677+189699506+189515704
3887+191185790+193528676+194201032+193735645+194141677+194681839+193557883
3878+192022175+192529524+195214468+198575302+201529359+203050837+202224703
3868+200508746+200276852+201311056+201285189+199287559+197005182+196439172
3858+198672018+204060951+211206328+214769637+210764055+203833747+199030616
3848+197462912+198403723+200720440+203648843+207085377+210863791+213651757
3838+213533243+210641171+207229757+204689105+202959362+201976571+202019528
3828+202815248+203805802+205644643+209535638+214230968+216117545+214851483
3818+213370582+211934592+208843332+204927128+202725692+203537311+207013835
3808+211196469+213863238+215484541+217837695+220155656+220366693+219400709
3798+219248760+219465980+219118308+219016458+220296484+222848915+225968990
3788+229489217+233754550+238813470+244378921+250662172+258195229+266678265
3778+275327497+284472850+295307458+308381344+322909661+336639309+346949087
3768+353186290+356305815+357196757+357367484+358435656+359922953+360150032
3758+359794686+361833887+368091307+377900879+388655116+397342970+403715724
3748+410431886+419136440+428524150+435660219+440970201+448113483+459572266
3738+475256339+492168153+505889949+514850221+521502746+528481803+536581972
3728+545790677+555402838+563798591+570036113+574434155+576650727+575878388
3718+573171912+571151115+571353465+572503714+571399726+566890686+561811407
3708+558685451+557268399+556626849+556690237+557690296+559194328+560296645
3698+560529160+560524719+561891103+566118595+573032381+579560832+581290273
3688+578147937+574811353+574205050+576002533+578915552+582364521+586823782
3678+591877017+593681962+589110671+583117745+581390187+582386337+580804314
3668+575388733+569259368+564955413+563261858+563743909+565439702+567445576
3658+568457004+566989640+564106113+563401815+566768530+572037901+573841069
3648+569402487+562186758+556369533+553284829+552212322+551910165+552067142
3638+553236151+555327583+557497220+559918061+564003286+569742946+573705234
3628+572754386+569121791+565993384+564585499+566012606+570463126+575269455
3618+577537726+577836507+577791027+577781434+578761524+582343309+587830592
3608+592083701+593407342+593363177+594201533+596407198+598993295+601468747
3598+604356077+607374373+608663229+607384749+605979422+607586139+611852146
3588+614371871+612006351+607449557+604962024+605617360+607665586+608820632
3578+608337764+607530781+608245738+610983624+614950957+619216183+622293390
3568+621564292+616247132+610168185+607652369+608855737+611000039+611734396
3558+610964721+610109843+610320187+611146712+610984334+609600398+608749570
3548+609316220+609942207+609009657+606279660+602601479+599446885+598301788
3538+599267595+600598093+600678535+599703348+598666977+597870014+597102116
3528+596499863+596097367+595197080+593508144+591886042+590931641+590043576
3518+588606876+587099468+586339671+586406363+586746502+586832168+586574318
3508+586214637+585649266+584246462+581798049+579104790+576943113+575027062
3498+572779115+570642736+569737546+570195222+570662420+569857037+568006399
3488+566278734+565139997+563869049+561730894+559030813+556868781+556138154
3478+556663091+557271313+556921296+555718461+554382065+553176317+552067604
3468+551349946+551510298+552601245+554064452+555123777+555503640+555732283
3458+556259742+556316627+554380644+550424894+546807080+545549172+545721996
3448+544767062+541819507+538441955+536445640+536265497+537018330+537355201
3438+536599703+535294218+534330011+533840498+533504694+533462412+533874928
3428+533849204+532348476+530124406+528923312+528934149+528753012+527677556
3418+526425511+525856089+526254038+527327823+528205726+527932812+526308400
3408+523960824+521638866+519667742+517945478+516350024+514959088+513762542
3398+512728907+512238968+512530110+512844454+512411294+511905402+512348546
3388+513170238+513065173+512163678+511580825+511423316+510758706+509137493
3378+507263156+506393745+507177490+508873070+510109802+510434272+510328460
3368+509959363+509027950+507760591+507117833+507858693+509577261+510693471
3358+509790590+507114103+504315672+502837116+502940263+503994471+505198976
3348+506026779+506308612+506177183+505989969+506037083+506172457+505975473
3338+505317650+504498586+503883223+503489076+502815584+501426851+499840173
3328+499085777+499216318+499231774+498648211+497955212+497399044+496616791
3318+495542650+494693492+494531114+495037220+495832477+496537912+497023693
3308+497242209+497081467+496674778+496419451+496356703+496119284+495632472
3298+495066426+494193924+492800856+491505818+491146385+491680453+492464945
3288+493253096+494251520+495431864+496340927+496523841+495996204+495329250
3278+495037895+494902308+494420328+493760303+493461557+493420838+493181927
3268+492849214+492754843+492771152+492724961+492856356+493232417+493225453
3258+492104659+490012765+488067543+487236257+487224781+486993615+486227245
3248+485511577+485182275+484891168+484345375+483769842+483385644+482964068
3238+482239624+481382365+480655398+480016691+479551624+479665466+480287367
3228+480631557+480214421+479318789+478229938+476804003+475031001+473456510
3218+472705063+472773674+473013793+472781526+471899857+470573161+469149393
3208+467817119+466471414+465135017+464150983+463582343+462966909+462050313
3198+461073065+460145810+459156588+458301105+458066955+458652366+459545440
3188+459791351+458899485+457274221+455453145+453561291+451901561+451045404
3178+450740795+449830524+447964607+446336750+446029441+446528440+446493229
3168+445493383+444308492+443653902+443237122+442259519+440525245+438685231
3158+437398863+436628051+435899805+435010355+434251268+433954939+433924169
3148+433504298+432383007+431023800+429993220+429258010+428454154+427416468
3138+426174371+424801485+423453541+422344082+421622552+421261626+421028791
3128+420749161+420566212+420619970+420622315+420145203+419167814+418053842
3118+417161691+416601082+416158719+415445610+414333664+413187750+412415552
3108+411913782+411294368+410570031+410144155+410082259+409913274+409282703
3098+408353173+407445638+406677775+406062092+405639201+405367920+405076032
3088+404700575+404436899+404451005+404628092+404778104+404812178+404602722
3078+404062117+403335541+402497149+401303374+399683760+398114208+397177537
3068+397056341+397452513+397701692+397251691+396328983+395697915+395607488
3058+395462593+394630703+393159004+391638486+390645604+390312820+390288019
3048+390086273+389474996+388509225+387346576+386142213+385052048+384233766
3038+383731179+383368228+382916806+382367637+381894149+381593556+381389643
3028+381109160+380597548+379846491+378953132+377936339+376816966+375849916
3018+375297692+375036893+374795495+374570547+374322824+373584843+372039915
3008+370265065+369237470+369209578+369533266+369510171+369021121+368326168
2998+367622545+366921694+366173018+365394744+364735038+364389924+364354749
2988+364303122+363842035+362892679+361758846+360793501+360081990+359549521
2978+359214960+359056776+358795871+358222398+357566316+357089951+356567359
2968+355663235+354561592+353741961+353331683+353036810+352560551+351847904
2958+351037830+350365475+349989627+349734868+349199237+348355799+347736350
2948+347718975+347995905+348008554+347527320+346647570+345637207+344853675
2938+344430251+344124648+343714157+343224823+342641757+341877234+341139466
2928+340826295+340917681+340890002+340324844+339260083+337943052+336604630
2918+335504054+334884249+334785579+334973965+335065422+334798477+334242238
2908+333607155+332931992+332213518+331644274+331365852+331222591+331022764
2898+330734891+330302655+329643446+328900739+328380706+328205004+328180594
2888+327990183+327489443+326820890+326173193+325556266+324960516+324503302
2878+324209744+323913628+323544566+323215193+322956100+322723655+322630919
2868+322743197+322746786+322301155+321591421+321061936+320777403+320473754
2858+320026453+319456534+318716065+317793927+316816821+315901220+315146539
2848+314757438+314843387+315147996+315272923+315088872+314728657+314307578
2838+313848587+313394962+313020002+312727119+312434449+312089406+311745963
2828+311451587+311115747+310643646+310138713+309749363+309374403+308772222
2818+307947580+307213436+306826396+306665049+306361365+305762417+305103990
2808+304607229+304149127+303562686+303029755+302864961+303024567+303066565
2798+302600006+301706611+300875112+300470768+300339516+300033025+299349193
2788+298516237+297874972+297504222+297194871+296727690+296076227+295328031
2778+294556437+293849705+293325533+293008240+292781569+292511924+292165460
2768+291804179+291484613+291152219+290686459+290075111+289436617+288844598
2758+288257055+287627852+286970172+286302098+285610360+284888546+284198994
2748+283655172+283284991+282991273+282703116+282408865+282009229+281374803
2738+280573008+279816302+279228759+278812743+278517480+278249096+277938980
2728+277602749+277255859+276875658+276480552+276131157+275888337+275809387
2718+275825483+275629333+274932266+273836664+272760107+272043463+271737113
2708+271638141+271437231+270942282+270256763+269690450+269429296+269341481
2698+269184967+268920367+268644965+268296831+267705309+266955105+266411515
2688+266269071+266287369+266113853+265714785+265323179+265079631+264893359
2678+264593903+264117324+263579792+263159565+262869987+262563709+262213088
2668+261985049+261958010+261973626+261852713+261591080+261298303+261048289
2658+260791985+260376964+259698764+258871315+258210597+257983695+258128626
2648+258267393+258080517+257617493+257149122+256837976+256697309+256708359
2638+256751529+256556819+255994059+255321935+254885417+254663650+254402514
2628+254075113+253871040+253819910+253773489+253676276+253536727+253251981
2618+252771210+252307387+252108910+252140479+252187220+252152187+252085672
2608+252029302+251971582+251907537+251850190+251796271+251724730+251630625
2598+251534425+251464251+251447036+251486245+251518560+251446130+251253214
2588+251031127+250861359+250743005+250634067+250505622+250389648+250398176
2578+250591109+250805557+250778714+250487447+250193943+250106785+250167863
2568+250217180+250200853+250161201+250159460+250273568+250568796+250994547
2558+251348562+251408645+251123827+250663557+250259729+250002146+249796438
2548+249521463+249194897+248925375+248717518+248451106+248094356+247795664
2538+247687223+247708097+247688715+247538738+247304215+247077989+246896353
2528+246749361+246661315+246672703+246741207+246739537+246571617+246255479
2518+245896277+245590887+245355955+245174800+245095708+245190718+245410549
2508+245580210+245576248+245435776+245262331+245096330+244921339+244746384
2498+244628562+244614830+244674202+244705008+244630428+244470396+244296862
2488+244162838+244096484+244077066+243998436+243755119+243372591+242977112
2478+242670336+242486090+242402592+242345333+242228009+242013899+241726808
2468+241427245+241190501+241067190+241034288+240989644+240822221+240514131
2458+240154609+239829109+239534787+239242987+238987306+238821766+238731517
2448+238666850+238639136+238690479+238770974+238745747+238541745+238212354
2438+237861378+237581801+237450567+237479187+237552897+237505569+237296469
2428+237049936+236884823+236789582+236717205+236693861+236749574+236823905
2418+236822857+236735059+236662754+236743409+237004598+237294817+237430759
2408+237413100+237399704+237454742+237453623+237308318+237181543+237339390
2398+237830839+238446842+239015997+239668952+240830056+243058087+246910175
2388+252848312+261190058+272151015+285916372+302591549+322086191+344140246
2378+368411087+394282036+420541731+445694276+468864185+489838307+508029917
2368+522453417+533022252+540628717+545506819+546495615+542436825+533542144
2358+520770628+504755974+485729383+464112077+442222886+424751137+415954664
2348+417598618+428873883+445851892+461961449+472443199+477358999+479007536
2338+479105318+478438861+477641791+477280404+477095500+476045591+473392412
2328+469275813+464261982+458707901+452569013+445680490+437996425+429456345
2318+420094820+410474559+401416470+393060441+384663799+375558597+365907067
2308+356277958+346928586+337843067+329144696+321068012+313650679+306729432
2298+300190392+294061329+288403852+283206467+278381787+273860204+269676486
2288+265915323+262572804+259546122+256793865+254438862+252629334+251303704
2278+250177687+249004219+247780900+246672276+245811446+245210491+244776567
2268+244369647+243903586+243403716+242921683+242431709+241874990+241260000
2258+240659062+240147219+239759379+239446829+239097701+238669196+238259326
2248+237982717+237830235+237709020+237564196+237397448+237195543+236918791
2238+236585544+236302415+236150395+236098218+236093865+236169226+236359940
2228+236578563+236670837+236593646+236476730+236489895+236671956+236915806
2218+237116770+237280888+237467285+237698272+237973852+238310953+238718122
2208+239173204+239644027+240105558+240547477+240976213+241398340+241822546
2198+242276598+242786754+243359071+243989109+244621154+245131949+245470703
2188+245750280+246093635+246491299+246859206+247114657+247213717+247229795
2178+247320435+247535683+247758836+247861130+247807762+247609800+247281848
2168+246883829+246522300+246249154+246020156+245793788+245567970+245321544
2158+245061136+244885488+244872412+244988031+245174907+245417780+245726758
2148+246149738+246808449+247961221+249986210+253072016+256960346+261270074
2138+265951493+271152982+276868197+282962973+289377138+296174595+303447316
2128+311161121+319188238+327526857+336246477+345200068+354064903+362591872
2118+370599235+377843212+383970054+388551436+391266724+392058072+391115254
2108+388882728+385928174+382585833+378944321+375109057+371083133+366595625
2098+361360755+355275697+348363936+340787957+332804151+324684262+316810639
2088+309570997+303041657+297064241+291515045+286285451+281328471+276818489
2078+272925274+269541575+266467352+263627652+261044309+258822247+257091029
2068+255854617+254989062+254303311+253576966+252728128+251853423+250995098
2058+250134783+249395612+248919548+248673389+248571148+248572267+248638195
2048+248776926+249019959+249343612+249778140+250426245+251278086+252281946
2038+253539161+255146802+257008988+258943515+260794881+262498704+264145571
2028+265818731+267440176+268952025+270392847+271698793+272759734+273597149
2018+274171758+274244135+273689157+272705034+271577703+270427401+269206694
2008+267847149+266388544+264942321+263567640+262274325+261073107+259906923
1998+258670760+257468565+256664762+256426331+256375184+255980575+255145487
1988+254135622+253224569+252639105+252490567+252600358+252658754+252568611
1978+252454361+252432261+252488720+252529012+252576499+252872793+253548524
1968+254260834+254489015+254168915+253712127+253474246+253516084+253792072
1958+254266501+254817660+255249256+255487510+255666409+255987557+256544081
1948+257300218+258245755+259420626+260561157+260986038+260376928+259373903
1938+258819920+258876077+259194489+259498706+259757674+260052583+260434755
1928+260938480+261733098+262966507+264368440+265513661+266500378+267595411
1918+268361196+268140103+267275685+266820389+267320223+268471449+269598371
1908+270258113+270524010+270754127+271161047+271679144+272162208+272617912
1898+273206911+273941979+274556258+274971137+275578542+276536869+277191050
1888+276868019+275862897+274934025+274401414+274160762+274049336+273960348
1878+273864379+273806747+273889890+274433818+275979404+278599575+281072629
1868+281528493+279695923+277298567+275864247+275531623+275657474+275712618
1858+275581597+275418456+275411403+275638696+276129700+276965516+278294114
1848+280356801+283196377+285852985+286482241+284673512+282335262+281182082
1838+281286064+281797392+282263152+283253493+285480814+288357928+290163655
1828+290286113+289797595+289283336+288303725+286951695+286121351+286263191
1818+286983904+287770137+288635764+289920053+291561751+292842239+293133505
1808+292719194+292503112+293223114+295057017+297470308+299378897+300038817
1798+299947644+300474037+302641897+306078715+308602170+308143676+305775634
1788+304234828+304612204+306074487+307589462+309022432+310432378+311532741
1778+312491405+314328826+317924965+322726107+326384745+326930219+325184433
1768+322960825+321289158+321058632+322789743+325469038+327285175+328060002
1758+328854726+329831441+330920470+333174279+337454925+342503115+345695088
1748+346239495+345709300+345650034+346636165+348602812+350882097+352592316
1738+354153553+357299549+362344256+366016077+365115079+361698407+358706083
1728+356828442+356153599+356691079+358005481+360099187+364052485+370569780
1718+377771865+381347574+379622112+375524558+372091719+370692220+371794928
1708+375130731+379335909+382790777+385855548+390461411+396650398+401239738
1698+402343548+401202573+398286499+394534342+392559630+393577099+396708384
1688+401253524+407968940+416400935+421551098+419787405+415368010+413027860
1678+414146059+417970770+422303079+425491783+428550728+432638511+435883532
1668+435908759+434670109+435695785+439412695+443204611+444960772+445926507
1658+448782605+455340440+466163359+478387554+484090581+483144921+483896404
1648+488729843+493677693+494356372+492515683+492182011+494874594+500798447
1638+509888443+520391155+527505585+528781330+528583280+531321414+537703867
1628+546156790+555132944+564441420+574020430+582926375+591015636+599827636
1618+610279539+620368314+627059960+631066519+634902529+639130376+643005257
1608+646161770+648894610+651549779+654276365+657164334+660370804+664069877
1598+668333184+673119651+678325883+683896024+689909807+696279398+702393805
1588+707575236+711816017+715478493+718495439+720589927+722363427+725542183
1578+731474599+738872888+744223802+747499344+752593155+761381208+771759703
1568+780625142+788449590+797763006+809547823+823834030+841502231+861684898
1558+876354628+880695535+880546873+879539495+877952107+876016443+874036649
1548+872650651+873123571+875997398+880327717+884071772+883197778+874239319
1538+862548872+855194856+851812223+848727838+844264206+840200016+838181706
1528+837769474+838170408+839712955+842747596+845736047+846282729+844437811
1518+841864648+839022515+836354839+835330193+836948919+841075360+847008274
1508+852645001+853018007+846254091+838738692+835177338+835386403+837341467
1498+838379188+836549478+832924736+830725005+831564037+834169604+835690549
1488+834598038+832105744+829923850+828696321+828348684+828665124+829710308
1478+831848286+835217204+839036372+841293166+840024066+836181447+833053856
1468+832474486+833865032+835161349+834777328+833972975+835484966+840289270
1458+845838519+846787839+841940187+835892366+831505979+828977514+827879674
1448+827450529+826612776+824848514+822604227+820772172+820394903+822149287
1438+824984030+825721869+822853087+819561982+818987871+820701394+822119583
1428+821569064+819739496+818062925+817270439+817596757+819018143+820595654
1418+820487781+818120840+814887936+812135340+810261501+808986502+807919077
1408+807112805+806702633+806202853+805208976+804517967+805257725+807441894
1398+810139345+812410351+813397406+812466632+810410234+809060762+809011374
1388+808762798+806671366+803846358+803341745+806651397+812581185+818780156
1378+823684373+827219150+830050482+832471501+834288634+835610888+837004347
1368+839003257+841860242+845257514+848060777+849101057+848576689+847825987
1358+847655935+847721668+847297355+846368430+845745925+845863959+846110545
1348+845911642+845696821+846076577+846892016+847775462+848911676+850594500
1338+852560366+854322851+855717731+856794751+857789480+859301613+861697973
1328+864334666+866293425+867887280+870435784+874499548+879104452+882836000
1318+885436593+888044364+891741660+896340665+900819433+904506141+907477039
1308+910120767+912734436+915310300+917540872+919259583+920847255+922703329
1298+924448262+925415490+925879526+926709107+927745833+927995901+927366148
1288+926479718+925015765+922185072+918605100+915768509+913983141+912423823
1278+910821938+909783506+909712941+910357263+911222232+911966111+912490835
1268+913005823+913999699+915899263+918684547+921813062+924434192+925881019
1258+926385205+927151682+929092818+931675859+933663967+934755482+935603326
1248+936579365+937516179+938166043+938149485+937005454+934762375+931970198
1238+928933070+925454858+921608544+918338332+916610099+916029307+915187504
1228+913407537+911202050+909110973+907276502+906117974+906192661+907325819
1218+908822247+910509975+912768617+915424568+917293717+917462632+916892216
1208+917728050+920707262+924230172+926484692+927529307+928616133+930430493
1198+932714646+934891566+936667269+938221898+939721808+940996593+942181769
1188+943994282+946636233+949203854+950910342+952167788+953756029+955658080
1178+957286684+958395895+959442854+961039907+963140861+964948613+965957555
1168+966788556+968361590+970707922+973118922+974912603+975634453+975329099
1158+975141281+976703016+980301820+984494705+987799809+989851091+990972595
1148+991635818+992175394+992565810+992880260+993865893+996216632+999404980
1138+1002202203+1004025304+1004830155+1004712263+1004408401+1004994095
1130+1006682321+1008793295+1010740897+1012301495+1013525613+1014831381
1121+1016735778+1019215920+1021486785+1022606441+1022393894+1021830371
1113+1022483219+1025157433+1028651136+1030344691+1029265753+1028055564
1104+1030032941+1035067913+1040058826+1042787260+1043400883+1042903731
1095+1042807584+1045194991+1050313389+1054932292+1055915367+1054379783
1087+1052676279+1050412024+1047132289+1045387214+1047545231+1051910797
1078+1054886741+1055408409+1055244681+1056111285+1058202504+1061145617
1070+1064492364+1067044279+1067249862+1065052476+1062566435+1061831510
1061+1062698895+1063577296+1063772290+1063716080+1063912141+1064330626
1053+1063775488+1061279712+1058752597+1059444246+1063942840+1069448030
1044+1072897746+1073741823+1073201608+1072285616+1071270279+1070035360
1035+1068381955+1066760102+1066478482+1068244094+1070493924+1070336095
1027+1066875649+1062198049+1058705696+1057508511+1058613244+1060851846
1018+1062202099+1061778142+1061124370+1062006678+1063473261+1062918549
1010+1060177892+1058429193+1060065756+1063320974+1064410287+1062419763
1001+1060079187+1059789466+1061007899+1061702177+1060920563+1059022136
993+1056505894+1053475587+1050466955+1049300966+1051211687+1054507340
984+1055811118+1053802402+1050236713+1047386478+1046287643+1047204701
975+1049717106+1052142389+1052727373+1051494159+1049446999+1046764755
967+1042848374+1037246396+1029916257+1021515139+1013618846+1007784496
958+1004598989+1003732457+1003946780+1003561410+1002074575+1000914413
950+1000969628+1000207699+996350300+991011039+987956074+987834913+987419697
940+984358976+980518134+979269926+981051029+983050436+982994936+981744596
930+981217457+981489767+981522953+981316162+981482164+981549886+980422555
920+977980857+975326754+974070516+974978265+976573967+976157329+973053686
910+969776297+969288454+971818696+974608670+974692594+971841649+968489644
900+966585319+965548521+963825546+961476016+960170958+960803483+962534203
890+964130900+964769750+963912171+962342264+962236026+964116333+965313802
880+963393772+959507805+956354845+954888547+954437018+954320689+954420461
870+955072954+956710228+958931775+960020448+958563886+955654385+954089808
860+955238245+957571999+958619030+957638016+955441412+952766203+950463929
850+950091847+952147038+954577437+954782452+952765564+950829118+950827555
840+952906267+955778175+957676674+957790160+956612091+955053554+954154688
830+954986329+957753279+961115730+962732396+961384487+958827171+957633397
820+957516357+956297356+954035872+952941798+953859922+955865085+958158334
810+960435594+962380567+963292579+961954620+958265211+954918323+954891390
800+958176170+962616849+965891041+966219561+963556789+960116595+958469941
790+959595709+962572506+965395026+966946315+967987376+969191383+970075540
780+970678503+971630452+972335745+971459832+968894983+965626192+962792088
770+961735606+963033913+965207990+966329068+966592283+967755429+970158825
760+971604301+970075682+966754162+964566796+964767049+966368721+967522700
750+967279952+966983054+968868406+972262266+973656010+972131157+970657113
740+970688949+970147170+967434228+963926952+961599380+961419592+964272314
730+970022172+976372079+981213335+984302765+985369694+983924004+981291930
720+979857894+979781716+978926624+976554780+974209016+972961092+972195610
710+970768894+968060428+964354036+960941628+958721573+956955819+955258000
700+954665767+955097684+954508578+951991838+949390037+947814587+945680802
690+942013565+938623541+937873693+939777805+941241545+938549566+931569692
680+924189027+920207624+920543606+923970226+928685702+932410855+932015536
670+925407460+917177602+917843526+927568249+936951731+940252074+937228448
660+930487130+923584430+919313732+916952903+912862917+906363992+902217440
650+903861536+907622077+906566448+900318586+895342383+895013791+896689723
640+896614042+892826567+885282957+877363711+874845337+880450868+890810248
630+899486945+902997206+902297101+898539472+891695114+884155981+881559865
620+886857980+894310488+894367338+886979780+879757513+876007205+873638345
610+870620404+867160953+864904158+865628993+870867700+880800920+891436093
600+896156827
##END=
