##TITLE=<SNM>
##JCAMP-DX=4.24
##DATA TYPE=INFRARED SPECTRUM
##DATE=2/5/2025
##SAMPLING PROCEDURE=Instrument type and / or accessory
##ORIGIN=Admin
##XUNITS=1/CM
##YUNITS=ABSORBANCE
##RESOLUTION=4
##FIRSTX=4497.3318
##LASTX=599.83466
##DELTAX=-1.4281778
##MAXY=1.8390263
##MINY=0.36197245
##XFACTOR=1
##YFACTOR=1.7127267e-09
##NPOINTS=2730
##FIRSTY=0.39788204
##XYDATA=(X++(Y..Y))
4497+232309122+231447622+231866383+232804584+233336100+233380645+233270256
4487+233026753+232634824+232532405+233131974+234001461+234056203+232768304
4477+230912156+229804266+230027880+231185866+232496525+233277147+233346331
4467+233174136+233268516+233549482+233678542+233658131+233701719+233811343
4457+233727907+233206292+232306424+231294985+230327934+229632575+229846009
4447+231370938+233407129+234433741+233733040+231923422+230158575+229289089
4437+229521681+230361830+230897905+230493917+229496485+229024740+229672144
4427+230703802+231052317+230769315+230734375+231213533+231471896+230807353
4417+229549975+228784839+229101337+229964228+230504775+230472845+230151145
4407+229885143+229904649+230149701+230352382+230518035+230838308+231086457
4397+230825884+230073626+229166920+228486942+228549236+229437637+230188417
4387+229806893+228577286+227403534+226604503+226109719+225967679+226096216
4377+226252856+226472642+226897353+227205621+226869721+225952958+225102578
4367+224809292+225024136+225322955+225211418+224582041+224085117+224590063
4357+226071943+227543069+228245354+228316452+228154593+227759183+226877934
4347+225462351+223900742+222827356+222569237+222895879+223413962+223926668
4337+224313186+224429769+224246994+223875041+223509839+223391098+223554263
4327+223681878+223509004+223219007+223083022+223005625+222858521+222863654
4317+223119511+223177837+222673710+222020146+221884440+222310143+222869866
4307+223351146+223827224+224268293+224450772+224238921+223798670+223394491
4297+223008896+222518758+222287384+222968405+224513883+225971472+226493401
4287+226066079+225139728+224025538+222902544+222093559+221999266+222665009
4277+223512606+223730321+223034248+222003842+221529713+221894480+222555143
4267+222965342+223322140+224091764+225014079+225251056+224696902+224368728
4257+224999149+226057831+226711655+226773479+226256266+225200299+224235197
4247+224107930+224600277+224940370+225004856+225295497+226122021+227275362
4237+228094282+227872165+226729908+225794544+225955290+226765162+227071602
4227+226460775+225485615+224733252+224368311+224376976+224665494+225060625
4217+225546134+226274989+227172229+227881318+228184052+228154262+227853459
4207+227165026+226116697+225215298+225095809+225840325+226972698+227955044
4197+228364721+227929360+226850198+225817878+225383091+225495116+225723045
4187+225754610+225577733+225211383+224559368+223838239+223744363+224599320
4177+225662282+225979285+225640462+225522991+226102846+227091247+227973593
4167+228413095+228281669+227679559+226847170+225976136+225329741+225323564
4157+225941491+226393974+226091571+225535868+225523165+226020263+226371754
4147+226085498+225187162+224281691+224133856+224729058+225131532+224723455
4137+224101613+224228045+225166455+226226216+227027074+227748395+228358457
4127+228334758+227432141+226185899+225345245+225166873+225443036+225851530
4117+226141649+226291502+226542766+227035983+227392676+226983643+225735399
4107+224381396+223801524+224326010+225605679+226889210+227567099+227688729
4097+227764943+227992211+228012761+227515750+226681135+225867330+225222589
4087+224819802+224878790+225594890+226833546+228163624+229142281+229527667
4077+229377309+228986877+228609494+228243927+227772234+227209484+226708558
4067+226374033+226157188+225918296+225562421+225150725+224972143+225394802
4057+226392843+227351855+227717126+227641991+227576582+227598298+227645610
4047+227901380+228397365+228737545+228651412+228337211+227961412+227338265
4037+226399455+225600284+225532962+226288614+227334924+227926542+227700857
4027+227054115+226763578+227095528+227625930+228021983+228412103+228832847
4017+229008940+228852005+228581044+228334044+228137262+228125969+228434480
4007+229029856+229826851+230750645+231596083+232063983+232017385+231560830
3997+230923519+230391098+230187895+230262282+230337696+230274915+230242602
3987+230470131+230929296+231272677+231099943+230360995+229442335+228895263
3977+229203496+230531537+232321354+233466064+233406711+232749093+232421894
3967+232696092+233330514+234146094+234970652+235399731+235190664+234702231
3957+234451177+234450376+234554658+235127883+236539482+238153188+238727335
3947+238016959+237176184+237272217+238097541+238658847+238400258+237595293
3937+236900020+236992783+238145253+239618276+239979720+238761179+237288904
3927+237141766+238416980+239846989+240486527+240820530+241686536+242788632
3917+242934657+241520883+239249298+237388888+236774267+237443230+239080687
3907+241759183+245785348+250591753+254384281+255595357+254070359+250643345
3897+246769104+244252990+244300249+246502719+248558433+248312286+246882955
3887+247062389+249233208+251123443+251570949+251726701+251829712+250827825
3878+249214850+248694714+249947533+252681258+256187444+258511439+257643293
3868+255139011+254290527+255324901+255670510+254053741+251932462+251047855
3858+252352998+256669073+263748924+269039654+267065218+260695551+255303968
3848+252734834+252724220+254571528+257640456+261350385+265071015+267765745
3838+268178120+266408975+264118215+262355699+260820557+259247811+258284136
3828+258464179+259477272+261196860+264038068+267115992+268055724+266959753
3818+266433944+266679292+265429082+262340648+259629022+259193922+261465576
3808+265072459+267738200+269438613+272259114+276235966+278494866+277996933
3798+276612705+275220089+273616754+272523271+273016871+275048660+277840955
3788+281113608+285012976+289237350+293434824+298179735+304076699+310151844
3778+314931173+319025757+324639580+333231326+344623963+357418734+370108545
3768+382072928+392659469+400568002+406159065+411884912+418573565+423835549
3758+425910143+426951354+430320964+437275287+446127276+453063955+456546180
3748+459526644+464800322+472036917+478398579+483449251+490018049+500001280
3738+513047105+526704036+537336166+542772121+544141715+544255758+545429806
3728+549029485+555076963+561949121+567838673+571793739+573065230+571423665
3718+568243582+566277046+568116419+573966472+579417112+578311832+571161892
3708+563419917+558263414+556116261+556499559+558436062+560390418+561277949
3698+561474157+562285264+564627304+568540818+573696973+579013734+581741438
3688+580166413+576960995+575837549+577543773+580185554+581921325+583420518
3678+586730791+591083634+592406351+590067583+587355887+585181032+582033071
3668+578235722+575603233+574544551+574038231+572976313+571309344+569672617
3658+567843092+565056644+562420779+562299985+565127847+568876613+570490789
3648+568347289+563802067+559132222+555503832+552768228+550684030+549709497
3638+550052913+551049858+552112194+553752018+557148111+562163600+565059880
3628+561962450+556305752+553596388+554840107+558142655+561445237+563648386
3618+565026367+566815522+569278634+570888843+570542956+569582621+569868547
3608+571284252+572570220+573337826+574281073+576258432+579486645+583433325
3598+587437043+591013614+593481842+594300153+594145219+594453556+595342514
3588+595029026+592795496+591057881+592272158+596062964+599905693+601706368
3578+601453852+600600809+600710711+602614188+606111134+610185568+613652724
3568+615667008+615965253+615023537+613716202+612365156+610488963+607998463
3558+605817552+604860037+605210066+606112317+606321819+605354420+604470753
3548+605128840+606842442+607870743+607653863+607018605+606487750+605903093
3538+605206794+604810689+605218975+606339011+607083614+605898639+602547439
3528+599196588+598277145+599506665+600369034+599555874+598393937+598438482
3518+599319157+599453559+598105506+596382855+596032200+597141170+597570823
3508+595499745+592047553+590038768+590635188+592388046+593236077+592301878
3498+589628673+585710286+581966427+580300850+581216917+583139256+584240221
3488+584232913+583829743+583487371+583276998+583035549+582310922+580991685
3478+579714522+579038477+578814150+578749698+578836179+578715663+577497697
3468+574821498+571948465+570867719+572099675+573841606+573705360+571260901
3458+568227052+566437548+566278891+566866715+567248169+567105485+566263787
3448+564445990+562027354+559947262+558743668+558589117+559433842+560389304
3438+559964071+557806164+555475504+554581918+554856046+554982339+554831546
3428+555365603+556466359+556683796+555496872+554205719+553938413+554158216
3418+553810902+552922397+552201633+551692459+550736962+549106012+547405112
3408+546229116+545637046+545444109+545312874+544799733+543847995+543021471
3398+542733631+542510765+541682432+540381430+539059583+537738953+536743366
3388+536996334+538282615+538614965+536878637+534711508+534299290+535695054
3378+537177230+537350922+536287646+534967052+534308199+534654086+535659209
3368+536645470+537177474+536984711+535573599+533072449+531130587+531366294
3358+533255920+534806689+535092823+534888402+535020054+535269647+534870235
3348+533497683+531756831+530657293+530635612+531278631+531880723+532133587
3338+532247421+532488906+532731678+532488801+531430641+529819667+528415133
3328+527909161+528298549+528928552+529275066+529307883+528929353+527790454
3318+526163054+525168162+525415946+526288546+527059668+527784642+528520406
3308+528642627+527592610+525673438+523835735+523137801+524207724+526689976
3298+529359250+531104069+531631583+531086146+529568891+527479786+525746207
3288+525171225+525823605+527278496+528947832+530041071+529998370+529295285
3278+529030241+529457632+529762733+529470891+529117626+529063824+528684493
3268+527496420+526286424+526291052+527707280+529431079+530021722+528876942
3258+526714476+524946654+524540595+525431710+526837080+527973542+528482090
3248+528310034+527491061+526268466+525257183+524965968+525053667+524610267
3238+523515009+522903973+523601455+524636542+524270957+522184392+519570139
3228+517433321+515935485+515070193+514914214+515195372+515284880+514797840
3218+513901887+512968524+512218806+511680573+511189287+510485088+509557815
3208+508720641+508134557+507698535+507521259+507860952+508519143+508881492
3198+508422223+506864111+504462353+502228128+501072908+500858011+500974769
3188+501354309+502046571+502382957+501395478+498844668+495523049+492739454
3178+491463370+491604593+492096575+491904961+490958651+489938250+489220340
3168+488391971+487002192+485338112+484005998+483117563+482289438+481201557
3158+479914268+478806621+478291183+478408184+478635643+478244654+477008660
3148+475498366+474431853+473869573+473487876+473402822+473968443+474887956
3138+475294049+474697907+473328174+471649581+470006555+468669117+467836398
3128+467496636+467454213+467515428+467457276+466916781+465755366+464487844
3118+463831531+463868072+464086588+464040198+463475621+462152312+460057847
3108+457655985+455691954+454797603+455124384+456139530+456969013+457110305
3098+456662972+455944958+455165136+454411938+453743723+453188891+452609767
3088+451723733+450549442+449620463+449343308+449441830+449449068+449330954
3078+449228917+449088599+448911949+448892774+448988337+448751725+447859149
3068+446595523+445598265+445166837+444962485+444416770+443359133+442174784
3058+441389047+441179057+441299608+441407735+441321393+440947282+440215591
3048+439238935+438311383+437638714+437202414+436814452+436214134+435253835
3038+434058176+432913710+432062163+431630979+431494698+431196035+430354790
3028+429143854+428105113+427581009+427455900+427365730+427118747+426837555
3018+426571536+426048685+425151898+424267151+423725334+423300309+422654924
3008+421896227+421375360+421254914+421422655+421581034+421382460+420695348
2998+419739155+418763021+417671035+416242279+414669969+413523379+413131311
2988+413261049+413425519+413360267+413167400+413017616+412803868+412283732
2978+411550126+411017845+410821358+410533832+409726031+408606517+407777939
2968+407457735+407298555+406926880+406283653+405471640+404640975+403993467
2958+403673054+403640758+403607419+403140528+402139477+401112534+400601933
2948+400537481+400504664+400303514+399890356+399181808+398284707+397590809
2938+397320962+397165367+396658490+395863182+395306922+395152580+394900412
2928+394082065+392788059+391378513+390085307+388999585+388225645+387917342
2918+388048821+388242140+388152354+387871997+387594946+387250450+386819823
2908+386529164+386439447+386256742+385689694+384731204+383610194+382610082
2898+381865584+381361317+381124496+381188390+381368486+381331318+380920492
2888+380293343+379728940+379337324+378978665+378488109+377869173+377202177
2878+376558393+376068116+375802827+375546135+374986604+374173652+373472795
2868+373035206+372644913+372162919+371812264+371868607+372263703+372595078
2858+372433184+371685136+370723827+370004211+369562377+369123850+368606080
2848+368173817+367899306+367687229+367420862+367009270+366464112+365983579
2838+365737814+365584377+365200904+364469317+363613316+362993092+362744439
2828+362571443+362057780+361248134+360627771+360425821+360303843+359875547
2818+359178970+358452881+357745133+356965590+356158589+355505409+355095835
2808+354857170+354724961+354728893+354864896+355008485+354968150+354564946
2798+353792467+352965734+352460528+352237766+351924418+351374527+350779221
2788+350236464+349628734+348942179+348366292+348034777+347840518+347529397
2778+346967012+346320548+345858321+345533071+345000754+344126900+343183375
2768+342463899+342024988+341830938+341800487+341719052+341388025+340794459
2758+339999882+339118233+338441631+338186157+338111717+337770528+337067199
2748+336293712+335758716+335559236+335546604+335439764+335061825+334409306
2738+333512205+332458395+331522074+330984781+330828524+330769397+330539084
2728+330064955+329473372+328958352+328586538+328239954+327758413+327079723
2718+326277734+325554255+325119103+324975618+324895820+324671457+324310118
2708+323934163+323568161+323127197+322619067+322228495+322069837+321962546
2698+321639314+321079713+320453887+319870482+319370670+319041452+318951422
2688+319018205+319021998+318770631+318272802+317730741+317349218+317169923
2678+317047319+316758818+316226606+315632135+315209929+314981391+314791725
2668+314514848+314137153+313728658+313381205+313150161+313064829+313132134
2658+313243984+313166100+312734811+312028524+311305880+310821276+310674903
2648+310752509+310781603+310498845+309853251+309070819+308452614+308104847
2638+307927675+307795988+307648293+307473974+307283787+307048776+306700557
2628+306238991+305756370+305330266+304980063+304691807+304398434+304027246
2618+303623868+303304046+303065033+302801067+302501047+302258589+302082635
2608+301880093+301647587+301501701+301471737+301425939+301234847+300876814
2598+300418102+300016950+299850427+299888639+299842701+299473254+298858598
2588+298272479+297898716+297733237+297669134+297585994+297401131+297140750
2578+296958184+296956653+296992846+296829176+296493103+296255551+296223639
2568+296206134+296031015+295768198+295565899+295421371+295180791+294725280
2558+294151168+293729275+293632563+293765120+293909510+293941805+293837402
2548+293602182+293301049+293059425+292949593+292920395+292855004+292659422
2538+292327908+291960409+291668411+291468200+291335278+291319600+291485236
2528+291762948+291974747+292008469+291897697+291714905+291465399+291161395
2518+290915525+290811731+290748359+290576877+290319262+290103252+289995317
2508+290011830+290172175+290437307+290663618+290677817+290420133+290029422
2498+289740225+289678419+289801371+289977203+290036538+289841409+289415827
2488+288955775+288649874+288514028+288412758+288238961+288062276+288046651
2478+288230070+288458208+288514759+288268733+287765006+287227887+286915095
2468+286944328+287268047+287736278+288140074+288300611+288194364+287955089
2458+287734451+287565039+287333334+286918576+286401102+286047401+286017960
2448+286202196+286396821+286502947+286507036+286417911+286259409+286039693
2438+285751088+285446214+285255191+285290079+285542230+285858380+286043573
2428+286032228+285919142+285812877+285764400+285837569+286096732+286485616
2418+286817896+286926145+286799556+286594961+286518903+286638984+286798321
2408+286792996+286640011+286545735+286624298+286836184+287179583+287675811
2398+288155421+288312026+288035271+287568763+287308364+287451414+287805445
2388+287946267+287550527+286505888+284726616+281975194+277929749+272480605
2378+265976572+259079949+252318875+245842178+239581613+233512210+227749404
2368+222525945+218121336+214743026+212459244+211342792+211671644+213843333
2358+218074024+224305077+232541349+243056113+255384776+267070142+274656139
2348+276082076+272100299+266093312+261659174+259622949+258601330+257650479
2338+256868448+256349495+255657163+254426095+253079730+252469094+252883000
2328+253868234+254863265+255584917+256088922+256828096+258357271+260732127
2318+263394510+265732043+267608723+269309031+271094776+272958545+274776846
2308+276503551+278137390+279628701+280880824+281787774+282294372+282488892
2298+282603666+282861229+283325231+283895115+284412832+284788753+285057800
2288+285301198+285516773+285610614+285519661+285268972+284901439+284456473
2278+284043820+283798733+283683142+283474962+283055523+282573006+282231591
2268+282057638+281949668+281838705+281733397+281686868+281761464+281965711
2258+282201297+282325884+282296721+282215791+282215739+282332531+282497262
2248+282606241+282598550+282512087+282452142+282477721+282561522+282664672
2238+282766378+282825697+282822739+282829942+282933632+283099616+283203897
2228+283172367+283014179+282780403+282577444+282538762+282684265+282883501
2218+283002555+282989575+282853189+282699682+282691052+282820459+282878264
2208+282749274+282556928+282455918+282464984+282505510+282482298+282376398
2198+282294024+282337021+282461452+282559834+282611375+282671754+282778802
2188+282907270+282982214+282948283+282842732+282774731+282827193+282982284
2178+283117381+283093682+282902955+282695349+282602413+282598550+282616699
2168+282694984+282885154+283131128+283358466+283558745+283696975+283683194
2158+283516340+283343884+283321002+283457196+283617437+283677608+283668664
2148+283720448+283895915+284141384+284345196+284405124+284312640+284178430
2138+284120991+284178778+284338375+284546573+284706327+284762774+284761156
2128+284763052+284777460+284810469+284918091+285173461+285587697+286066142
2118+286450206+286625342+286617686+286598754+286742674+287050489+287388598
2108+287689001+287971515+288191388+288264349+288253491+288345870+288618519
2098+288968721+289285115+289565907+289854007+290166312+290495442+290768996
2088+290831759+290621387+290331877+290239933+290403115+290672840+290935954
2078+291181840+291394718+291549113+291680017+291811861+291867821+291811652
2068+291808363+292037806+292406558+292655698+292707622+292713886+292814461
2058+292992920+293136997+293175730+293167169+293239938+293448849+293739646
2048+294046313+294353814+294667337+294961405+295167532+295230174+295194677
2038+295193981+295301133+295439780+295502944+295518222+295601640+295774636
2028+295945926+296065607+296174152+296305491+296476050+296773216+297298399
2018+297944306+298368635+298339228+298006599+297701360+297608197+297737170
2008+298011820+298267398+298342603+298266180+298234407+298375525+298597521
1998+298706483+298726041+298992095+299707848+300530196+300929885+300830007
1988+300527446+300244793+300071727+300035708+300042390+299994747+299980827
1978+300138267+300440618+300768687+301051863+301314680+301729230+302472023
1968+303322491+303678157+303272864+302559443+302109223+302034679+302189752
1958+302512949+302932545+303247355+303332722+303310415+303409354+303733978
1948+304251086+304992940+306053397+307158608+307559759+306878738+305740675
1938+305040930+305039782+305425238+305823640+306075461+306229873+306397648
1928+306691404+307322486+308409356+309596385+310408919+311003320+311740963
1918+312212691+311749315+310706328+310107229+310356996+310998413+311372629
1908+311257089+310966153+310900623+311102086+311353906+311569533+311897254
1898+312482573+313182943+313640820+313868036+314438425+315593227+316596089
1888+316676305+316129650+315675880+315476122+315367369+315389154+315667667
1878+316127806+316540616+316833606+317429399+319099117+322057831+325075950
1868+326131604+324736501+322508400+321037186+320605758+320724290+320972944
1858+321228000+321497708+321786696+322096147+322553189+323414096+324870067
1848+327037788+329890741+332558936+333259411+331517828+329201159+328000697
1838+327929738+328205675+328597361+329745656+332180996+335163375+337016460
1828+337217087+336831249+336421084+335550466+334281099+333436443+333414693
1818+333822944+334211532+334714685+335798737+337468873+338975340+339559022
1808+339337792+339144194+339793303+341567772+343924219+345704257+346164709
1798+345841686+346071651+347860981+350963388+353350947+352843722+350266567
1788+348419572+348677204+350284315+351951110+353307132+354441158+355149255
1778+355574732+356738861+359665071+364022646+367581712+368197725+366407456
1768+363933973+361881687+361274340+362738801+365222063+366724772+366972242
1758+367140365+367521228+368050134+369730327+373451009+378018783+380721535
1748+380600009+379297129+378544000+378891001+380110985+381501112+382270111
1738+382909719+385245250+389788420+393395441+392580993+389037796+385743636
1728+383605252+382853654+383490931+384911404+386855563+390271214+396017594
1718+402609360+406051599+404539634+400757146+397674923+396548484+397693089
1708+400901257+405030398+408412605+411075127+414926104+420474745+424945041
1698+426238386+425304640+422552644+418698083+416217640+416537113+419077762
1688+423240312+429652262+437756272+442721821+441113979+436944051+434579356
1678+435282406+438423199+441997751+444423209+446583830+449510214+451499719
1668+450552817+448577129+448643146+450911581+452963624+453115843+452744551
1658+454384828+459747596+469328840+480059840+483830949+480682918+478984628
1648+480966268+482965726+481324092+477836960+476000614+477037998+481030232
1638+487681926+494889218+497905945+495101504+491240017+490289880+492469886
1628+496000693+499364247+502378746+504814087+505861459+506178148+507873828
1618+511631225+515106003+515553161+514135159+513526558+514484561+516310814
1608+518227550+520018342+521783832+523508884+524995897+526160792+527308216
1598+528933320+531174088+533567007+535484682+536763968+537725868+538716932
1588+539868950+541173153+542560566+543923687+545241219+546876554+549647168
1578+553985846+558348816+559819438+558926061+559210977+561873011+564689841
1568+565376987+564916605+565297676+567429552+572370949+581521983+592814080
1558+597484169+593303034+588029844+585415939+585271167+586714783+589012068
1548+592150285+596959021+603975952+612700916+622285745+630893291+634138347
1538+631591052+629403042+631135993+635334111+638635475+640644747+644110650
1528+650497334+658577715+666604710+674453246+682115527+688042002+691704462
1518+694750595+697823526+700253612+702451853+705969053+711789386+719674393
1508+727600883+730840510+727342311+722794096+721725217+724305852+729019442
1498+733610115+735844758+735657529+735641103+738116987+742926628+747407399
1488+748923331+747833850+746272050+745727344+746617485+748677427+751574334
1478+755410799+760492514+766485111+771523325+772845068+770469898+768079694
1468+768388519+771072582+773849078+774837566+775008509+776919085+781712091
1458+787482170+789699622+787062887+783345999+781111843+780589410+781038760
1448+781115114+779905221+778049144+776741252+776410363+777202226+779489976
1438+782769972+784732193+783710992+781469110+780345663+780465240+780519251
1428+779824135+779201893+779646163+781107806+783093065+785386870+787008667
1418+786094862+782943212+780094887+778956685+779164029+779862903+780487373
1408+780778727+780603121+779871882+778926686+778707022+779862834+782007551
1398+784199946+785856475+786729772+786781208+786865357+788330271+791211448
1388+793414074+792755778+790506727+790485150+794541627+801204492+807961598
1378+813598738+818138044+821417902+822957429+823314279+824131546+826294291
1368+829192033+831894332+834142339+835919001+836873385+836749214+835949557
1358+835326549+835498744+836171309+836292138+835290286+833808667+832891660
1348+832823729+833066361+833303774+834137746+836250933+839138583+841292558
1338+841766757+841133726+840601131+840715278+841171102+841552800+841995608
1328+842946442+844438292+846022365+847399790+848790508+850657165+853251930
1318+856381447+859492589+862071066+864044911+865717796+867270130+868622150
1308+869914173+871707887+874405663+877729230+880997116+883565571+884890933
1298+884721939+883624593+882849435+883079748+883586660+883135082+881485305
1288+879463783+877767163+876278654+874454941+871967921+868965845+866008384
1278+863903966+863289937+864031617+865122072+865481984+864857793+863732328
1268+862790055+862809057+864249610+866403376+867806762+868016125+867987867
1258+868466520+869271746+870230932+871595550+873353628+874972780+876077504
1248+876795658+877249463+877368065+877500727+878412165+880195579+882012749
1238+883406391+884924760+887005513+889289226+891347428+893179493+894823493
1228+896176627+897370371+898937879+901251382+903928346+906159857+907626094
1218+908744808+910143113+912122804+914345893+916272130+918289337+921471542
1208+925692489+929318616+931492010+933275702+935704535+938193295+939734702
1198+940499002+941475658+943266032+945853488+948947021+951839473+953494192
1188+953650866+953551753+954515393+956388524+958433780+960926508+964665808
1178+969252513+972903141+974079833+972967523+971326654+971054093+972746675
1168+975344085+977387392+978762728+980663908+983496642+985928399+986840046
1158+987258563+988783683+991086815+992942127+994469614+995946430+996059255
1148+993907925+991275506+990808477+993173067+996668621+998785498+998653950
1138+998191862+999514370+1001787434+1002651335+1002046632+1002294346+1005046272
1128+1009868928+1015067714+1018827964+1020126669+1019460021+1018888518
1120+1020699703+1025000274+1029060510+1030306386+1029338431+1028364002
1111+1027844771+1026735662+1025277499+1024967352+1026339557+1028979771
1103+1032552723+1036150383+1038195987+1038257446+1037214807+1035829030
1094+1034569094+1033744171+1033210184+1032928783+1033488244+1035466613
1085+1038499870+1040958562+1041493454+1041309496+1043318837+1048644020
1077+1055037734+1059128247+1059591031+1057738363+1055605269+1053880878
1068+1051828732+1049151558+1046815018+1046331631+1048649032+1053364570
1060+1059337679+1065678426+1071071401+1073741823+1073029585+1070026396
1051+1066290436+1062997703+1061887272+1064307822+1068575124+1071060126
1043+1070864196+1070161981+1069952200+1069000462+1067073947+1066553880
1034+1069086420+1072199998+1071825887+1068040719+1065152234+1065916673
1025+1068327132+1068770775+1066981237+1065649402+1065765219+1065506926
1017+1063992734+1062946197+1063438910+1063575748+1061170858+1057187463
1008+1054393080+1053549712+1053273670+1052947097+1052883412+1052544658
1000+1051311728+1050158770+1050570257+1052381163+1054177870+1055530795
991+1057719640+1061777579+1066223340+1067623594+1064383340+1058801604
983+1054127270+1051274212+1049326747+1047544795+1045836204+1044382983
974+1043443494+1042757218+1041523870+1039859407+1038976157+1038598914
965+1036084470+1030146162+1023570996+1019803576+1018555264+1016692991
957+1012806552+1008680543+1006025224+1004566505+1003789746+1003830393
948+1003728705+1001532621+997217294+993015349+990449887+988977177+987250559
938+984336600+980055517+975407005+972427898+972428733+974656973+977380014
928+979861188+982355447+984438706+984840658+983344005+981324989+979829589
918+978508611+976803640+975082799+974053732+973679482+973416038+972951932
908+971814286+969310422+966000149+963982594+964723856+967369360+969412737
898+968780820+965915443+963608901+963685115+964749609+964601148+963351164
888+962352584+961924670+961495435+960710741+959763596+959019342+958547649
878+957748548+955686657+952508279+949894652+949375908+950745955+952606835
868+953945213+954636014+955148772+956133710+957461926+957889283+956489934
858+953972706+951881791+950970352+950507220+948821806+945708576+943867741
848+945749224+949547686+950531094+946679873+941017886+937793710+938538869
838+941874617+945321867+947093727+946963293+946230105+946664143+948705919
828+950978844+952029138+951776831+951039885+950274610+949144134+947771999
818+947834293+951004805+956016501+959379880+959728169+958882991+958513265
808+958419720+957888935+956769734+955127334+953627132+954051426+957415711
798+961885624+964472523+964682721+964353225+964626413+964792484+963658875
788+961490841+960073604+960083418+959144625+955244683+951105519+951183891
778+956104895+962677208+967676166+969843574+969367774+966852148+962615540
768+957349032+953033426+951657394+953230470+956118537+958840186+960877925
758+962419750+963827730+964874057+964603166+962735395+960731970+960760367
748+964197456+970329396+975732603+976462172+971680929+965161931+962291821
738+965378324+972021283+977444048+978493995+975713880+971837464+969008349
728+967615682+967132087+967432837+968905547+971338835+973108467+972570513
718+970510292+968376920+965694665+962323212+960383751+960844447+961199904
708+959887697+959407025+961869685+964584374+963053894+957216301+950836020
698+945959005+942065396+939732823+940625678+943281275+943277098+938785121
688+932392243+927330434+925034541+925184324+925784224+924551224+922066083
678+922034623+926454423+932063791+933399106+928067241+916533764+900313842
668+886488370+885860141+896291192+907235348+914228127+917192200+916349806
658+912163521+905108658+896108765+889316440+889888151+896659734+901431025
648+898958481+892759444+888105016+886600290+887741694+890654887+893997039
638+895468843+892139081+883898408+876272250+874923920+880019207+887842269
628+894075341+895717184+893101887+889005110+886089619+885267480+885705625
618+885741470+882282805+873122688+861889892+855139328+855262315+859792434
608+865668657+871733222+877248558+879505335+874272096+861395996+848372965
##END=
