##TITLE=<SNM>
##JCAMP-DX=4.24
##DATA TYPE=INFRARED SPECTRUM
##DATE=3/5/2025
##SAMPLING PROCEDURE=Instrument type and / or accessory
##ORIGIN=Admin
##XUNITS=1/CM
##YUNITS=ABSORBANCE
##RESOLUTION=4
##FIRSTX=4497.3318
##LASTX=599.83466
##DELTAX=-1.4281778
##MAXY=1.7656161
##MINY=0.19988829
##XFACTOR=1
##YFACTOR=1.6443581e-09
##NPOINTS=2730
##FIRSTY=0.2189036
##XYDATA=(X++(Y..Y))
4497+133124045+133242902+133505600+133484957+133245693+133147606+133305249
4487+133469117+133506407+133763070+134667275+136033090+137002252+136791859
4477+135493974+134005061+133134575+132980367+133115364+133113932+132901691
4467+132729042+132824628+133174810+133623044+133946937+133922524+133637606
4457+133542845+133735911+133596465+132755630+131893399+131763994+131974912
4447+131692685+131089383+130932203+131163918+131086021+130673655+130645844
4437+131336096+132236713+132604793+132138372+131143492+130216613+129767410
4427+129853726+130263754+130586035+130498659+130164289+130068368+130333422
4417+130512850+130274819+129901546+129762390+129720324+129507630+129243537
4407+129138626+129169355+129405338+130126773+131277655+132176958+132045623
4397+130775920+129169129+128313867+128591155+129415515+129993906+130061336
4387+129835838+129594553+129398116+129070353+128375570+127191113+125623198
4377+124176460+123581522+124066493+125000585+125613592+125786450+125789386
4367+125688934+125470902+125341116+125412126+125336332+124698875+123642500
4357+122768498+122550584+123029175+123865144+124560000+124825770+124762562
4347+124545093+124170334+123703197+123412896+123415180+123531808+123697896
4337+124039325+124365412+124140466+123228385+122183546+121588355+121560072
4327+122001065+122753211+123374365+123360754+122811099+122378280+122424750
4317+122703605+122936109+123166084+123427332+123539828+123436829+123368710
4307+123578903+123949883+124144997+124050960+123968505+124241308+124694126
4297+124756228+124319032+124026411+124451573+125410631+126308529+126785009
4287+126817043+126555695+126155844+125587512+124729568+123717533+123011523
4277+123075111+123996724+125296966+126198000+126311447+125944201+125612605
4267+125522401+125613801+125800487+126017377+126191403+126278081+126276885
4257+126219097+126209609+126432516+127051903+128100439+129431220+130664357
4247+131243065+130824610+129727683+128734334+128346399+128444124+128675803
4237+128880622+129022651+128953689+128487549+127694054+126979198+126805996
4227+127341959+128317301+129166972+129462520+129317292+129169410+129141807
4217+128955900+128557598+128404142+128912729+129858946+130509651+130321017
4207+129514599+128875955+128883214+129293124+129741212+130278244+130949547
4197+131332344+131010109+130206944+129544848+129393422+129652160+129934604
4187+129870427+129411428+128864981+128531527+128490322+128843640+129776980
4177+131151304+132424042+133218217+133651317+134002052+134405275+134833273
4167+135092391+134952465+134384351+133530738+132624639+132064027+132116388
4157+132443118+132432017+132014332+131697325+131888986+132519338+133202105
4147+133581395+133546026+133131838+132373966+131452289+130795285+130755947
4137+131278770+132003946+132586850+132890907+132987472+133069138+133329344
4127+133803278+134262938+134383309+134100303+133699527+133522854+133710229
4117+134183646+134721330+135087190+135236885+135323218+135408320+135332888
4107+134972139+134455795+134077439+134086075+134466407+134842933+134846023
4097+134600207+134506090+134605681+134584086+134282304+133856607+133597797
4087+133748788+134289898+134899516+135230315+135090652+134418315+133396693
4077+132533457+132278588+132565237+132945460+133124797+133161725+133164235
4067+133072292+132857949+132688888+132719518+132909267+133171530+133535931
4057+134029501+134458523+134473793+133964137+133265530+132839263+132899788
4047+133436974+134272444+134940023+134844582+133802525+132361959+131429063
4037+131442166+132016923+132593293+133138145+133863069+134646306+135139940
4027+135174239+134876344+134581096+134530765+134591843+134616111+134915148
4017+135752231+136574000+136507023+135519402+134444033+133929475+133943231
4007+134304089+135084616+136207125+137119215+137304641+136862733+136257727
3997+135768208+135425637+135234021+135248838+135531046+136044372+136576873
3987+136902778+137075355+137355135+137751524+137906185+137681149+137576555
3977+138118191+139074122+139736336+139759127+139309843+138648725+138001871
3967+137694488+138014105+138873073+139766259+140207325+140185621+140052274
3957+140020149+140011350+139975646+140142450+140809974+141804048+142383154
3947+142203573+142077240+142890100+144105132+144311972+143233042+142053298
3937+141865434+142845162+144536827+146096623+146533864+145635775+144510267
3927+144396131+145242086+145980974+146045495+146089038+146961065+148421378
3917+149121906+147988251+145512170+143201661+142077457+142178544+143373666
3907+146114765+150808080+156462211+160824781+162463153+161426479+158085195
3897+153562155+150316394+150282185+152791433+154775194+154224805+153196087
3887+154435713+157236522+158893471+159211384+159834051+160054493+158253513
3878+155908650+155619645+157621457+160675222+163936560+166149263+165745534
3868+163910009+163397317+164227777+163936597+161533465+158821754+157961372
3858+160245140+166326987+174941354+180039540+176321423+168261795+161650546
3848+158461540+158706141+161356992+164998499+168914313+173064923+176614470
3838+177653590+175623160+172240191+168988603+166190767+164161062+163477570
3828+164022522+165212344+167622327+172431526+178153486+180621447+179408808
3818+177899206+176288473+172436093+167421096+164534235+165516319+169992998
3808+175355161+178434462+179924616+182810625+186398631+187024542+184918717
3798+183267549+182477833+181370294+180474588+181292506+184166843+188381195
3788+193318223+198653870+203913940+209001850+214894103+222459309+230973486
3778+239262980+247740583+257624680+269351224+282222063+294107828+302417965
3768+306853865+308940443+309745257+310734645+313934942+319590604+325744422
3758+331200938+337511928+347119561+361264281+378557245+394012148+404041091
3748+412076541+422943719+436376601+446894349+452989337+459794386+470788758
3738+485565642+501777221+516730778+527865357+534348451+538552999+543769879
3728+550902465+557934970+562687333+565626463+567735298+567650840+563997443
3718+558362950+554030194+553436162+556620365+560042790+558653876+552171108
3708+544856122+540205725+539112305+539999474+540496071+540322951+540702322
3698+541532618+542487172+545213636+551766508+561612834+570954299+575076708
3688+573444571+570194360+568259697+567772488+568404290+570936465+576660454
3678+584725157+589616059+586487316+580794391+579317902+579884204+576191333
3668+568052757+560599885+556572336+555691511+556747486+558632381+560359379
3658+560642222+558778750+556806969+558424064+565320023+575123867+581292003
3648+579330625+572486791+565571910+560643092+558377087+558866579+561078249
3638+563263639+564689961+566362950+569819737+575465141+581495499+584160268
3628+581865301+578350262+577328033+579444371+584409183+591543835+598502286
3618+602538932+603629597+603453034+603243520+604440066+608252482+613137694
3608+615552824+614395571+612051922+611054016+612134133+614640100+617466644
3598+619844511+621645165+623041582+624357673+626493259+630354828+634903948
3588+636778186+634399159+630786614+628951814+628761512+629052873+629661622
3578+630780886+632003675+632766768+632962579+633005207+633352317+633669487
3568+633086185+631694988+630651771+630363455+629854678+628145804+625589597
3558+623653448+623372961+623934370+623285821+620840968+618633684+618650068
3548+620358580+622017867+623190851+624231893+624384424+622627558+619662546
3538+617039426+615213108+614095293+614244200+615763497+617094957+616455471
3528+613971615+611460935+610617735+611543073+612544750+611684948+608766261
3518+605517283+603978520+604754481+606338155+606402567+604225768+601428693
3508+599961520+600066096+600637110+600606734+599570513+597564696+594703969
3498+591760852+590282297+590876365+592203149+592693947+592457211+592495671
3488+592892695+592745057+591503491+589640200+587958512+586723507+585729189
3478+584817227+583972758+583083885+581734047+579414249+576314359+573767286
3468+573155964+574358382+575885328+576438363+575924621+575040931+574261600
3458+573368812+572074941+570805827+570153654+570063505+570375890+571104184
3448+571529590+570637600+568958196+568177233+568705366+569206893+568469428
3438+566534439+564133409+561923878+560299244+559406166+559010774+558385569
3428+556783662+554510189+553072595+553590687+555210174+555742366+553993873
3418+550953430+548513579+547562649+547608974+547725294+547479279+547162472
3408+547254143+547808991+548376525+548235955+546882891+544703844+542844287
3398+542001631+541851057+541716178+541044902+539438392+537189495+535475582
3388+535173093+535891818+536626238+536889905+536742485+536206341+535505487
3378+535528468+536854564+538405071+538410689+536728493+534906054+534217198
3368+534563873+534937191+534712671+534581345+535482288+536747560+536793377
3358+535454051+533879149+532614675+531477648+530672363+530602042+530813803
3348+530195376+528564653+527379851+527962248+529453417+529827133+528655273
3338+527403268+527253165+527915741+528383630+528098794+527358139+526952053
3328+527411351+528386349+528784787+527819757+525983652+524629645+524607389
3318+525530770+526118603+525264420+523240804+521567634+521173510+521357034
3308+521164521+520818461+520863771+520871383+520203551+519379634+519461990
3298+520403422+520992850+520432130+519184765+518184466+517887885+518250655
3288+519095341+520144720+521019637+521529610+521961831+522828846+524118694
3278+525051391+524968818+524229323+523727361+523808339+524090276+523964096
3268+522983698+521343731+520089551+520155993+521164956+521693524+520676369
3258+518221657+515429983+513732563+513798715+514695490+514714665+513485497
3248+512428687+512656796+513498981+513760691+513454722+513247058+513025909
3238+512218340+510991745+510005619+509287365+508415855+507619814+507661753
3228+508580131+509312050+508798743+507115677+505261122+503930314+502851466
3218+501539108+500181078+499174834+498346242+497376572+496470880+495967178
3208+495862059+496015642+496215912+496093938+495519154+494816378+494207521
3198+493328544+491638410+489338802+487492113+486872852+487003236+486756533
3188+485750325+484651142+484155813+484106190+483758137+482780130+481637631
3178+480794684+479966418+478553291+476488280+474388073+473074120+472833252
3168+472966681+472414443+470932988+469221033+467989182+467375141+467103862
3158+466789229+466111030+464935435+463388988+461816660+460595792+459965222
3148+459864997+459797032+459100164+457627772+455936043+454618030+453745614
3138+453085104+452494842+451940284+451364449+450717640+450078117+449637088
3128+449439754+449202873+448571688+447445391+445975789+444441159+443151275
3118+442298759+441821155+441395205+440607827+439312143+437891368+436979333
3108+436809982+436977230+436860512+436246979+435517343+435137754+435073922
3098+434919143+434457235+433830906+433266018+432853915+432567048+432360435
3088+432180500+431853398+431142249+430063002+428966392+428200147+427795365
3078+427502736+427025241+426241995+425271310+424308456+423525173+423146201
3068+423277853+423545255+423320807+422469306+421436311+420482192+419367205
3058+417983801+416763295+416139214+415983674+415861772+415559319+415104878
3048+414470176+413536175+412371093+411347740+410796952+410578340+410174647
3038+409253948+408040004+407064752+406581929+406293214+405732422+404817342
3028+403824002+402948904+402130352+401178371+399966094+398672332+397790817
3018+397607004+397774252+397717125+397245503+396478061+395538296+394640434
3008+394119949+394077104+394178707+393972239+393209907+391854596+390126764
2998+388578105+387767130+387747048+388002995+387915311+387241425+386201761
2988+385188304+384439783+383962289+383612822+383227542+382811271+382513204
2978+382210859+381392525+379852313+378191684+377172029+376828253+376585645
2968+376015175+375128948+374136334+373284144+372839889+372885706+373119180
2958+373110226+372744484+372220157+371717507+371261942+370782889+370217167
2948+369658767+369277583+368933590+368160203+366810438+365447151+364799146
2938+364965815+365314230+365108849+364173724+362939299+361935992+361356568
2928+361014278+360555596+359777135+358824720+357974995+357252536+356538089
2918+355965697+355789532+355904764+355887112+355489290+354838421+354205351
2908+353752940+353405720+352885308+352012820+350981637+350167327+349690013
2898+349358018+348999526+348576222+347984655+347101111+346097586+345377520
2888+345103014+345041356+344856020+344319514+343401280+342401561+341781866
2878+341670041+341783896+341875857+341894017+341737209+341299804+340768119
2868+340451710+340279605+339822844+338908344+337909713+337265623+336935367
2858+336575606+336097278+335720988+335544243+335378626+335050654+334557210
2848+333865672+332947076+332086875+331685175+331636603+331394756+330760888
2838+330097260+329678741+329359469+328962227+328577093+328389654+328415064
2828+328410098+328074986+327443437+326880905+326539993+326125135+325398363
2818+324558135+323904620+323441915+322977905+322413524+321840480+321413044
2808+321110917+320692108+320013546+319272202+318694881+318161166+317432255
2798+316566436+315795804+315169838+314607088+314124845+313778097+313523310
2788+313296615+313077714+312812306+312408141+311815705+311041013+310157142
2778+309339859+308736983+308257024+307629753+306707822+305608058+304564008
2768+303724088+303101801+302666082+302407163+302254795+302005898+301485558
2758+300750268+300004720+299375872+298855804+298363974+297811482+297182199
2748+296520837+295792380+294921178+294025019+293367082+293015296+292747604
2738+292313897+291652988+290886017+290195620+289700763+289402660+289160976
2728+288701497+287850105+286849788+286211406+286141267+286303929+286215883
2718+285731211+285079165+284493017+283933221+283266186+282572980+282062500
2708+281769544+281547706+281284745+280960634+280564027+280082074+279558273
2698+279058413+278542568+277880934+277091000+276406312+275968636+275636188
2688+275257143+274915796+274713804+274519641+274147919+273620674+273067439
2678+272551413+272148335+271926806+271693061+271108581+270234769+269575980
2668+269419933+269500439+269427961+269127411+268725131+268253962+267667615
2658+267059392+266641942+266463512+266324954+266051989+265703754+265445125
2648+265305607+265126088+264768122+264330971+264004250+263741217+263339408
2638+262805185+262342643+262041749+261827324+261634267+261460041+261330165
2628+261268634+261212250+260992334+260512646+259885339+259308398+258897817
2618+258689246+258677756+258772508+258818470+258733976+258550181+258290446
2608+257918923+257445633+256996194+256715852+256628205+256626555+256606492
2598+256571350+256591504+256696152+256811348+256787098+256525007+256108354
2588+255744262+255548613+255458410+255365525+255240578+255088463+254882430
2578+254625504+254401709+254256935+254111925+253914519+253758163+253714828
2568+253704389+253667325+253706455+253934872+254328053+254801706+255295929
2558+255721987+255959629+255973802+255837401+255608187+255265915+254775970
2548+254154444+253504119+253004024+252763881+252674747+252504364+252149115
2538+251733061+251461781+251394831+251381637+251249894+250992388+250712790
2528+250520875+250532764+250791067+251143760+251354596+251320106+251078260
2518+250706591+250318357+250061305+250019602+250135631+250266396+250305852
2508+250217389+249994645+249694820+249451995+249314415+249148798+248841724
2498+248476797+248210973+248107449+248122727+248128146+247975433+247646447
2488+247277751+246975479+246703311+246390237+246033702+245658445+245294751
2478+245027893+244908837+244775318+244380595+243765177+243263378+243079873
2468+243089841+243082465+242983562+242813523+242591667+242330211+242068446
2458+241872997+241754992+241601663+241295476+240902022+240614504+240498728
2448+240413563+240210882+239923472+239713488+239675409+239720375+239644762
2438+239314452+238807705+238386377+238273881+238419925+238543168+238442815
2428+238171916+237869245+237588142+237375240+237347981+237572393+237950078
2418+238292730+238469693+238475493+238396617+238331316+238331244+238384438
2408+238428697+238412530+238371497+238407546+238572655+238807977+239001741
2398+239087123+239094155+239119275+239240107+239461945+239745277+240064404
2388+240432956+240867786+241314108+241611323+241567535+241100027+240317778
2378+239474306+238827968+238500812+238456354+238650770+239159039+240015397
2368+240981677+241684797+241929272+241701888+241097598+240479009+240465887
2358+241533770+243699768+246708766+250547082+255424591+260933521+265797310
2348+268818742+269892298+270190854+270966162+272006298+272159010+270925492
2338+268709019+266083524+263329476+260532582+257874936+255623846+253830749
2328+252254343+250592211+248687579+246704507+245175985+244562886+244678173
2318+244829943+244555057+243966643+243408062+243055623+242910631+242931111
2308+243034183+243097888+243051382+242910414+242728141+242527073+242247529
2298+241828974+241399435+241220660+241341112+241492103+241417958+241129460
2288+240796033+240568867+240523648+240629112+240740755+240684063+240370192
2278+239855544+239320397+238964931+238876268+238983870+239132614+239155776
2268+238918733+238434224+237936830+237680049+237643529+237588577+237392041
2258+237175568+237108020+237199927+237308091+237273691+237039584+236684227
2248+236358974+236147884+236010848+235923182+235956911+236104459+236198250
2238+236162256+236161603+236374868+236784434+237259156+237714702+238154299
2228+238599008+239007395+239330202+239650453+240145799+240883337+241754502
2218+242633207+243507889+244433082+245439616+246565369+247895090+249441446
2208+251035252+252477286+253786309+255182092+256802159+258519261+260105908
2198+261522080+262935932+264488378+266118250+267622976+268907477+270129559
2188+271447807+272722975+273723890+274477757+275150646+275788792+276361310
2178+276845474+277220007+277500983+277686210+277649183+277256961+276546066
2168+275677112+274779467+273846607+272781298+271598345+270438337+269325597
2158+268145744+266855697+265512329+264184638+262945429+261881659+261134716
2148+260811873+260803264+261181494+262834981+266843427+273153800+280698597
2138+288662313+296859030+305238873+313731700+322290643+330867747+339560917
2128+348580717+357978692+367663389+377457518+386954486+395705943+403514010
2118+410236703+415655920+419752593+422842370+425574525+428953742+433980248
2108+441095000+450173268+460982159+473190077+485643938+496221385+503279590
2098+506824461+507633370+506300098+503439589+499508460+494386404+487728377
2088+479161278+468179194+454563368+438617995+420987670+402697125+384807664
2078+367867863+352257203+338485258+326646489+316445585+307857462+300932632
2068+295352456+290770586+286965854+283592635+280482958+277818587+275616106
2058+273712236+272202889+271248190+270848828+271111625+272177660+274027485
2048+276807595+280934554+286795180+294812887+305474158+318928318+335037786
2038+353722636+374577617+396436049+417753083+437008295+452943120+465124831
2028+473920292+479805803+483290683+485018370+485392667+484469286+482112406
2018+478080762+472402300+465551542+457895137+449320679+439548118+428518911
2008+416522101+404011078+391320699+378731453+366641885+355341181+344783742
1998+334873800+325819202+317962490+311290471+305317712+299603890+294201184
1988+289377359+285219046+281687750+278697782+276054671+273605178+271395066
1978+269518545+267969832+266667207+265491667+264434858+263722476+263495147
1968+263414804+262951138+262039954+261108327+260479497+260087204+259785675
1958+259619587+259621399+259607679+259403803+259095604+258921668+259051581
1948+259538011+260386612+261498700+262413055+262404536+261310174+259902665
1938+258991554+258677538+258650878+258672645+258642595+258551921+258471867
1928+258588658+259249930+260595581+262077235+263018396+263619369+264388678
1918+264892688+264356671+263188218+262565024+262990666+264040190+264992188
1908+265415474+265401555+265322643+265370110+265485541+265670895+266092677
1898+266825720+267611014+268057208+268267048+268885003+270041277+270767795
1888+270230564+268972034+268026452+267686645+267679269+267744026+267753994
1878+267742322+267872362+268259218+269125980+271008935+274060670+276968681
1868+277572083+275491141+272685530+270931962+270419670+270464943+270549419
1858+270576007+270613252+270705847+270876213+271231443+271960897+273252177
1848+275380041+278478464+281541399+282378600+280363847+277660419+276228606
1838+276117017+276472483+277002954+278376534+281191099+284584851+286561562
1828+286560384+285988010+285522894+284464363+282751519+281446339+281185553
1818+281600501+282168217+282970113+284409012+286352465+287888328+288258710
1808+287816285+287616849+288492437+290672879+293629209+296114135+297077624
1798+296912986+297261528+299483021+303242044+306029477+305427652+302589653
1788+300606418+300819901+302458128+304374540+306198973+307736104+308586010
1778+309105806+310710178+314568665+320075493+324400348+325040958+322870901
1768+320097424+318035711+317794372+320000714+323388196+325648438+326485802
1758+327249837+328204391+329205524+331444633+336049684+341765083+345575832
1748+346331458+345682474+345463500+346425775+348458416+350658813+351995783
1738+353206320+356569081+362454809+366760162+365461614+361043567+357084056
1728+354442630+353257937+353537301+354784992+357122660+361930989+369953427
1718+378598205+382363753+379554753+374342404+370503127+369317710+370945860
1708+374976961+379961637+384047073+387516982+392588907+399459275+404586768
1698+405778384+404336403+400688045+395975809+393343518+394187189+397478976
1688+402532197+410312498+420119169+425831704+423354264+418013850+415258932
1678+416486796+420744918+425482636+428780984+431798446+435881599+438979568
1668+438535241+436788161+437561366+441181415+444749774+446140246+446927516
1658+450126544+457795129+470596209+484884289+490773714+488491868+488450509
1648+493240461+497898543+497463748+494431243+493595401+496573462+503303514
1638+513189459+523634421+529188589+528192712+526326739+528155703+533821406
1628+541207111+548737555+556617755+564890086+572284744+578737536+586549118
1618+597220304+608139679+614545203+616549063+617591700+619065325+620531265
1608+621623199+622656339+624195500+626540164+629650022+633618450+638921311
1598+645858665+653957187+662091521+669263037+675469270+681527249+687781908
1588+693559618+698183699+701831187+705050732+708210395+711922187+717364893
1578+725259991+733877366+739572720+742681418+747644200+756763610+768120607
1568+778162310+786591920+795688421+806873965+821231352+841018322+865879210
1558+884523354+888641558+886695767+884934986+883517980+881519195+878762391
1548+876362196+876140576+878728318+883143684+887754861+889044201+882113806
1538+869971316+860597591+855876292+852743380+847989024+842404734+839002499
1528+838690404+840370498+843461870+848013237+851798613+851208351+847270807
1518+844113536+842485929+840884421+839437837+839903696+843569889+850191741
1508+856800688+856760598+847946614+838554039+834119390+834307662+837179009
1498+840366148+841128370+838696856+836095485+836712063+840678461+844490732
1488+844287381+840126186+834980062+831346855+829890339+829804577+830332347
1478+831790603+834769461+838847938+842062263+841758505+837841912+833759303
1468+832361364+833533840+834881323+834501154+833939963+836046260+841077986
1458+845466745+844321527+838635670+833451703+830401581+828915849+828461227
1448+828219090+827096056+825038766+823033528+821915496+822303132+824635398
1438+827702557+827934616+823737246+818875958+816752697+816611693+815957634
1428+814165535+812570261+811812026+811670804+812722648+815530416+817987593
1418+816470688+811513488+807129731+805182127+804643990+803793975+802113519
1408+800410517+799224701+798029460+796662694+796292965+797675752+799817573
1398+801340495+802125698+802424309+801692608+799912035+798555201+798837717
1388+799908627+799622631+797825384+797278547+800154316+805598327+811263812
1378+816255520+821321029+826366892+829777101+831031498+831835768+833592562
1368+836086568+838877371+842028770+845018503+846339379+845064828+842169340
1358+839499532+837860471+836535317+834780263+833267200+833176725+834479550
1348+836083088+837258609+838272030+839910294+842680291+846122543+848915377
1338+850229293+850838259+852080985+854088180+855841567+856851580+858066612
1328+860868290+865547904+871037804+876119189+880636339+885162768+889683470
1318+893509008+896698975+900316885+904836572+909564032+914060666+918834233
1308+923841818+927658512+929340273+930045296+931494417+933786667+935854613
1298+937217392+937991866+937870001+936572178+934752458+933043728+930772720
1288+926952764+922078789+917765208+915059732+913885515+913576973+913332444
1278+912548183+911293351+910290877+910113479+910614571+911290886+911783858
1268+911872448+911664965+912000114+913830129+916955936+919933054+921432271
1258+921469171+921296123+922201815+924256278+926180247+926568101+925156967
1248+922964545+921302648+920453648+919396005+917215762+914336223+911632559
1238+909039089+906005642+902825752+900440853+899053933+897868407+896347587
1228+894978211+894247162+893678214+892607231+891207915+890208341+890018619
1218+890407487+890844203+891165722+891948606+893893309+896771108+899517472
1208+901624059+903687656+906063856+907947663+908764185+909454563+911237239
1198+914002596+916957966+919867011+922674561+925022632+926833653+928449660
1188+929944889+931099459+932028712+933234247+935023085+937151783+939121208
1178+940644565+941837703+943041209+944471264+946151502+948059015+950250495
1168+952690563+954932211+956483261+957664365+959554117+962869066+967332786
1158+972214228+976896669+980623033+982337779+981674151+979762723+978246398
1148+977766040+978038842+979031819+980946799+983067741+984078987+984228546
1138+985630980+989507555+994342817+997461593+997794131+996732936+996593599
1128+998013504+999207077+999104858+999845042+1003518629+1008211363+1010279020
1118+1009501429+1009028393+1011261195+1015653289+1019447074+1020512910
1110+1019857619+1020047486+1021794421+1024135605+1026963599+1030577087
1101+1033613289+1034442353+1033571531+1032266749+1030337342+1027460631
1093+1025112995+1025221376+1027920400+1031666918+1034847460+1036651667
1084+1037217932+1037217787+1037156311+1037602088+1039401873+1042561536
1075+1045817981+1048312131+1050492374+1052467019+1053156600+1052675300
1067+1053424328+1056738770+1060301148+1061109478+1060195086+1061122382
1058+1064477059+1067435546+1068215095+1067545740+1065959601+1063088327
1050+1059750614+1057781189+1057890658+1059036239+1059645712+1059069659
1041+1058016003+1058045582+1060424463+1064920227+1069818995+1073198248
1033+1073741823+1071139074+1067103660+1064478002+1064275013+1064773640
1024+1063526492+1060107439+1056841714+1056373028+1058569727+1060649273
1015+1060672472+1059576188+1059226540+1060491087+1063465813+1066866888
1007+1067728865+1064493081+1059490716+1055698090+1053282671+1051543420
998+1050943589+1051208852+1050531377+1048022583+1045042709+1043394297
990+1043411551+1043806726+1042435900+1038223741+1033045501+1029922376
981+1029393445+1029564101+1029543802+1030443911+1032264357+1032850849
973+1031250646+1029100489+1027410319+1024747543+1019815064+1013634857
964+1008061079+1003995579+1001657223+1000688314+999396654+995805495+990271807
954+985307430+982486613+981078452+979657822+977765098+975858962+974455440
944+973361476+971627011+968673091+965331028+963122222+962655493+963099893
934+963138099+962261333+960955463+959803648+958771233+957661610+956903375
924+956922152+957240844+957000375+956192335+955665507+955926637+956767590
914+957793698+958710047+959044760+958506188+957543007+956936071+957172335
904+957843503+957697423+956187913+954406397+953350132+952476483+951222158
894+950274056+949997919+949493275+948117519+946263943+944620460+943947263
884+944930743+947052337+948624411+948772158+948121217+946890018+944362085
874+941159576+939550891+940317391+941397508+940763241+939011812+937895882
864+937550873+936614081+934655168+932923457+932330876+932118100+931568943
854+931500725+932688136+934701493+937253423+940743305+944575513+946732702
844+945772131+942135807+937509841+933648634+931105549+929159758+927540924
834+927417028+929993896+934529388+938106990+938085748+935383462+933993425
824+936223835+940103238+942568318+943233758+943265366+943165032+943423407
814+945071022+948293975+951318070+951693599+948835519+944710138+941927018
804+941415777+942026555+942245711+942273912+943807418+946958164+949011829
794+948167397+946797803+948324133+952567900+956628616+958770726+959269570
784+958915935+958151248+956885686+955186744+954111846+954860295+957232362
774+959874404+961391309+960762479+958368301+956443751+956506967+957170740
764+956271863+953888486+951684102+950991186+952352225+955253078+957839950
754+957932673+954936270+950815166+948677551+949476673+950792910+950359891
744+949091792+948400471+947664347+947038925+949007987+954273585+959505037
734+961800259+961755021+960834033+960496782+962733354+967446170+970602498
724+968558475+963005069+958466315+957051049+957641819+958376565+958209535
714+956478404+952966411+949155951+947802162+950347495+954725670+956604039
704+953838102+948246272+942338650+937159105+933744256+933097955+933779344
694+932777958+928921464+923941065+920241380+919591599+922797442+927861573
684+930656799+929108938+924676971+919491192+914279023+909329508+905318308
674+902305666+898876246+893091867+885338861+881282568+886435579+894592243
664+896535787+891774906+886126747+884717498+887966694+893224679+897475624
654+898286854+894663724+887619438+878945226+870433695+863924067+860845382
644+861368295+863595515+864622565+863254567+860777163+859930410+863371793
634+870549254+877181327+880879925+883161445+884004790+880632714+872879491
624+863966477+855221799+845664369+837073310+834488394+839792850+848248197
614+853769198+856320040+859692914+863775378+866462150+867906342+867858422
604+864760235+859939835+857543482+859549372
##END=
