##TITLE=<SNM>
##JCAMP-DX=4.24
##DATA TYPE=INFRARED SPECTRUM
##DATE=2/5/2025
##SAMPLING PROCEDURE=Instrument type and / or accessory
##ORIGIN=Admin
##XUNITS=1/CM
##YUNITS=ABSORBANCE
##RESOLUTION=4
##FIRSTX=4497.3318
##LASTX=599.83466
##DELTAX=-1.4281778
##MAXY=1.8672632
##MINY=0.39226544
##XFACTOR=1
##YFACTOR=1.7390244e-09
##NPOINTS=2730
##FIRSTY=0.41674832
##XYDATA=(X++(Y..Y))
4497+239644896+239104435+238519982+238284206+238343844+238169197+237324855
4487+236062687+235231952+235457446+236415340+237180113+237307083+237172744
4477+237225407+237394381+237389137+237260127+237366704+237779732+237973968
4467+237433814+236470814+235970556+236377346+237368675+238382317+239068361
4457+239349911+239292278+238897552+238065875+236900002+235951174+235918561
4447+236953951+238280195+238799766+238208493+237118607+236248730+236074186
4437+236873096+238328523+239346843+239068172+237853543+236642067+235829567
4427+235348229+235160712+235051890+234613259+233931208+233619770+233960753
4417+234665219+235445278+236168887+236588530+236582498+236526150+236890217
4407+237560837+237877433+237324118+236009390+234498130+233332582+232747358
4397+232724874+233126197+233671525+233933487+233615366+232887816+232235773
4387+231927488+231760039+231294759+230352563+229328742+228864267+229120026
4377+229657539+230133393+230664515+231308949+231701224+231547484+231138432
4367+230987229+231090739+230905758+230100524+229036858+228378063+228433931
4357+228983903+229573618+229924900+230148337+230527330+231057201+231328605
4347+230923649+229808537+228366204+227171625+226679680+227033995+228072846
4337+229360086+230266791+230372425+229876949+229345605+229072812+228944076
4327+228768966+228500544+228257484+228240861+228517304+228936450+229394686
4317+229939998+230439792+230528478+230067757+229329633+228675208+228361508
4307+228539205+229018572+229262814+229035692+228750115+228845536+229201257
4297+229413949+229288914+228920649+228572932+228561158+229119254+230217109
4287+231315478+231482242+230223536+228138379+226364883+225566384+225684923
4277+226238769+226607206+226477647+226239112+226577284+227565391+228479807
4267+228650016+228242129+227954170+228140693+228527998+228704941+228593634
4257+228366615+228149416+227965669+227833334+227772582+227828570+228152398
4247+228799282+229295872+228890642+227566711+226322262+226083093+226712086
4237+227369836+227547020+227469816+227696372+228497630+229537012+230171661
4227+230171215+229985052+230062496+230139151+229732413+229101037+228945053
4217+229322709+229660710+229679647+229586916+229544724+229543405+229544895
4207+229436930+229157385+228850060+228562461+228111851+227587567+227451359
4197+227800859+228107858+227981589+227666776+227615449+227965960+228425533
4187+228517921+228170049+227982103+228488702+229338287+229747408+229445499
4177+228713544+228000869+227794346+228339709+229339692+230274160+230982225
4167+231687325+232498780+233031975+232662288+231285539+229569933+228334996
4157+228037389+228713904+229831021+230403547+229929013+228996534+228515573
4147+228745728+229328930+229793336+229836334+229451205+228941848+228695584
4137+228839504+229125989+229207066+228981230+228607361+228321304+228320892
4127+228643795+229129006+229652227+230233732+230711900+230675706+230077868
4117+229465687+229284596+229382519+229366341+229082323+228638979+228260792
4107+228154317+228299882+228509404+228824543+229483732+230324132+230715618
4097+230340978+229592280+228960802+228451136+227820738+227106692+226639098
4087+226655704+227118585+227789137+228256970+228083865+227247458+226298322
4077+225870847+226202592+227100162+228049145+228418747+227999481+227364249
4067+227298785+227800070+228044158+227564945+226959636+226985565+227487330
4057+227770080+227563077+227062580+226500526+226194486+226607291+227867026
4047+229395543+230337054+230324149+229661224+228857310+228221650+227878234
4037+227857686+228043935+228240278+228408413+228698874+229178550+229699355
4027+230148937+230636015+231210289+231524966+231100233+229979037+228878731
4017+228491461+228703947+228790936+228402535+227968239+228010809+228544244
4007+229312667+230128509+230835255+231362949+231845195+232349102+232610242
3997+232340054+231642888+230921216+230525085+230559480+230788538+230806995
3987+230603677+230666211+231172484+231552642+231323499+230841510+230760501
3977+231202766+231819489+232272053+232420839+232335855+232236852+232246055
3967+232285128+232381526+232824630+233679203+234412683+234505944+234206451
3957+234109437+234307716+234542858+234924559+235882796+237331436+238335960
3947+238138092+237283194+236889051+237067297+237010453+236461679+236055146
3937+236390936+237657937+239706660+241775707+242585414+241626954+240106423
3927+239693481+240602910+241418204+240995699+240061832+240145308+241551379
3917+242802767+242086990+239470455+236884047+235843054+236343449+238210926
3907+242241107+248781742+255838316+260304317+261287043+259695272+255690694
3897+249979422+245432995+244753807+247539848+250068725+249534570+248309967
3887+249732250+252768839+254097826+253831237+253945475+253006518+249244366
3878+245749317+246367856+250743612+256110543+260735185+263179850+261914168
3868+258945837+258103380+259399618+259182161+255753691+251868750+250883299
3858+254288959+262367212+273305385+279400534+273775378+262664032+253835110
3848+249680204+250009824+253493734+258432315+263892182+269629708+274231215
3838+275035318+271940341+268021108+264934357+261844642+258467738+256354665
3828+256509193+258279141+261578601+267416381+274255293+277226092+275607432
3818+273424730+271068769+266072519+259626328+255587407+256130508+260944021
3808+267162320+271427197+274408724+278735604+282721982+282130416+278295859
3798+275254848+272960375+269869135+266971204+266253302+268032385+271466339
3788+275959606+280986068+285651600+289959783+295423008+302772614+310332427
3778+316529920+322606630+330781435+341944313+355438012+368946655+379556579
3768+386581534+390960032+393016346+394064674+396746948+401379285+404702703
3758+404583015+404019881+407789179+417683823+429944351+436702717+436613397
3748+437286244+443427733+452317784+457802020+460371633+466198274+478424629
3738+495640156+512815890+524607916+530313430+533182227+536184936+540859226
3728+547722472+555968466+564248768+572386830+580094915+585148249+586176972
3718+585071337+584900374+587765470+593418269+597841838+596403121+589775959
3708+581754979+575417370+573075410+574716657+576725981+575742021+572909246
3698+571148175+571789798+574956443+580628094+588415594+595839507+598027608
3688+593753888+588596564+587392903+589923340+593025686+594461661+595454670
3678+598291592+601523496+601465709+599900518+600624538+601055371+595904286
3668+587066402+580289116+576657705+573879359+570936322+569484204+570999765
3658+574030168+575764505+576811599+581041996+590093069+599888933+601555029
3648+592076344+579143311+569549874+564549906+562830924+562837196+563658865
3638+565049598+566843436+568800422+571555050+576631931+583683209+587816128
3628+584631317+578580794+575728379+576623568+578936360+580061395+578949042
3618+577988594+580392900+585626588+590051596+591667240+592168474+592896470
3608+592435269+590189107+588394686+589044604+591673410+594465500+596504917
3598+598382420+600500737+601845885+601409156+600495459+601696858+605530421
3588+609057089+608886332+605772127+602807154+601335670+601361514+602550162
3578+603570385+602691717+599970987+597747446+598919917+604914024+613839857
3568+620063126+619001499+612912040+607195421+604413201+604370358+605960981
3558+607744845+608656828+608924582+609380231+610161627+610969894+611810106
3548+612195560+610664506+606677598+601669369+597551463+595606370+596139205
3538+598022672+599317435+599286314+598950764+599043032+598798721+597254575
3528+594625700+592258548+591500116+592263827+592778496+591530484+589002926
3518+586393246+583826340+581086004+579103278+579252168+581127888+582366235
3508+581683825+580614932+580921349+581910861+581464055+578766700+574823286
3498+571382820+570179193+571832847+575065437+577783700+578779382+577880560
3488+575308582+571813208+568716655+566801518+565622089+564436114+563052545
3478+561452667+559655676+558267000+558115985+559079928+559998629+559727173
3468+558010556+555745268+554332051+554160301+554080063+553011822+551364885
3458+550085134+549122116+547682062+545515006+543432335+542674348+543720071
3448+545552194+546609639+546579649+546329992+546165850+545369647+543496840
3438+541116252+539074230+537693163+536843800+536393841+536515379+537410979
3428+538499203+538532346+537225587+536009724+536219828+537204508+537107853
3418+535138254+532245601+529841809+528514622+527859117+527318810+527016849
3408+527395277+528259995+528847670+528624061+527631121+526304483+525093212
3398+524049820+522874676+521500052+520208922+519188597+518513898+518268696
3388+518218107+517857982+517192434+516801120+516968586+517265680+516916660
3378+515712108+514647362+515053381+516868881+518491825+518746898+518084367
3368+517349002+516568154+515537957+514692982+514786655+516027744+517765063
3358+518963994+518983496+517836320+515911792+513769860+512039121+511056567
3348+510561776+510125973+509878200+510221839+510820345+510621894+509321681
3338+508133238+508424197+509981676+511262455+511249911+510346017+509302487
3328+508123367+506624943+505357462+504965153+505056427+504830282+504484484
3318+504799915+505630666+505994493+505408086+504212582+503005939+502340906
3308+502471048+503129637+503884504+504537781+504822845+504213234+502608866
3298+500833434+499890535+499940576+500420491+500900235+501388205+501864453
3288+501912060+501126483+499860819+499248158+500184133+502347110+504547447
3278+506019308+506907333+507508683+507615689+506794946+505036274+502994286
3268+501556254+501090117+501158838+501004396+500267455+499265021+498593270
3258+498411853+498410037+498611264+499406438+500407296+500415830+499146773
3248+497748568+497021943+496415006+495344639+494283664+493895160+494010357
3238+493888853+492933478+491116847+489177581+488178438+488387720+488895192
3228+488806009+488395808+488394643+488526361+487680597+485606528+483608447
3218+483096451+483894264+484366468+483179704+480672128+478287496+476955407
3208+476444679+476181106+476040271+476038763+475874621+475319781+474664448
3198+474280057+474055728+473648133+472967368+472091853+471050243+470009421
3188+469326120+469005651+468464898+467337087+466078895+465193269+464423766
3178+463357170+462207697+461292116+460324299+458898915+457242450+456025045
3168+455526347+455198063+454365118+453210127+452380027+451779670+450681027
3158+449046840+447837593+447780148+448459611+448817645+448196586+446689320
3148+444767534+442990559+441857675+441432771+441259752+440950319+440476676
3138+439775997+438753410+437662718+436771952+435855239+434664808+433496210
3128+432777640+432530244+432441061+432154010+431538984+430842692+430368432
3118+430031032+429481162+428582683+427615244+427033327+427026849+427322366
3108+427530585+427604584+427708402+427744905+427334568+426307661+425015537
3098+424009162+423465084+423071781+422473310+421628745+420702915+419857391
3088+419228210+418888787+418751071+418635770+418480197+418331479+418105951
3078+417594949+416776844+415815917+414707883+413338846+411923778+410937282
3068+410590490+410657806+410691772+410256380+409261006+408143512+407453424
3058+407344327+407601114+407871130+407782427+407182413+406311869+405509565
3048+404847617+404268133+403817180+403483961+403069545+402475392+401946807
3038+401754319+401752023+401533590+400942522+400142583+399258843+398244858
3028+397098779+395994309+395106935+394389050+393630961+392735636+391815359
3018+391025222+390444574+390072727+389821870+389599118+389383393+389079890
3008+388468737+387544929+386684255+386206397+385972506+385609056+384946696
2998+384076289+383151110+382357924+381935487+381901041+381829064+381257498
2988+380249615+379204611+378291566+377472022+376836740+376478020+376204987
2978+375732715+375036149+374323406+373792455+373538685+373567681+373728841
2968+373668141+373052189+371939356+370738368+369702345+368741110+367820489
2958+367168172+366941170+366996079+367039813+366823608+366289881+365655113
2948+365192472+364904496+364580119+364088311+363451794+362755262+362094685
2938+361532510+361066408+360677115+360389584+360185924+359870287+359206899
2928+358253375+357354897+356731919+356269895+355730684+354991858+354145031
2918+353460804+353105820+352954086+352881698+352986681+353251694+353338786
2908+352963272+352188662+351278290+350472833+349873093+349402947+348909219
2898+348291964+347544500+346795014+346275992+346070891+345950827+345650340
2888+345218821+344901745+344753061+344583298+344297721+344043505+343925531
2878+343801114+343513686+343134059+342794087+342431117+341895060+341250592
2868+340757995+340504979+340283290+339962649+339738424+339797650+339936566
2858+339715699+338899206+337694311+336637997+336159556+336126926+335941397
2848+335196058+334093782+333132032+332601013+332477213+332569446+332664798
2838+332662879+332602316+332515086+332341108+332018925+331541957+330928302
2828+330243732+329626992+329192971+328888097+328493149+327863453+327128362
2818+326497981+325970903+325498597+325275057+325477827+325882612+326100633
2808+325976387+325485744+324615885+323593537+322842646+322516522+322369620
2798+322136689+321758398+321262340+320672745+320007129+319270976+318563682
2788+318123217+318002227+317835206+317264531+316435631+315754283+315358992
2778+315087296+314757058+314298188+313723880+313064845+312358065+311713117
2768+311264837+310999859+310786944+310566420+310315495+309938850+309416434
2758+308882090+308371602+307721410+306872355+306040987+305456533+305123040
2748+304945017+304896655+304911256+304761887+304279572+303625267+303127872
2738+302881813+302675102+302281251+301685076+301058053+300601137+300351582
2728+300090922+299538242+298693678+297889386+297438193+297307572+297198373
2718+296893121+296449846+296028918+295629034+295145520+294635066+294280254
2708+294061444+293723666+293159572+292576558+292169545+291855486+291465233
2698+291008933+290613163+290323301+290066480+289745326+289343831+288952756
2688+288647985+288390410+288130299+287889073+287628962+287236927+286761399
2678+286444803+286419371+286546925+286603873+286497467+286259480+285877179
2668+285235161+284338825+283488520+283022674+282951331+283001098+282928521
2658+282696327+282444476+282319682+282287566+282179601+281923637+281578096
2648+281155317+280594033+279923619+279324307+278980909+278899883+278904082
2638+278816767+278598214+278302080+278004849+277792277+277697199+277640423
2628+277515423+277318189+277144878+277078488+277077785+276977789+276676514
2618+276303793+276067434+275973230+275877980+275758927+275729725+275809876
2608+275828642+275577613+275033998+274420360+274000220+273828932+273785180
2598+273797142+273892975+274043526+274110911+274000614+273774932+273559070
2588+273391278+273236064+273114355+273106849+273214231+273305694+273227547
2578+272927283+272485139+272058109+271802900+271817912+272082650+272437565
2568+272713803+272888536+273011428+273034426+272903428+272769568+272866908
2558+273154199+273301461+273121775+272837192+272776508+272931156+272978198
2548+272686417+272149640+271641397+271367336+271355683+271468926+271477684
2538+271198173+270637009+269998968+269514014+269270663+269227717+269292342
2528+269322726+269183211+268914891+268724495+268684016+268615055+268390761
2518+268120642+267902192+267659886+267378542+267219507+267254313+267325776
2508+267291381+267220621+267255976+267400067+267513568+267474854+267290610
2498+267059273+266876177+266785743+266750731+266650837+266412542+266151506
2488+266072280+266212001+266390658+266410109+266209927+265872166+265578020
2478+265497269+265604652+265665627+265497509+265163244+264829357+264543797
2468+264257808+263988614+263828260+263781320+263706207+263494972+263219660
2458+262998056+262828053+262680998+262615070+262646072+262651795+262535141
2448+262355010+262204167+262074471+261910141+261705675+261495999+261292973
2438+261082800+260883526+260758595+260745845+260807539+260883321+260951819
2428+260997867+260959393+260786580+260548662+260397579+260400218+260470858
2418+260506692+260518946+260565422+260620022+260606620+260528851+260475520
2408+260509023+260610048+260710884+260755253+260758115+260802895+260943541
2398+261174159+261556683+262321472+263813093+266428531+270636512+276982399
2388+286042692+298369781+314411055+334385083+358182187+385341679+415083637
2378+446401617+478241328+509585014+539329680+566413836+590385981+611291597
2368+628278032+639374828+644243970+645414316+644851867+641902798+635446941
2358+624895593+609215438+587675122+561364273+534192168+512373335+501083640
2348+502173645+514148013+531969723+548417393+558816664+563077154+563453456
2338+562553401+562082329+562726420+564556076+566582914+566868045+564327531
2328+559794146+554606352+549030329+542571044+535127114+527033541+518233667
2318+508419912+497979306+487871165+478491979+469221856+459153919+447961530
2308+435967900+423674949+411494144+399792158+388856247+378726856+369217357
2298+360151683+351503030+343314035+335580073+328258538+321341377+314855770
2288+308822144+303279058+298324675+294070458+290550577+287668926+285207399
2278+282929378+280736993+278710789+276969957+275528326+274306174+273225371
2268+272232688+271270733+270320482+269446304+268696098+267998264+267266566
2258+266546968+265951118+265488392+265033069+264449524+263742041+263069365
2248+262578602+262262331+262013565+261743292+261409215+261023384+260647270
2238+260310624+259982460+259682076+259504653+259455400+259395265+259236950
2228+259048901+258885582+258686566+258440764+258276725+258280478+258358436
2218+258358762+258226958+258011164+257804967+257696419+257714122+257808720
2208+257895658+257910585+257834906+257693883+257543022+257450772+257467789
2198+257581479+257718766+257823270+257916669+258057127+258244884+258397886
2188+258425769+258320545+258179059+258122197+258165846+258200772+258133474
2178+257989160+257849387+257773640+257791257+257865634+257885770+257782791
2168+257602061+257419976+257289783+257254052+257277513+257214773+256978397
2158+256670901+256449657+256346062+256291994+256237720+256181320+256142213
2148+256136609+256164509+256244866+256447447+256803030+257211637+257579679
2138+257996255+258599593+259340939+260082834+260852970+261811481+263033085
2128+264462685+266037062+267759540+269677607+271820808+274150567+276563424
2118+278941236+281181143+283175454+284801414+285961803+286613418+286732797
2108+286289641+285276103+283731425+281747893+279497292+277237951+275223795
2098+273544469+272056704+270543971+268963698+267472061+266238615+265330659
2088+264707133+264226806+263743087+263243721+262815252+262513188+262361403
2078+262374564+262495742+262610700+262641153+262545441+262323238+262130545
2068+262239419+262712359+263235649+263464519+263423663+263355079+263339758
2058+263327779+263357701+263460234+263515554+263442857+263373656+263487106
2048+263811465+264249633+264691298+265057027+265271467+265282143+265175806
2038+265168728+265373674+265695429+265999034+266221580+266340942+266398010
2028+266486404+266642474+266850505+267143212+267593839+268260380+269122133
2018+269938113+270315169+270141585+269775068+269613205+269686125+269769858
2008+269709860+269543919+269411155+269427059+269654043+270089779+270563987
1998+270812565+270911173+271379092+272449476+273508189+273760297+273219201
1988+272510125+272069437+271961060+272059103+272137061+272070054+272007280
1978+272137764+272412648+272665047+272848074+273106112+273710136+274747239
1968+275759835+276053758+275560185+274938560+274709485+274819301+275091597
1958+275552319+276154783+276638880+276856593+276956059+277164141+277613209
1948+278433815+279819406+281733240+283448761+283828594+282624864+280974894
1938+280036623+279882540+279983205+280068652+280210036+280467611+280766675
1928+281127708+281904203+283368284+285024286+286112201+286801518+287637017
1918+288034878+286986773+285064027+283936919+284348148+285614669+286571294
1908+286631309+286115594+285686646+285608996+285684486+285729352+285899355
1898+286519145+287560961+288513662+289195456+290199638+291707899+292608674
1888+291970855+290562505+289627146+289368201+289387497+289511366+289710742
1878+289897060+290080739+290522095+291838760+294832146+299501774+303875233
1868+304928428+302123210+298215750+295803904+295283750+295658476+295993820
1858+296049517+296073338+296328890+296842052+297596405+298739126+300499478
1848+303223224+307112656+310965516+311988789+309315734+305757157+303912661
1838+303801234+304139834+304487963+305958385+309633153+314384218+317238654
1828+317129420+315901218+314647071+312768540+310436793+308933639+308744751
1818+309161224+309528101+310131165+311703520+314197077+316336199+316861426
1808+316025293+315243349+315834417+318316150+321978065+324973131+325833153
1798+325203834+325324550+327941908+332594947+335959460+334770126+330546378
1788+327391626+327058647+328576711+330544082+332510254+334168809+334995619
1778+335521977+337560914+342485889+349397463+354577236+354770546+351222354
1768+346972489+343831070+343132448+345405378+348842520+350678345+350901405
1758+351252070+351836249+352447711+354781513+360363570+367497141+372016920
1748+372156589+370129751+368644832+368932980+370903024+373299995+374609600
1738+375613576+379265689+386262196+391578897+390033071+384613237+379689188
1728+376247077+374584956+374907996+376514797+379229838+384649363+394007881
1718+404537019+409292470+405554636+398377501+392676101+390232996+391435320
1708+395901013+401724295+406367565+410224984+416335317+424976533+431209981
1698+431801186+428538571+422340015+415086413+410907669+411388646+415023485
1688+420806802+429946064+441608909+447908027+443589133+435741207+431342898
1678+432037202+436537170+441618266+444920193+447917727+452112992+454641441
1668+452390241+448702345+448590438+452250845+455634244+455853054+455241661
1658+458038001+466876880+482305252+499148418+504343375+499092070+497262826
1648+501730473+505935746+503798441+498801489+496813827+499573631+507037885
1638+518739220+531566549+538286973+536428082+533537520+535895726+543916877
1628+554645014+565433921+576258816+587276369+596805370+604682052+614064151
1618+627115980+640600974+648635321+651999525+655680086+661386354+667670974
1608+672926324+676995972+680454432+683379714+685325081+686334336+687431265
1598+689685037+693103533+696766065+699942787+702800754+705891515+709335168
1588+712752910+715701979+718021284+719944509+722011826+725057275+730208703
1578+737894202+745715702+749548854+750603831+754280485+762443225+771762396
1568+778042697+782392507+788716817+798770839+813122778+833494051+858686823
1558+875402281+875607998+870477478+867307542+866805828+868158859+870018333
1548+871633223+873769980+877325849+882609098+889485712+893323114+884842304
1538+867759626+855226648+850550543+849198815+846098526+841556845+839229726
1528+840207243+842751801+845743096+849828099+854131913+855527170+853517503
1518+850362100+846371010+841276478+837041557+836191680+839963138+848457794
1508+859150834+863237963+854365529+841670501+834033604+832330080+834369222
1498+836975338+837154732+835052798+834281890+837320622+842557874+845260028
1488+842443328+836303142+830524897+826714160+824480680+823009744+822779760
1478+825296693+831024349+838322885+843659808+842781825+835523459+827690648
1468+824148352+824800600+826120384+825516874+824978966+828196749+836396095
1458+846091191+848512908+840411040+829720742+822747953+820612430+821831446
1448+823298612+822185299+818609893+814957849+813190299+814183102+818089534
1438+823505220+826656579+825089674+821790659+820380664+820618051+820090083
1428+818158083+816769681+817238148+818818695+820669875+822865379+824358250
1418+822735683+818208878+813695441+810844192+809390256+808461753+807708257
1408+807777766+809139639+810463536+809994315+808558682+808516730+810573421
1398+813599608+816361469+817703257+816526536+813681114+811685911+811526602
1388+811460521+809382579+806139021+804792229+807013576+811878673+817341658
1378+822233763+826782710+831293817+835096327+837413095+838485484+838911999
1368+839149318+840272022+843436336+847786763+850332967+849376975+846753448
1358+845083307+844930373+845303351+845461495+845488503+845531004+845413510
1348+845063359+844714785+844767225+845783540+848113402+851006740+852711155
1338+852356754+851172287+850932227+852207179+854537109+857230968+859675787
1328+861580161+863196079+864974048+867085099+869475969+871956639+874074134
1318+875504488+876735912+878812414+882214527+886304328+890107799+893482423
1308+897028353+900910998+904425806+906853007+908251280+909310371+910796250
1298+913048033+915560785+917065378+916481953+914190480+912059275+911504504
1288+911936640+911939930+911157780+910014169+908657436+907148044+905785691
1278+904724750+903815030+902813110+901539939+900202950+899510531+900129190
1268+902151538+905041860+907944796+910281306+912228935+914316199+916546527
1258+918506152+920195966+921939318+923557772+924371455+924124539+923514997
1248+923629269+925021441+927301947+929365082+930130780+929332109+927517398
1238+925420742+923647914+922467080+921564557+920397982+918889481+917482776
1228+916597459+916497719+917436094+919130158+920319492+919952684+918849311
1218+918725373+919698982+920489084+920735657+921045912+921416353+921737782
1208+922699943+924489771+926192473+927753345+930602812+935110149+939513359
1198+941961125+942402584+942324300+943086228+944958247+947568407+950514049
1188+953302575+955231078+955859335+955606113+955522483+956217232+957249108
1178+958006169+958502399+959057856+960139224+962300728+965130315+967045794
1168+967459148+968005488+970443383+974691191+979364486+982866955+984116270
1158+983393484+982505699+983302108+985755838+987981915+988611200+988326582
1148+988281339+988654112+989590087+991364011+992997272+992876968+991074664
1138+989532574+990022977+992399109+994428792+994153634+992813628+993536551
1128+997275105+1001946892+1004955325+1005492616+1004842424+1004995632
1120+1007197512+1011211703+1015333037+1017453960+1017232887+1016882805
1111+1018477952+1021699917+1025253661+1029016207+1033095384+1035801102
1103+1035446838+1033196015+1032055145+1033366566+1035884801+1037996126
1094+1039193824+1039678400+1040078866+1041050145+1042186010+1042543085
1085+1043001818+1046275812+1052805497+1058387004+1058072979+1052751822
1077+1048361911+1048504357+1051427308+1052999766+1050581202+1045676758
1068+1042939712+1044737012+1048286164+1049816806+1050148517+1052588469
1060+1056829422+1059154965+1058424981+1057900303+1060348617+1064643451
1051+1067065991+1065312220+1061544532+1060482974+1064431701+1070600815
1043+1073741823+1071882829+1067438694+1063432592+1060800290+1059008611
1034+1058162162+1059091899+1061864179+1064986130+1065831551+1063498262
1025+1060447740+1060039322+1062765879+1065653871+1065994699+1063842381
1017+1060552209+1057634125+1056467892+1057081067+1057965630+1058052894
1008+1057596560+1056565438+1054166959+1050627610+1047840249+1047809539
1000+1051103823+1056135015+1059497232+1058556253+1053857389+1048136657
991+1044216927+1044015323+1047440263+1051555222+1052609719+1050208018
983+1047754836+1047713912+1048416408+1046425661+1041339972+1036631031
974+1035412975+1037463291+1040545277+1042459728+1041094222+1035247222
965+1027331946+1021989264+1020852645+1021466917+1021382670+1020511131
957+1019341539+1017444980+1014690523+1012302943+1011263801+1010776756
948+1009205944+1006069940+1002506119+999859765+997991996+995581178+992151303
938+988664943+985987193+984001313+982376141+981446746+981894375+983408360
928+984180844+982831858+980655274+980216831+981536478+981971356+980661923
918+980082131+981829527+984065749+984440236+983401367+982878609+982753095
908+980627991+975439203+969637103+966441736+966166167+966602142+966213603
898+965611807+965770773+966322323+966421240+966097412+965823282+965766523
888+966179877+967412671+969097413+970256585+970262069+969029892+966782701
878+964460175+963504457+964031809+964104883+962118180+959004798+956846996
868+956346859+956743624+957422058+958576912+960425967+962222787+962647246
858+961692145+961228202+962467509+964062930+963898274+961522417+957953386
848+954125375+951180899+951007742+954200574+958210241+959409103+957298052
838+954376197+952099462+949931652+948102751+948108783+950092058+952387507
828+954126197+956205578+959432616+963088225+965303265+964770019+962269195
818+960064231+959958802+962097273+964945985+966604267+966933167+967553883
808+968861534+968892107+966845150+965030713+965150126+966044149+966683510
798+967842888+969415483+969305461+966663425+963345423+961325954+961000275
788+962015905+964096451+966411163+967238693+965383743+961921101+959507609
778+959859954+962802373+967283387+972105160+975851323+977098856+975066157
768+970590216+966484237+965412739+967187486+969109752+968961411+966753705
758+963955787+962192488+961915822+962046135+961615644+961794215+964988829
748+971290381+977065267+978657466+976550048+973931320+973332402+975706341
738+979731912+981417476+978083021+972651020+970176725+971747195+974037914
728+973955175+971866882+969842615+968699894+968130316+967747536+967119485
718+966857900+968141284+969515085+967343299+961335825+956342678+956674663
708+961010489+964016728+962754800+959181519+956190977+955011651+956634219
698+960760968+962885181+958807787+951176717+946194401+946235325+948625852
688+949520766+947207494+944277756+945257329+950638603+955355702+953789825
678+947329992+943276590+945351379+949287287+949286395+945409303+940675479
668+936532688+934559079+935446727+936159779+934018223+929905869+926089443
658+922916148+920415325+921036315+926942816+934745739+937164098+932016440
648+924469892+918799407+914727702+911444728+909196578+907926767+908386871
638+911267322+913968036+912599994+907796660+904177177+903765194+902909902
628+896799260+887876100+883618832+886906879+892397627+891471934+881561935
618+869176339+862176268+863015588+868971924+875078522+878105531+878850665
608+880356903+884789041+892433958+902874804+913060098+912201172+893660857
##END=
