##TITLE=<SNM>
##JCAMP-DX=4.24
##DATA TYPE=INFRARED SPECTRUM
##DATE=2/5/2025
##SAMPLING PROCEDURE=Instrument type and / or accessory
##ORIGIN=Admin
##XUNITS=1/CM
##YUNITS=ABSORBANCE
##RESOLUTION=4
##FIRSTX=4497.3318
##LASTX=599.83466
##DELTAX=-1.4281778
##MAXY=1.817271
##MINY=0.29727629
##XFACTOR=1
##YFACTOR=1.6924655e-09
##NPOINTS=2730
##FIRSTY=0.31774652
##XYDATA=(X++(Y..Y))
4497+187741800+187900350+188091265+188148493+187733048+186528482+184744884
4487+183235685+182844065+183667172+185088256+186467714+187573583+188406621
4477+188958887+189171090+188996182+188562195+188209649+188164834+188239689
4467+187995860+187226055+186266973+185736155+185867869+186247674+186375549
4457+186347586+186679249+187405436+187749055+187143893+186194425+185864594
4447+186085655+186014973+185363958+184684821+184519703+184814404+185183943
4437+185466547+185701836+185676902+185125024+184413222+184323734+185121889
4427+186338465+187275624+187464250+186991805+186387435+185906838+185362038
4417+184818278+184717485+185168905+185816892+186400131+186829522+186852555
4407+186225839+185182076+184331200+184118644+184540428+185126485+185025393
4397+183590380+181265258+179476994+179345263+180729809+182511293+183635194
4387+183913854+183799749+183541603+182946302+181921891+180733348+179696259
4377+179105695+179333482+180435354+181700830+182093066+181294982+180029348
4367+179179969+178906169+178829007+178662569+178293646+177659975+176983497
4357+176811723+177472705+178617860+179429204+179319659+178532228+177925146
4347+177994208+178341665+178336066+177926854+177461858+177047470+176522445
4337+175930190+175646882+175943520+176613501+177145428+177169076+176755516
4327+176455567+176863458+177874433+178680864+178733180+178245803+177584486
4317+176848244+176262328+176181486+176444456+176437095+176016544+175752324
4307+176071800+176707849+177149636+177246362+177240322+177378551+177581827
4297+177544021+177202780+176948913+177167175+177740025+178243919+178455665
4287+178447195+178379331+178382324+178465649+178452390+178190775+177850820
4277+177735693+177766456+177562017+177110404+176835636+176877439+176931533
4267+176956274+177347331+178199316+178988596+179250580+179169861+179220803
4257+179497649+179734418+179829047+179919398+180023713+180060022+180045337
4247+179883036+179357025+178722808+178706115+179515593+180448860+180758265
4237+180400084+179830597+179504693+179591469+179907107+180164266+180355217
4227+180733718+181345642+181766387+181574610+180973392+180495929+180184270
4217+179673808+179101574+179112034+179793777+180377192+180220527+179501030
4207+178809708+178579015+178907807+179505908+179858542+179741338+179463453
4197+179495501+179994623+180685206+181050642+180765520+180097864+179645282
4187+179605010+179646233+179539083+179475092+179642077+179899201+180102266
4177+180423539+181042911+181788874+182402189+182870918+183197685+183187666
4167+182827583+182500376+182463362+182489952+182333691+182145048+182173803
4157+182432564+182771728+182971201+182779722+182153077+181399050+180900650
4147+180777159+180870398+180974818+181065486+181273147+181631891+181972552
4137+182121892+182116803+182174243+182463767+182911630+183297563+183500187
4127+183504290+183248610+182691220+181997503+181483361+181366949+181586566
4117+181802133+181703823+181412697+181317697+181413665+181230780+180645251
4107+180250831+180524508+181107906+181392147+181346928+181284575+181314862
4097+181451788+181747828+182005550+181819302+181106990+180247785+179633431
4087+179380850+179528729+180198075+181281405+182129710+182051193+181210072
4077+180509769+180463388+180675257+180528505+179967911+179453258+179350492
4067+179534346+179606366+179413233+179203758+179263681+179539770+179736214
4057+179757432+179861201+180227658+180578356+180504751+180085837+179914855
4047+180477615+181589436+182495357+182604215+182032844+181283184+180631006
4037+180047450+179524485+179301153+179764793+180963777+182179843+182479703
4027+181905356+181492852+181876126+182553079+182815979+182695006+182584687
4017+182550737+182461372+182420150+182640049+183067433+183416316+183496225
4007+183344367+183134047+183106789+183457257+184054495+184330249+183754617
3997+182554012+181682041+181873115+182923111+184043296+184638034+184615195
3987+184298959+184142944+184260395+184298871+183985152+183601139+183713219
3977+184556364+185730485+186443396+186198563+185284225+184419614+184015157
3967+184032854+184408503+185158251+186078295+186810135+187303393+187755746
3957+188041714+187782758+187096507+186764211+187468494+188979771+190196646
3947+190384197+190242165+190837959+191789927+191720725+190393442+188882500
3937+187984555+187993712+189251897+191498272+193169649+192933074+191667546
3927+191268548+192139427+193083524+193386519+193851533+195353002+197390219
3917+198321162+196954207+193939436+191081595+189515220+189235856+190249719
3907+193258432+198628225+205075924+210090969+212008393+210697329+206699915
3897+201554776+197854018+197472417+199848446+202020494+201844687+201245565
3887+202846488+205470661+206071209+205112075+205044175+205016846+202999703
3878+200736265+201187878+204315997+208320543+212201844+214800307+214404901
3868+212176452+211235067+211892562+211556850+208939457+206002799+205288180
3858+208092825+214854507+224174874+229358999+224298276+214593703+207273786
3848+204413128+205595595+209337118+213971583+218749772+223587936+227217467
3838+227279978+223802289+219656750+216669343+214585022+213113664+212776948
3828+213566105+214790076+217025182+221761550+227562424+229776926+227804932
3818+225372714+222880819+218227283+212562895+209238508+210028405+214540964
3808+220138087+223817203+226404291+230322113+233846325+233362399+230417571
3798+228614075+227740308+226215331+224716257+224869242+227012060+230601125
3788+235249290+240600470+245999881+251362806+257698037+265495681+273377283
3778+280059408+286766397+295788682+308257805+323568182+338941387+350511580
3768+356963910+359744695+360210307+359870281+360621544+362653144+364199515
3758+364605258+366237736+372178460+383667265+398265118+409484121+414407899
3748+418555552+427005673+438181287+445384070+447824758+452131066+462427296
3738+478200397+495728957+510305892+519726188+525543791+530594353+536911553
3728+545359244+555056069+563535139+569115164+571876227+572128772+570623782
3718+569450506+570914574+575986302+583084734+587214109+583388592+573139765
3708+562573275+556241601+555291323+557656716+559635349+559287997+557886723
3698+557264814+558390229+562150628+569281250+578961277+587085881+588141565
3688+582674378+577118443+574788937+574995594+576869067+580338251+585423256
3678+591541582+595973229+595066868+590745029+588087084+587150928+583733056
3668+576952603+570392824+566015835+562975285+560092897+557990368+558385264
3658+561129352+563324644+563516897+564840200+570648681+579316658+583519496
3648+578498094+568762424+560486489+556237973+555789970+556954441+557179869
3638+556022723+554786267+554140340+554331114+556781382+562428707+567936957
3628+568208063+565104508+564368424+568140691+575049865+581939633+585003603
3618+583200495+579906589+578470695+579401955+581731180+585082737+589126215
3608+592062874+592276715+590758271+589750448+590272620+592123800+595135824
3598+598969828+602014393+602464052+600937579+600359939+603195170+609100887
3588+614119824+614073759+610038944+606488443+605627512+606250723+606164722
3578+604831452+603706249+604016164+605260756+606846324+609726634+614155535
3568+616721703+613700170+607303097+602318462+599860271+598477838+597876039
3558+599122109+602307474+605764016+607202234+605376622+601577976+598767256
3548+598309779+598621737+597501534+594878524+592447380+591581237+592276293
3538+593313382+593386494+592434913+591480163+591195674+591165387+590604370
3528+589511179+588547132+587861479+586755751+584789480+582386862+580034394
3518+577763736+575588554+573794250+572760929+572814953+573903495+575311813
3508+576127665+575938441+574871769+573079473+570524679+567459265+564670345
3498+562960986+562452373+562506573+562488048+562522210+563136264+564195083
3488+564845553+564741379+564337362+563657415+562142669+559890959+557644777
3478+555834062+554795741+554804510+554999686+553690188+550504541+547127345
3468+545426862+545763261+546946327+547185208+545746708+543844463+542976876
3458+542858756+542027338+539983552+537776744+536594030+536587269+537062495
3448+537239957+536691513+535269636+533037542+530571215+528974412+529002973
3438+530314302+531899589+532914526+533042683+532585417+532110719+531505152
3428+529897959+527214762+524832782+523882927+523763398+522921062+520749120
3418+518059478+516171637+515857812+516714481+517650108+517888673+517321316
3408+516296976+515432911+515207166+515276686+514658088+513073963+511546116
3398+511039827+511088639+510509485+509163079+507942084+507196843+506396593
3388+505143514+503857119+503428696+504339389+506062835+507275167+506877102
3378+505055082+503238908+502801294+503800454+505039833+505318017+504511322
3368+503417532+502816120+502804041+502927126+503020066+503614152+504954571
3358+506031773+505587326+503804539+501957902+500900457+500737470+501248513
3348+501903737+502020554+501381776+500434950+499765498+499536513+499422337
3338+499027301+498431101+498206906+498764296+499755672+500250374+499619486
3328+498194685+496839194+496057961+495721209+495337337+494473871+493195964
3318+491952147+490898999+489939494+489517093+490353442+492104604+493366628
3308+493430231+493004027+492806351+492448011+491230925+489361819+487793155
3298+487229038+487641472+488494091+489229753+489637960+489812675+489913679
3288+490182425+490920904+492039698+492969761+493465203+493906374+494442844
3278+494651720+494380333+494052210+493747824+492859177+491021521+488623094
3268+486210791+484147706+482935973+483014508+484042652+485065936+485454668
3258+485183915+484467834+483716149+483432682+483517839+483056100+481447569
3248+479482390+478581311+479130988+480169944+480566248+480015655+479022588
3238+478238115+477748625+477059169+475986827+475124840+474932693+474896384
3228+474211858+472942474+471865412+471308375+470738377+469680721+468539494
3218+468047468+468238911+468399363+467841621+466553676+465216603+464463404
3208+464026987+462997504+461102373+459242388+458437278+458547192+458386775
3198+457170076+455529498+454733297+455165242+455973768+456109391+455432825
3188+454639161+454175309+453615736+452348394+450522782+448879421+447896215
3178+447413557+446911705+446038132+444899651+443784837+442794094+441899707
3168+441052793+440104734+438920505+437537368+436045584+434571584+433403873
3158+432733153+432347942+431938960+431475144+430999459+430341276+429299362
3148+428020539+427009335+426564959+426256769+425369848+423861582+422342892
3138+421255688+420688719+420614269+420598457+419840326+418212567+416661265
3128+416024777+416120322+416307609+416227701+415753354+414887881+413916015
3118+413192750+412728300+412219405+411448068+410560513+409937759+409736244
3108+409625062+409127683+408172581+407123271+406353413+405985635+405967991
3098+406183418+406355104+406051387+405120761+404006615+403304270+403121068
3088+403130365+403049717+402761707+402142052+401127925+399980922+399188419
3078+398912947+398715024+398098891+397171892+396403126+395920398+395450383
3068+394826151+394200404+393715386+393161483+392153660+390672159+389231652
3058+388391042+388237423+388428302+388592698+388556424+388216609+387394453
3048+386040652+384529533+383411197+382826126+382481029+382188405+382021298
3038+381914940+381631262+381192838+380797520+380278412+379247415+377814691
3028+376609931+376047928+375943366+375818062+375374672+374673665+373898982
3018+373045131+372025509+370961866+370028035+369163900+368297194+367615486
3008+367286659+367181886+367112613+367023336+366806184+366310778+365630901
2998+364982368+364311367+363472623+362670330+362196301+361894345+361389324
2988+360612493+359692714+358685595+357765569+357282911+357317742+357475517
2978+357320770+356800676+356133337+355476141+354851063+354274761+353745088
2968+353129026+352315780+351466753+350849740+350453436+350026492+349456812
2958+348880087+348413947+347958547+347380098+346792914+346385939+345988332
2948+345194737+343995048+342890236+342306538+342210676+342292275+342216452
2938+341755699+340973304+340224542+339766149+339465214+339061268+338555296
2928+338114582+337735077+337234423+336519435+335685234+334870685+334120303
2918+333388586+332640317+331925258+331364628+331081760+331066863+331047317
2908+330655521+329880627+329174936+328915805+328943697+328810645+328316929
2898+327637827+327028421+326554110+326090258+325539137+325005238+324668557
2888+324496625+324243797+323791356+323325004+323073620+323008221+322919825
2878+322699468+322418502+322158244+321856182+321363839+320651069+319891601
2868+319266312+318716564+318043344+317287362+316805479+316814495+317026786
2858+316943602+316422945+315800579+315472984+315467701+315435618+315046111
2848+314377117+313838709+313677448+313691288+313539500+313192360+312870048
2838+312624088+312267474+311727306+311170163+310705079+310214779+309569768
2828+308821111+308116723+307559474+307180039+306935242+306688507+306282306
2818+305698468+305087407+304588408+304212108+303935227+303758152+303614218
2808+303378330+303022526+302631786+302236292+301737223+301039984+300245474
2798+299667201+299548869+299733269+299758344+299345030+298653249+298011584
2788+297522974+297005522+296294372+295533213+295055714+294958514+294919369
2778+294518910+293662434+292641651+291838107+291383307+291074959+290616478
2768+289906332+289052110+288182234+287363301+286676381+286236477+286054050
2758+285931510+285631579+285168449+284766053+284482463+284102042+283492530
2748+282816210+282237989+281668784+280983009+280289573+279775361+279406244
2738+278997332+278516893+278105551+277797256+277457071+277045306+276685523
2728+276397091+276039262+275602105+275255652+275020362+274674789+274088768
2718+273414878+272869674+272480360+272101982+271613848+271054152+270549324
2708+270154992+269817414+269479183+269200313+269138840+269296492+269314682
2698+268786769+267795833+266841100+266236994+265887072+265606810+265368246
2688+265230897+265204519+265175676+264962803+264494654+263877694+263267073
2678+262777565+262475363+262318380+262161345+261921425+261644684+261371219
2668+261084072+260820010+260684440+260714692+260805113+260774351+260474525
2658+259878379+259110881+258377966+257847888+257586520+257549436+257614853
2648+257670602+257669563+257573895+257317422+256888612+256388381+255949851
2638+255633455+255407728+255202585+254994396+254843048+254800505+254807795
2628+254749880+254581047+254309483+253902772+253344203+252772621+252412098
2618+252318419+252324670+252273358+252169677+252077548+252015353+251994452
2608+252029405+252063689+251990877+251779677+251496826+251200945+250910435
2598+250685112+250628571+250745071+250858577+250764563+250469457+250221754
2588+250267061+250587877+250928273+251069777+251005135+250821352+250545598
2578+250203951+249905676+249725203+249592115+249419179+249248796+249174892
2568+249213473+249320746+249461194+249622279+249833127+250165529+250630138
2558+251059124+251185045+250906860+250437180+250102577+250006504+249955878
2548+249714268+249256826+248762405+248406108+248198148+248017869+247771187
2538+247477490+247207811+246993564+246846266+246808354+246875620+246915134
2528+246793616+246538781+246250401+245948850+245620164+245294137+245007940
2518+244796142+244705509+244725284+244768619+244776930+244738015+244610897
2508+244381806+244169796+244126707+244254230+244446430+244670608+244933843
2498+245095034+244946574+244535091+244169761+244041692+244024012+243901068
2488+243651991+243448468+243417195+243459280+243362167+243053714+242638726
2478+242238355+241905178+241629635+241355167+241073337+240912498+240997391
2468+241217184+241272757+241000930+240565499+240269460+240227797+240273862
2458+240160672+239816050+239390110+239055402+238819954+238611642+238445784
2448+238360082+238295740+238200863+238109192+237994734+237738632+237346360
2438+237017269+236926249+237070976+237335337+237562984+237587337+237350040
2428+237008852+236778775+236659827+236489321+236250123+236121297+236206594
2418+236392032+236507212+236522602+236552642+236686100+236855197+236923555
2408+236860779+236756535+236716545+236793760+236945090+237057681+237108095
2398+237244511+237614067+238220884+239094035+240522357+243033199+247225349
2388+253691220+262975260+275452324+291225778+310176251+332061797+356483929
2378+382772560+410055985+437538812+464641464+490765805+514957121+536036676
2368+553202706+566162904+574681735+578441957+577279564+571626851+562657903
2358+551056085+535799027+515202236+489655323+463680586+443934054+434814093
2348+437299860+449893724+468207145+485205081+495799111+500328417+501891974
2338+502868383+503895259+504551928+504379150+503224504+501071896+497902766
2328+493705035+488436651+481935897+474182240+465662600+456935316+447922557
2318+438290145+428332709+418822360+410049117+401399876+391962851+381437389
2308+370350946+359501799+349385883+340072155+331390513+323194769+315490839
2298+308328205+301678586+295484612+289682435+284133051+278719905+273562282
2288+268965640+265113235+261913324+259174290+256822156+254881189+253318653
2278+252012659+250847343+249755631+248691935+247638698+246628639+245698065
2268+244823400+243971503+243211066+242656194+242267585+241865030+241382830
2258+240932326+240569936+240207811+239797596+239414146+239112490+238838796
2248+238522136+238174380+237867493+237639371+237438718+237156678+236719627
2238+236179423+235722932+235553201+235708599+235996767+236160811+236136035
2228+236077416+236106805+236168506+236209517+236315082+236526335+236703110
2218+236719521+236641778+236608850+236678422+236840529+237063140+237313026
2208+237601195+237967265+238394349+238812065+239184334+239539116+239936230
2198+240401702+240858158+241200596+241478692+241857493+242362479+242835276
2188+243158891+243377575+243596365+243844279+244028027+244031197+243885889
2178+243780077+243855496+244051200+244170306+244084868+243854246+243611614
2168+243386714+243134203+242876622+242687697+242572147+242463184+242332703
2158+242231980+242195829+242159978+242045820+241897606+241876934+242138918
2148+242703527+243465320+244453914+246003438+248408644+251535953+255072033
2138+258968619+263370402+268333448+273816676+279769374+286146109+292915556
2128+300039486+307491328+315326162+323563005+331989953+340283179+348239091
2118+355715550+362463638+368135369+372445163+375302617+376699595+376544109
2108+374827143+371817408+367928324+363604865+359246260+354890718+350141020
2098+344594241+338114582+330762935+322782899+314545774+306387325+298610636
2088+291514070+285273539+279908043+275317300+271281200+267612754+264327335
2078+261503585+259115793+257099407+255374130+253832989+252492094+251504433
2068+250897158+250438202+249826630+248994349+248187072+247629401+247225983
2058+246820469+246483648+246253817+245978997+245652740+245485034+245537737
2048+245650064+245716255+245825588+246151140+246723427+247350195+247877721
2038+248404365+249079329+249883841+250704852+251453438+252124158+252825799
2028+253664120+254615489+255583992+256464557+257179105+257799833+258462735
2018+259036659+259177706+258802779+258178247+257537110+256922808+256344077
2008+255819475+255305033+254741991+254156040+253624042+253160437+252681319
1998+252134019+251718046+251837117+252574680+253326013+253347020+252603347
1988+251640303+250868051+250394884+250224413+250270143+250375849+250463770
1978+250544101+250617054+250666130+250706190+250857397+251363334+252323666
1968+253357251+253825452+253538411+252954203+252579945+252510689+252637473
1958+252971125+253540383+254171501+254616810+254855075+255125635+255671948
1948+256583962+257927339+259716096+261443257+262066979+261156356+259590739
1938+258481717+258108005+258182526+258453050+258806178+259183711+259557247
1928+259993787+260796996+262211776+263834905+264999851+265824790+266778290
1918+267368467+266726308+265338768+264646055+265296736+266713577+267875988
1908+268215698+267967360+267749874+267885303+268262379+268709801+269263158
1898+270070805+271071408+271922619+272582685+273581211+274998633+275757591
1888+274979193+273364165+272085430+271410184+271083153+271017244+271168169
1878+271360932+271463627+271579757+272276380+274475000+278382978+282246266
1868+283214663+280698732+277131132+274786324+274007415+274036522+274191480
1858+274220816+274186215+274269716+274586534+275234574+276395805+278244133
1848+280992588+284720446+288250416+288959364+286082048+282396786+280532593
1838+280604190+281296182+281925662+283304820+286402599+290357857+292758820
1828+292822599+292139835+291467900+290003251+287797006+286204957+285964879
1818+286525068+287120017+287818595+289262007+291466561+293311085+293697722
1808+292936370+292352954+293089461+295517682+298947845+301751028+302669152
1798+302289365+302584736+305101600+309390158+312371331+311107793+307195887
1788+304566151+304775449+306683435+308784907+310682117+312242963+313071106
1778+313639554+315576630+320139110+326533120+331416398+331841264+328858083
1768+325125013+322260692+321571835+323696057+327078219+329124857+329654072
1758+330199312+330946454+331809427+334364995+339924523+346746391+350940143
1748+351107779+349485338+348496110+349120201+351273302+353935369+355750451
1738+357279742+361115013+367864193+372781703+371031808+365619702+360867363
1728+357714363+356226629+356413000+357691682+360126384+365313379+374306345
1718+384345169+388887153+385468823+378838221+373600125+371447271+372697075
1708+376908576+382353787+386855870+390807853+396823554+404979291+410789780
1698+411559356+409044288+403934666+397703960+394101336+394734585+398348971
1688+404068950+412996447+424279088+430447317+426560381+419344497+415442911
1678+416388152+420880832+425833348+429061009+432018658+436180115+438902509
1668+437254993+434309213+434731402+438714517+442557044+443629668+443916515
1658+447092302+455599370+470203844+486416497+492118445+487992134+486980155
1648+492110873+497186087+495901383+491344220+489584324+492620472+500285064
1638+511902519+524574390+531654439+530661513+528428820+530835805+538326245
1628+548245858+558279540+568407641+578612622+587240557+594268414+602771643
1618+614667810+626665898+633257584+635450516+637946813+642271680+647130306
1608+651050452+653833491+656193285+658640559+661101568+663600541+666669054
1598+670736410+675670824+681087368+686709935+692458511+698293018+703860786
1588+708518883+711950420+714555328+717070079+720008498+723816441+729422455
1578+737579354+746519212+752095926+754499600+758607316+766726039+776498089
1568+784518062+791388602+799755609+810573060+824383940+843158677+865842994
1558+880355057+880252081+876194516+874570348+875005427+875881853+876122179
1548+875759507+876078438+878284401+882699496+888369043+889931509+879785940
1538+863413681+852521005+848790612+847297384+843687293+839262408+837665147
1528+839204088+841314540+842581037+844151673+846250715+847136509+846893578
1518+847034519+846444060+843291165+839214723+837936323+841665589+850066195
1508+859119101+859640111+848509786+836941988+832222965+833365425+837012987
1498+839657480+838679767+834625583+831302939+831741680+835533071+838809791
1488+837397916+831736257+825991555+823183159+823019327+823430035+823761011
1478+825566408+830265850+837087014+842486794+841986634+835917789+830079760
1468+828441506+830488425+832945067+833004796+831970806+833476572+838911570
1458+844892582+844327198+836178751+827207973+821478766+819438749+820269393
1448+821940892+822064295+820165923+817670683+815886134+815618058+817607291
1438+821358604+823713537+821904336+818069135+815610873+814956177+814625484
1428+813805758+813019207+812768387+813095911+814429955+817201584+819799167
1418+818911189+814219143+808884726+805092420+802964852+801751252+800889828
1408+800612384+801202068+801761958+801303213+800809743+801872048+804209162
1398+806529441+808545299+809925971+809186260+806361946+804101396+804161406
1388+805019660+803848603+800877150+799502253+801918043+807272392+813474219
1378+819315981+824585808+828923283+831606022+832733128+833508057+834781386
1368+836474227+838600387+841465342+844255565+844983584+843120853+840696752
1358+839609584+839743058+839966127+839768556+839583522+839883225+840448397
1348+840644348+840296680+840089952+840917778+842884613+845090012+846461739
1338+846764893+846653535+846849556+847634839+849031641+851024396+853502380
1328+856304225+859351678+862449845+865240209+867796517+870796003+874616624
1318+878681656+882158905+885085209+888324880+892432455+896811064+900506311
1308+903641103+907015799+910531999+913230867+914828058+916082792+917620747
1298+919295627+920708277+921671902+922076624+921755861+920746876+919464954
1288+918358486+917408736+916168512+914295497+911851392+909069128+906207202
1278+903878048+903029584+904088015+906359131+908592493+909907872+910050292
1268+909304805+908549738+908907338+910817543+913619248+916342557+918637339
1258+920562054+922080850+923435038+925267412+927649322+929660461+930485681
1248+930191332+929005131+926857489+924043106+921294299+918975851+917094736
1238+915796684+915003512+914129270+912776137+911191977+909711005+908272928
1228+906722084+905104890+903585178+902436660+902035390+902702201+904388633
1218+906208822+906806113+905956945+905135458+905605896+906813650+907533287
1208+907891662+909070960+911375461+913888310+916029050+918310872+921377272
1198+925169789+929057465+932185918+933947364+934592058+935029250+935916946
1188+937405666+939310659+941166840+942731982+944491244+947019237+950175513
1178+953471532+956336980+957736177+957006326+955403783+955344265+958016791
1168+962388005+966075151+967233741+966253775+965330298+965992249+967943799
1158+970501868+973559252+976844213+979659511+981922456+984050447+985382097
1148+984976108+983713907+983507602+984884471+986550336+987134033+986647748
1138+986561888+988714319+993440668+998604701+1001602990+1002657266+1004194375
1128+1006819075+1008565448+1008575802+1008591368+1009767919+1010922917
1120+1011014201+1010787681+1011304535+1012839743+1015232711+1017799655
1111+1019152083+1018952610+1019150251+1021385585+1024006201+1023931117
1103+1021337619+1020049499+1022598763+1027725888+1032869566+1036541991
1094+1037945414+1036315541+1032184935+1028924697+1030971546+1039173312
1085+1048998964+1055097251+1056489616+1054804170+1050817392+1046271358
1077+1044475892+1046254664+1048942334+1050604184+1052191373+1054767050
1068+1057313990+1057824153+1055689541+1053384687+1054158208+1057095500
1060+1057499658+1053812159+1050183052+1050335474+1053683122+1058118502
1051+1062519087+1066254341+1069204100+1071886205+1073741823+1072704945
1043+1068424241+1063371777+1059942353+1059232295+1061423678+1064572346
1034+1064953753+1061491014+1057633696+1056820309+1058760097+1061388038
1025+1063660491+1065223168+1065551890+1064466200+1062497323+1060183383
1017+1057684409+1055435059+1054323378+1054466151+1054693375+1054228502
1008+1053784901+1054090238+1054579199+1054570606+1054584693+1055065485
1000+1054870872+1052396128+1048035339+1044414754+1043592563+1045019370
991+1046500977+1046555916+1045354079+1043781259+1042424041+1041496831
983+1041030268+1040945957+1041181845+1041283201+1039938803+1036342236
974+1032027160+1029818027+1030440605+1031624129+1030838142+1027646578
965+1023686636+1021099759+1020380263+1019306618+1015632290+1010663011
957+1007658101+1007143712+1005868692+1000748681+992790128+986234997+984299577
947+986459545+989817759+992070843+992284825+989949120+984806288+977930466
937+971916490+968954898+968893689+969637627+969612059+969387089+970198926
927+971579598+971786537+970408400+968947925+968328235+967656846+966055359
917+964245806+963595759+964596151+966650114+968470866+968605539+966448669
907+963110460+960539149+959542983+959258354+958807357+958781155+960157179
897+962397021+963896940+963918916+962820266+960899778+958522376+956784878
887+956484331+956897434+956695073+955528806+954454667+955120703+957825418
877+960231769+959481915+955583534+950901489+947199763+944860114+943632709
867+942857005+942065594+941790403+942711556+944167735+944402637+942381637
857+939390603+938188836+939765318+941854358+941805688+940128553+939425609
847+940803394+943140366+944943087+945518472+944801934+943110290+941205438
837+940081009+940541233+942559204+944434333+943839577+941263054+940597159
827+944664233+951361361+955261856+953404055+948697992+946574227+949212874
817+953730100+955520776+952864027+948186561+945760629+948297356+954896649
807+961932429+966014013+965945198+962823999+959348652+957837181+958207812
797+958718186+958394042+957387170+955778780+953682626+952193695+952719705
787+955023925+957195657+958121035+958357487+957978897+955820619+951818838
777+948130001+947145387+949201393+952304137+953861673+952879734+950680604
767+949622173+951227323+954925668+958220419+958861028+957182415+955782936
757+956745505+959856842+963423897+965782281+966062261+964696592+963368182
747+963199419+963296550+962769975+962952755+964647639+965313605+962637980
737+958575836+956462143+957506910+961694851+967894142+972504907+972067433
727+967495338+962295453+958094622+954818325+953122384+953578312+954452484
717+953767923+953041947+955695948+962496264+969862738+972358049+967456880
707+958679728+952492904+951577738+952963693+953044553+951946819+951641130
697+952388871+952634901+950532408+945210248+938030990+931679136+927924584
687+927480630+930348755+934567265+936489585+934326024+930494697+928640136
677+928385442+925803495+920243475+916330020+917178413+919761768+918372362
667+914268309+913900144+916621340+917985460+915796754+911241141+907741494
657+908143820+911268611+912072137+907435875+899707222+893100252+889256669
647+886871237+885442880+885905569+887548543+887749213+884666260+877889329
637+868659631+861330698+860256138+863784241+865563225+863857987+863126516
627+866029295+870961949+875913549+879835668+880791686+877021778+869479568
617+861491361+856192867+854265265+854182855+853841596+852932206+853214441
607+856295843+862005680+868258995+872661904+873796335+870971176
##END=
