##TITLE=<SNM>
##JCAMP-DX=4.24
##DATA TYPE=INFRARED SPECTRUM
##DATE=2/5/2025
##SAMPLING PROCEDURE=Instrument type and / or accessory
##ORIGIN=Admin
##XUNITS=1/CM
##YUNITS=ABSORBANCE
##RESOLUTION=4
##FIRSTX=4497.3318
##LASTX=599.83466
##DELTAX=-1.4281778
##MAXY=1.8609796
##MINY=0.38235289
##XFACTOR=1
##YFACTOR=1.7331723e-09
##NPOINTS=2730
##FIRSTY=0.39807987
##XYDATA=(X++(Y..Y))
4497+229682807+231215625+233012133+233983819+233463560+231659486+229455038
4487+227819977+227250230+227731095+229014255+230629267+231830183+232084312
4477+231602467+231068073+230948050+231284440+231945976+232735599+233278659
4467+233122973+232201944+231037173+230206178+229843582+229830926+230100961
4457+230642542+231460434+232465737+233231785+233142748+232009667+230322693
4447+228850969+228237821+228710708+229720499+230226417+229732002+228785043
4437+228275909+228594777+229542768+230600276+231194561+231068365+230594619
4427+230485481+230996575+231734423+232283897+232547466+232456039+231909969
4417+231148632+230726885+230923942+231424203+231675529+231360375+230473444
4407+229210866+227952535+227217180+227396492+228451180+229799493+230452655
4397+229598172+227517942+225689503+225474803+226836374+228598148+229671492
4387+229739259+229193481+228796564+228901523+228736397+227250694+224950090
4377+223713804+224369097+225592900+225732354+224829500+224049868+223972730
4367+224423142+225339907+226721734+227892128+227850223+226596208+225345082
4357+225125929+225677174+225931457+225258384+223978731+222798312+222029942
4347+221568370+221443516+221913135+222948925+224120282+225075633+225674062
4337+225702726+225076389+224178591+223438112+222846166+222326027+222146853
4327+222575427+223529729+224730232+225764388+226103702+225504310+224337166
4317+223350468+223207782+224010405+225048791+225452931+225195088+224859609
4307+224526073+223739184+222539197+221655361+221588901+222095112+222575891
4297+222642368+222415339+222401566+222853801+223343539+223395554+223304282
4287+223655581+224321931+224625840+224242575+223367492+222331547+221462448
4277+220966176+220751338+220625968+220608704+220785866+221025052+221126951
4267+221205465+221679572+222784556+224209680+225381932+226081211+226524797
4257+226877110+226968451+226592683+225915225+225427224+225513733+226071788
4247+226523249+226320551+225515539+224677133+224222732+224090019+224134864
4237+224386516+224762181+225006044+225056615+225033900+224785429+223988876
4227+222897202+222415494+223102891+224506367+225739679+226304921+226130527
4217+225325531+224253270+223470801+223355799+223911532+224829930+225576754
4207+225678000+225189878+224643327+224358798+224205760+224181841+224699986
4197+225916618+227137343+227464242+226960782+226566375+226702303+226609346
4187+225546662+224058964+223234108+223218117+223376485+223488099+223848271
4177+224493625+225109284+225505462+225761190+226065357+226520429+226991699
4167+227238262+227186745+226860104+226199824+225282904+224508895+224274025
4157+224578432+225027417+225191512+225051783+225022964+225443112+226276463
4147+227314935+228185668+228264818+227317755+226086971+225489058+225430526
4137+225121149+224368788+223827224+224014893+224722443+225422323+225828441
4127+225970319+225921157+225576496+224796193+223796582+223136680+223115633
4117+223473810+223918548+224589558+225651897+226700945+227038745+226521547
4107+225767621+225414293+225504551+225773055+226156302+226687309+227118153
4097+227051951+226466711+225794910+225336846+224916457+224373465+223994723
4087+223995961+224035493+223866016+223935021+224621610+225420931+225598472
4077+225196928+224766892+224551831+224523390+224816758+225559180+226460813
4067+226979645+226815637+226087934+225236873+224841055+225201089+225979295
4057+226482513+226361442+225893662+225597182+225637161+225634564+225179681
4047+224476740+224118752+224224193+224278461+223914232+223356796+222975027
4037+222854901+223010450+223614089+224724764+225955084+226721476+226837716
4027+226608039+226307879+225879012+225305258+224984412+225389738+226461604
4017+227574721+228139413+228080313+227704390+227329311+227118170+227085327
4007+227146388+227254236+227528088+228140582+229050383+229923626+230333767
3997+230048412+229268797+228622445+228676180+229352176+230048481+230422030
3987+230696535+231026323+231050086+230473771+229700672+229431464+229923867
3977+230921500+231935831+232391316+231937602+230835748+229751931+229208407
3967+229429194+230413364+231809618+232936405+233320529+233138243+232853403
3957+232603918+232290448+232092823+232486818+233688061+235225230+236239233
3947+236472521+236690075+237522446+238250578+237605911+235622956+233592885
3937+232586207+233096802+235305291+238536054+240955236+241153617+239822361
3927+238716999+238638572+239101399+239452543+239788607+240601581+241792850
3917+242367619+241401968+239261762+237251105+236228641+236265559+237541137
3907+240807563+246440983+253153869+258272687+259973177+258323173+254214248
3897+249184227+245522946+244950241+247035234+249036640+248918526+248558698
3887+250641094+254193838+256057166+256147751+256524602+256262477+253389117
3878+249995515+249606628+252465200+256463627+260170114+262397449+261648320
3868+259298332+258715156+260214478+260598499+257944327+254284336+252524678
3858+254286039+260495861+270484665+277808893+274662370+265122723+256871137
3848+252844114+253163344+256642733+261513063+266670914+271997124+276573020
3838+277889402+275050518+270529854+266648491+263700521+261577287+260808023
3828+261438057+262716695+264954106+269552992+275424670+278011144+276236663
3818+273914875+272052063+268444500+263377096+259813949+259869524+263778313
3808+269366320+273302742+275677165+279256819+283445495+284360540+281925108
3798+279391733+277500772+275424360+273700262+273461454+274861353+277556330
3788+281357614+285765357+289868091+293627040+298359206+304763507+311272904
3778+316034887+319896629+325294870+333743788+345179968+358169187+370902851
3768+382762137+393593525+402301713+408704362+414685900+421086521+425773016
3758+427032224+427100558+429918962+437744965+449501217+460204432+465905550
3748+469273548+474442267+481317682+485761278+487132151+490315473+498985934
3738+513659531+531696415+547139155+554347402+554136485+552689609+554720058
3728+560430874+566471116+569161588+568531451+567310966+566912381+566946393
3718+567038972+567740400+570160494+574261732+576635088+572843055+563951978
3708+555096737+550160463+550599974+554851292+558503768+558542939+556726227
3698+555828601+556377610+558259355+562425763+569753585+578438560+583274000
3688+581150869+575772403+572041757+571950759+575494700+581729661+589803585
3678+598690845+604340239+601716658+594133623+588719460+586157437+582661093
3668+577232279+572288371+569112925+567003894+564962990+563396331+563803755
3658+566229317+568282601+568757362+570067158+574094903+578561540+578169351
3648+570799160+560295513+551289537+546232519+545092268+545626455+545565171
3638+544865084+544556602+544642268+545099971+547373251+552077045+555528888
3628+553302825+547932028+544952780+546930199+553386257+561005608+564728722
3618+563026393+560232956+560303594+562784146+565227934+566876924+568480931
3608+569561755+568697075+566651941+566415300+569703307+574860676+579085239
3598+581905053+584184936+585415152+585211629+585692615+589253406+594990359
3588+598918372+598682110+596074554+593170689+590380589+588217840+587757145
3578+589340552+592122605+594901563+597259031+600216544+605000537+610531903
3568+613317395+611459484+607368391+604072819+602052721+600612379+599513740
3558+599045067+599419098+600354932+601233471+601410307+600920587+601035107
3548+602779805+604879551+604698657+601788465+598343088+596204275+595745093
3538+596848477+598826962+599784394+598268323+595447684+593524980+592538317
3528+590965090+588838932+587640286+587688708+587814646+587105170+585552852
3518+583726717+582635851+582923836+584096621+585156949+585439157+584806441
3508+583965318+584098478+585432141+586572874+585711048+582729599+579637756
3498+578354303+578456443+577995748+576572154+575720783+575996010+575978127
3488+574533829+572408772+571103103+571183508+572019197+572685547+572763063
3478+572089525+570469836+568342097+566830703+566478441+566643722+566324613
3468+565211358+564064607+563984787+565040678+565981602+565470869+563177333
3458+559842005+556942440+555895903+556762543+558239271+559354623+559892112
3448+559227206+556678424+553125955+550291009+548599101+547215330+545585943
3438+543833610+542278335+541438588+541772519+542958441+544222429+545350919
3428+546394739+546762580+545788778+543811875+541656279+539618333+537773249
3418+536509020+536101631+536394431+537225787+538466802+539421792+539077784
3408+537271561+534889607+532864213+531603045+531197512+531546885+532361974
3398+533244985+533703410+533290414+531925765+529942122+527850527+526172993
3388+525299474+525243521+525662122+526249684+526920333+527491765+527441073
3378+526393230+524742830+523371819+522873397+523214860+523890943+524269342
3368+523996797+523281509+522803516+523151823+524472452+526590425+528896032
3358+530207685+529691415+528191715+527562919+528327351+529123525+528753311
3348+527659178+526929068+526806328+526705564+526256630+525787751+525552348
3338+525051725+523829006+522359982+521361866+520972944+521262306+522420234
3328+523800187+524041470+522844062+521464556+520943609+520955990+520822314
3318+520623090+520634095+520501863+519796136+518828250+518235392+518158014
3308+518317620+518392660+518014124+516926972+515448421+514358656+513954705
3298+513512822+512379380+511322869+511693393+513544358+515725368+517440835
3288+518601514+519084734+518806515+518123245+517436398+516835149+516344913
3278+516160133+516566422+517674346+519053439+519817046+519510110+518704616
3268+518343894+518740830+519549487+520393946+520968164+520777056+519582846
3258+518022790+517015665+516752475+516787518+516751030+516580522+516390136
3248+516324244+516338379+516207764+515906125+515770420+515993064+516217909
3238+515877133+514636806+512618222+510573398+509434212+509200288+508851672
3228+507849533+506820329+506259007+505722103+504828019+504077928+504161669
3218+504994641+505661301+505193831+503562071+501778477+500732318+500178562
3208+499276775+497909512+496846124+496608967+496810977+496742092+496058066
3198+494784345+493280174+492306648+492445035+493291007+493751977+493295237
3188+492458963+491868994+491221800+489786650+487683981+485855336+484788336
3178+484051520+483104681+481903456+480628566+479354432+478148151+477243028
3168+476867381+476876047+476851871+476651443+476423778+476016766+475021437
3158+473594197+472444420+471706744+470531586+468306797+465834602+464594034
3148+465014010+466013054+466185866+465063498+463227596+461538645+460369059
3138+459525770+458821521+458419634+458469156+458721273+458739534+458295037
3128+457439230+456330171+455139606+454163329+453793184+454091384+454555518
3118+454564873+453916405+452875749+451916564+451363152+451113649+450772324
3108+450044483+448829502+447159912+445382887+444125639+443735376+443939449
3098+444240091+444353442+444146652+443510153+442554613+441722604+441409066
3088+441534178+441684430+441609940+441349432+440881791+439979590+438564869
3078+437017297+435965051+435776763+436250526+436791695+436937167+436647633
3068+436074585+435300008+434472091+433879096+433606620+433357598+432794592
3058+431899923+431020283+430593394+430615644+430422507+429398152+427851027
3048+426682060+426284712+426276459+426151415+425733880+425168810+424829616
3038+425020965+425535275+425751797+425267545+424123958+422536149+420886712
3028+419779063+419512606+419589847+419168013+417979375+416569605+415675005
3018+415480905+415491016+415194261+414713894+414432614+414271426+413884912
3008+413248137+412556785+411826709+410917700+409783742+408642494+407942510
2998+407901001+408116423+408044443+407656175+407166179+406527754+405698874
2988+404935990+404430691+403989082+403300963+402388136+401656960+401408695
2978+401356215+400942257+400161627+399630191+399752483+400161627+400075616
2968+399125889+397747311+396608952+395820034+395092159+394455350+394155500
2958+394006245+393529008+392654664+391784310+391260130+391083397+391023386
2948+390814051+390343761+389751488+389265585+388914458+388489770+387865960
2938+387202052+386673367+386213429+385730896+385362436+385243789+385171741
2928+384740346+383833228+382878033+382448461+382514835+382328851+381331870
2918+379906488+378871162+378570899+378783088+379090642+379035136+378323734
2908+377225164+376465754+376442746+376725299+376574221+375805663+374855935
2898+374129504+373641710+373236108+372798352+372295907+371853679+371646270
2888+371561223+371239809+370555748+369747984+369039953+368430209+367886495
2878+367514218+367454241+367635720+367695181+367292331+366526592+365837029
2868+365434144+365038585+364306273+363357233+362688063+362600436+362861632
2858+362952733+362570895+361850173+361135952+360654175+360428642+360340156
2848+360150802+359682266+359094876+358753791+358739622+358740688+358472683
2838+357979524+357491110+357106796+356644485+355856805+354834857+354015676
2828+353679406+353608939+353365076+352832574+352385016+352417653+352755471
2818+352731225+351927898+350614697+349358687+348500473+348112686+348138135
2808+348327970+348285670+347872640+347383057+347030176+346505377+345434732
2798+344086075+343171976+343004769+343188965+343166955+342839523+342528702
2788+342408404+342171384+341435290+340387275+339690214+339666415+339885724
2778+339737638+339127241+338346233+337569387+336840549+336275513+335916373
2768+335593515+335169102+334728044+334408247+334210983+333981599+333493907
2758+332669601+331728093+330956817+330425863+330064419+329814640+329597877
2748+329344179+329071806+328763839+328291829+327628127+326944101+326373837
2738+325882122+325415684+324992819+324620163+324250844+323840703+323398957
2728+322998961+322731437+322607288+322519386+322332129+321967006+321390483
2718+320629422+319842567+319222232+318749706+318217204+317564920+316984546
2708+316604256+316302892+315965521+315718013+315717738+315825173+315709449
2698+315254429+314638977+314023662+313404255+312793583+312302727+311985613
2688+311773699+311582694+311365587+311090531+310781533+310565010+310537429
2678+310544926+310253054+309549803+308710434+308048452+307632293+307445449
2668+307512958+307740004+307897718+307847577+307568257+307020245+306244120
2658+305526219+305186097+305159513+305014316+304503996+303915265+303646228
2648+303620607+303446970+303013271+302527162+302089646+301654606+301326177
2638+301291408+301487056+301640334+301586857+301317029+300830197+300188196
2628+299597677+299223852+298993573+298705175+298263566+297755275+297350911
2618+297127236+296979872+296788317+296626510+296639991+296752998+296722528
2608+296491596+296272907+296223316+296211383+296026809+295686102+295352618
2598+295049500+294688125+294306459+294022565+293804667+293525520+293187048
2588+292913335+292785436+292776254+292752800+292530568+292050890+291478219
2578+291025365+290759355+290654189+290706050+290872396+290978319+290818988
2568+290353685+289732524+289154351+288751948+288562697+288520087+288504474
2558+288464563+288440267+288441986+288405756+288286266+288079080+287758062
2548+287335868+286989349+286969110+287318896+287775137+288022783+287981549
2538+287744719+287351894+286830310+286373123+286194310+286225880+286192470
2528+285962036+285655617+285474998+285534734+285761763+285898500+285736658
2518+285381594+285158365+285241435+285493775+285666072+285628534+285392960
2508+285041007+284708262+284546438+284591541+284692958+284658877+284461648
2498+284235118+284085158+283974575+283816087+283618548+283480160+283446492
2488+283454918+283456913+283493487+283560600+283516167+283277222+283005555
2478+282905186+282912150+282789771+282478228+282152464+281959379+281874830
2468+281833045+281858064+282005513+282233041+282385408+282318467+282040884
2458+281712506+281480422+281359866+281309553+281321676+281357614+281306939
2448+281114267+280861926+280691608+280732721+281036475+281427117+281544268
2438+281222666+280699122+280310286+280170110+280236312+280461380+280753407
2428+280965906+281015119+280915043+280719361+280526310+280467863+280572376
2418+280697884+280698916+280601986+280548027+280618665+280773233+280913822
2408+280964169+280904055+280789053+280762572+280968021+281363219+281693317
2398+281744541+281560208+281352386+281307215+281497205+281850567+282174388
2388+282279227+282055672+281407428+280190727+278250227+275487759+271929117
2378+267755986+263235166+258597729+253994648+249552789+245449712+241894423
2368+238992158+236691743+234906499+233586557+232762613+232779619+234370162
2358+238118484+243869503+251032251+259358430+268596455+277330367+283273164
2348+284864378+282432832+278300557+275120486+273536442+272533547+271445879
2338+270335410+269275581+268150238+266957920+265985030+265565965+265684440
2328+265960097+266045024+265876855+265626561+265619167+266232951+267611993
2318+269424870+271067394+272171484+272846122+273459597+274304262+275420904
2308+276617005+277652365+278418155+278919930+279209309+279405008+279617524
2298+279813704+279927571+280051996+280295412+280551724+280651199+280623738
2288+280612527+280637683+280609621+280494258+280328048+280103822+279764939
2278+279344205+278998237+278818564+278704095+278525574+278312422+278133058
2268+277902006+277507409+277067658+276850602+276936011+277116269+277145535
2258+276980805+276776285+276722687+276888570+277155852+277313292+277260417
2248+277112452+277058476+277140256+277246403+277294274+277306810+277319809
2238+277330883+277341613+277367320+277413884+277484110+277562107+277576500
2228+277462461+277285178+277220214+277366357+277628275+277829958+277897415
2218+277867632+277769224+277601175+277404616+277245732+277144366+277101154
2208+277153703+277320841+277525619+277638231+277583395+277406817+277260296
2198+277276391+277430994+277582587+277637199+277591700+277460913+277280484
2188+277138537+277104783+277175249+277316490+277476681+277558170+277500273
2178+277377258+277325243+277396672+277526496+277598252+277542075+277406198
2168+277309973+277309062+277361370+277422000+277501442+277619694+277759474
2158+277885344+277989461+278090500+278179898+278202149+278125510+278016251
2148+278006123+278172951+278454455+278695773+278797483+278794817+278771672
2138+278741443+278669808+278584330+278594458+278793992+279160354+279540352
2128+279754845+279771438+279749257+279858515+280100848+280362611+280564913
2118+280694703+280772614+280838850+280906239+280938291+280949381+281068579
2108+281395615+281834472+282173855+282333444+282451008+282684622+282996011
2098+283227322+283351781+283509341+283793406+284128060+284369567+284435993
2088+284334988+284155177+284049564+284145290+284411403+284671344+284811330
2078+284916583+285131231+285463477+285796446+286009753+286064692+286066532
2068+286210748+286538111+286821351+286839716+286662863+286522894+286550458
2058+286742356+287025218+287258128+287327579+287314958+287448067+287829216
2048+288309634+288687878+288953854+289239777+289565145+289770319+289735034
2038+289542344+289378508+289364477+289504274+289715982+289891442+289972432
2028+289998912+290080108+290276822+290510574+290698002+290973126+291537543
2018+292214382+292475062+292097661+291485201+291160210+291251380+291564608
2008+291881723+292092193+292178788+292157707+292062720+291996450+292081291
1998+292342246+292812433+293643169+294774513+295656354+295756396+295211341
1988+294560467+294116864+293899929+293843941+293858523+293886792+293981434
1978+294229940+294619825+294988904+295123302+295061880+295255121+296073683
1968+297133323+297552027+297050889+296295227+295963221+296053014+296254405
1958+296468830+296707121+296874087+296913396+296944794+297153269+297661767
1948+298533050+299840783+301567873+303190348+303675770+302575549+300778440
1938+299501727+299117104+299256729+299468540+299563389+299625189+299795388
1928+300172067+301032517+302617953+304431122+305616666+306258461+306989018
1918+307412400+306595282+304964003+303956912+304226568+305250270+306110169
1908+306253647+305818435+305339066+305118348+305072574+305127874+305454308
1898+306224518+307228651+307962063+308407213+309271206+310751510+311715269
1888+311167153+309818393+308952303+308832246+309015822+309248611+309533502
1878+309874793+310237131+310671552+311652988+314080372+318220127+322404934
1868+323769755+321537365+317987785+315476523+314543371+314533673+314765637
1858+314987903+315225094+315524016+315886251+316441107+317484205+319269966
1848+322039707+325889379+329657063+330672649+328042051+324439923+322450330
1838+322188893+322444105+322724766+324007084+327350527+331850351+334772958
1828+334965958+334076172+333175073+331585716+329295482+327638995+327354517
1818+327812598+328203171+328687802+330018095+332237382+334212840+334785476
1808+334110632+333405764+333902776+336148165+339508288+342289585+343163688
1798+342669393+342776967+345129998+349399715+352462876+351150570+346942584
1788+343895552+343757027+345490514+347524161+349311332+350664357+351224268
1778+351494612+353120904+357427006+363735323+368711007+369174041+365988966
1768+361881297+358548514+357295634+358821747+361709757+363397058+363582285
1758+363736836+364071833+364479189+366485289+371429782+377667564+381327537
1748+380901542+378557899+376778019+376638084+378078633+379985139+380875096
1738+381336272+384149311+390164552+394842381+393203605+387878616+383071032
1728+379768479+378127812+378289034+379715414+382331189+387600672+396638906
1718+406801227+411466297+407988490+401128412+395610871+393227266+394374533
1708+398650887+404253855+408778783+412470018+418134957+426183157+432055677
1698+432558845+429403139+423654459+416980296+413068791+413420674+416623942
1688+421657713+429748041+440520622+446911647+443457088+436173010+431760538
1678+432067955+435960477+440310840+442839469+444994549+448309483+450239443
1668+447883591+444198272+443766878+446771196+449437801+449085023+447860412
1658+449657315+456924886+470153050+484429128+487837397+481892279+479347107
1648+482643401+485415516+481708049+474780222+470390413+470462565+475224547
1638+484307179+494393188+498043635+492977606+486672522+484778776+487248632
1628+491425357+495393504+499114280+501986883+502440941+501655943+503261567
1618+508409823+513207847+512970071+509563314+507560378+508403358+510812652
1608+512960923+514232649+515283622+516748623+518439844+519838677+520989142
1598+522472542+524539376+526696966+528380312+529683368+530992923+532266094
1588+533195290+533829932+534578338+535703836+537253403+539655922+543927634
1578+550333344+556100389+557019475+554824433+555092713+559054566+562787516
1568+562820463+561141450+561040720+563786835+570796580+584243950+601304384
1558+608220243+600945073+591638180+586125866+584255436+584811874+586508976
1548+589224174+594606286+604040767+616876536+631193985+643069159+644986567
1538+637412267+631125892+631346541+635376625+638053512+639027520+642480807
1528+650264338+660083304+669220514+678042156+687229300+694423860+697880173
1518+699347615+700013621+699798887+700244932+704008971+712610101+725896180
1508+740631336+747094822+739122900+727376484+721434013+722242603+727578838
1498+733673933+736228390+734682056+733414216+736248336+742845464+748922883
1488+750119328+747008846+743395781+741755286+742157310+743752754+746602556
1478+751673434+759278410+768151913+775160213+776140480+770894623+765123693
1468+763588157+766193031+769203230+769509718+769111476+772232276+780014981
1458+788327025+789343196+782280558+774654054+770569358+769882580+770992774
1448+771733614+770899369+769417483+768639776+768654014+769369680+771602036
1438+775419930+778087876+776839639+773713887+772266941+772862103+773455408
1428+773080001+773072229+774472129+776656819+779059270+781967123+784345913
1418+783357875+778558957+772836654+768646173+766726083+766454811+766608674
1408+766830011+767753602+769346776+770751628+772034187+774035507+776617751
1398+778793019+780043938+780081424+778555999+776453571+775899884+777687364
1388+780018214+780224626+778411972+777643688+780065535+785136895+791191547
1378+797279489+803228150+808522222+812087691+813721927+814665946+815880411
1368+817180785+818684612+821466459+825571789+828652008+828398550+825733012
1358+823453060+822879839+823130890+822949239+822435720+822460963+823095743
1348+823621229+823720412+823871661+824788993+826856618+829662882+831848742
1338+832144018+830880237+829778296+830186580+831880106+833419149+833755557
1328+833531331+834274303+836403693+838863576+840779952+842501746+844655348
1318+847096453+849254732+850921708+852440185+854345143+856821878+859615899
1308+862522102+865522397+868334507+870457776+871927213+873401327+875082403
1298+876068997+875535119+874260539+873887952+874662014+875061150+873942289
1288+871846739+869577655+866842235+863262529+859642379+857071278+855403820
1278+853645572+851625887+850357360+850685514+852319681+854283997+855823453
1268+856647243+856585409+855602185+854360413+854132817+855570270+857930008
1258+860042891+861572786+862643431+863013542+862728376+862970691+864974831
1248+868319238+871337347+873087548+873980256+874768280+875868982+877337250
1238+878901811+880300403+881654357+883051092+884114721+884660155+885251189
1228+886517998+888557354+891292154+894611043+897907509+900257067+901400276
1218+902130868+903539296+906064933+909242752+912090422+913791239+914463848
1208+915332964+917626397+921381908+925874406+930564513+934586618+936461931
1198+935933625+934843515+935041260+936739394+939234493+941715973+943314374
1188+943943032+944824323+947036251+950225418+953519340+956592611+959044516
1178+960275971+960411125+960264278+960601511+961910207+964323800+967153794
1168+969057720+969161717+967613938+965363012+963783801+964015386+966079916
1158+968911629+971608325+973992480+975933617+977534701+979875661+983742459
1148+987838504+990112060+990795330+992183468+995254126+998109156+998565655
1138+997359787+996974957+997967948+998465991+997510624+996862982+998293695
1128+1001242886+1004231351+1006589988+1008217002+1009362412+1010920920
1120+1013021629+1014322140+1014691631+1016186517+1019522257+1022267994
1111+1022032556+1019203320+1015757324+1013036004+1011161310+1010172102
1103+1010781983+1013253283+1016574373+1019643931+1022607772+1025701609
1094+1027753552+1027908103+1027544114+1028515989+1030712097+1032766448
1085+1034220753+1035664053+1036986917+1036997028+1035757457+1035730220
1077+1038806381+1043495937+1046352342+1045867849+1043992329+1043624076
1068+1045729186+1048664140+1049902885+1048797506+1047546036+1048492875
1060+1051359735+1054546633+1057163268+1058738009+1058582013+1057218912
1051+1056931545+1059545428+1064796169+1070584914+1073741823+1072002833
1043+1066741088+1062044448+1060338748+1060426857+1059720614+1057531934
1034+1055976796+1057564399+1061901934+1065429848+1065656000+1064304041
1025+1063867213+1063457553+1060477204+1055150874+1051115769+1051226713
1017+1054295239+1056480273+1055552073+1052869822+1050890786+1050393225
1008+1050543718+1050363167+1049905361+1050019125+1051537947+1054322545
1000+1056935603+1057597826+1055685715+1052178366+1048575481+1045851617
991+1044490303+1044646367+1045492030+1045240222+1042891833+1039312609
983+1036212787+1034762609+1034903404+1035420155+1035149571+1034193378
974+1033181266+1032380105+1031928764+1031387458+1029837478+1027884786
965+1027528570+1027952811+1025249924+1018369488+1010789205+1005204808
957+1001471858+999327267+998874000+998874550+997156058+992592783+986020829
947+979792161+976124347+975276484+975846059+976491912+976465156+975435161
937+973755736+972127897+970666576+969355542+969118454+970739346+973301231
927+974975223+974716950+972888064+970630053+968561740+966171120+963062357
917+960334090+959282498+959256017+958654665+957722339+958016309+959745807
907+961621464+962566240+962123772+960115092+957307590+955267821+954518383
897+953962220+952789986+951705860+951550071+951976720+952233548+952060908
887+951076446+948973811+946915127+946656167+948101462+949214200+948385940
877+945885063+943193320+941873000+942575735+944477942+945855832+945664964
867+944641572+944403384+945308060+946001922+945585935+944647418+943689299
857+942237746+940146391+938439591+937974288+938151605+937789198+937055167
847+937688228+940833169+945370444+948948224+950001124+947983365+942961665
837+936538760+931923969+931651734+935446862+940771885+945125928+947198299
827+946624940+944142635+941495186+940210289+940594224+941697333+942301437
817+942468781+943460534+945773226+948301546+950304998+952897835+956642959
807+959470270+959271631+956950410+955181776+955192299+955750182+955189136
797+953392851+950986686+948144106+945636627+945138033+947050420+949723249
787+951456323+951659364+949970585+946559530+943710140+944449879+949053253
777+954502426+957887757+959005311+958802751+957492335+955438191+953545270
767+952112562+951205616+951265249+952020740+952360449+952033189+951672364
757+951459487+951545463+952117033+952132715+950293374+947535257+945733814
747+944611515+943220144+942779121+944688962+947609265+949314346+949758396
737+950394620+951960212+954209763+956788018+959264684+961058285+962186362
727+963623954+966090921+968489245+968273548+964019651+957325542+951429017
717+948394125+948348867+950095629+951709299+951893151+950973893+950116813
707+950150103+951649391+954813523+958085847+959079594+956975446+953108855
697+949587062+947590144+947306835+947949731+947221478+943134856+937245828
687+933769844+934320023+935255444+932085604+925285710+918855376+915235227
677+914318514+915370725+917779779+919358715+916452512+908925053+903943178
667+908829791+918294054+923134378+920907732+913573065+904814564+898216267
657+895020290+894450027+896583750+902422912+910177692+914714554+912555107
647+905575075+898396198+894226557+893790348+895469086+896947602+897937360
637+899016258+899325842+898038468+895045051+889806829+882225858+875488761
627+875398383+883786842+894327872+897912943+893555255+887698623+883351734
617+879225219+873744200+867623656+863553404+861190571+859995157+861562744
607+866464421+872170147+874305247+873256130+873150483+873375190
##END=
