##TITLE=<SNM>
##JCAMP-DX=4.24
##DATA TYPE=INFRARED SPECTRUM
##DATE=2/5/2025
##SAMPLING PROCEDURE=Instrument type and / or accessory
##ORIGIN=Admin
##XUNITS=1/CM
##YUNITS=ABSORBANCE
##RESOLUTION=4
##FIRSTX=4497.3318
##LASTX=599.83466
##DELTAX=-1.4281778
##MAXY=1.8525892
##MINY=0.38543746
##XFACTOR=1
##YFACTOR=1.7253582e-09
##NPOINTS=2730
##FIRSTY=0.40921891
##XYDATA=(X++(Y..Y))
4497+237179103+238108431+237973770+237002589+236026623+235268125+234426130
4487+233760251+233998223+235112564+236178281+236656850+236857529+236976523
4477+236629403+235593827+234456513+234043478+234409081+234850358+234941041
4467+235016439+235418764+235889422+236043464+235838449+235349499+234729964
4457+234433764+234760226+235176474+234749275+233391072+232218193+232404103
4447+233882994+235484229+236278551+236315049+236042462+235642727+235028754
4437+234228888+233671501+233745154+234020954+233625002+232546676+231793084
4427+232146907+233343036+234454872+234751555+234166791+233200032+232508088
4417+232492645+233027888+233647924+234202322+234938520+235682939+235655820
4407+234563900+233142564+232213736+231864474+231752129+231723577+231919765
4397+232323058+232421117+231749694+230661764+230023643+230244721+231012874
4387+231757052+232139358+232332299+232676311+232969280+232555451+231231120
4377+229665916+228733582+228689968+229150918+229651459+230001568+230178945
4367+230211039+230244877+230407071+230447301+229878877+228675476+227401583
4357+226487645+225986655+226183724+227544881+229682239+231237943+231325932
4347+230436298+229530823+228905191+228372505+228058704+228355819+229121191
4337+229518646+228977392+227910155+227157168+227078748+227427043+227772178
4327+227810507+227385847+226442216+225143951+223970640+223395618+223445502
4317+223851075+224557131+225666912+226953622+227827365+227864399+227233619
4307+226552626+226295999+226327834+226182653+225844912+225836707+226377235
4297+226950150+227026462+226821810+226937627+227580636+228514525+229375521
4287+229587565+228524508+226379895+224369822+223492865+223592600+224023703
4277+224576287+225212215+225551528+225428785+225494492+226446431+227871809
4267+228561559+228060172+227189175+226789700+226799856+226936003+227387212
4257+228297591+229217506+229522670+229028884+228036318+227093776+226717498
4247+226971724+227359108+227477222+227579340+228027302+228532592+228679967
4237+228778786+229252432+229700324+229552639+229188919+229469901+230454106
4227+231295100+231332565+230818949+230424828+230443898+230807998+231439365
4217+232055117+232095208+231410588+230545481+229980270+229714419+229725854
4207+230078968+230514234+230608925+230358223+230123879+230139442+230392355
4197+230792158+231139642+231054762+230322986+229350924+228864098+228996168
4187+229085816+228611859+227943700+227813633+228346388+228994406+229265508
4177+229208179+229171024+229273868+229307983+229194757+229321421+230085964
4167+231232554+232075154+232300793+232142053+231948836+231998962+232403395
4157+232809935+232548576+231372484+229755823+228355128+227560703+227574970
4147+228375649+229429085+229963670+229849512+229741745+230078554+230484852
4137+230479947+230214873+230065945+229967816+229641820+229170160+228950308
4127+229280000+230210192+231464981+232323473+232108509+231065316+230226170
4117+230247468+230895797+231587258+231929974+231898001+231783428+231773911
4107+231603149+231042377+230531023+230662368+231239377+231528978+231331788
4097+231143856+231290903+231508613+231507767+231371430+231189406+230895607
4087+230674148+230924021+231566202+231889727+231384730+230397779+229758379
4077+229985400+230907249+231885081+232364721+232262827+231860346+231423785
4067+231074263+230891254+230860733+230824995+230748457+230893379+231484051
4057+232328551+232975360+233159457+232955582+232533825+231932098+231185450
4047+230559714+230417643+230812316+231404145+231863161+232151018+232285213
4037+232102169+231546372+231031616+231149418+231980117+233050153+234037795
4027+235029463+235918735+236167589+235571579+234726336+234326861+234443489
4017+234728116+234885232+234724506+234184340+233526183+233189236+233375630
4007+233925175+234473510+234664032+234412208+234022630+233940375+234387041
3997+235179842+235839088+236065193+236100223+236291247+236504708+236471837
3987+236399273+236672534+237237019+237665652+237664305+237435798+237607493
3977+238515990+239608602+240062868+239859805+239631679+239636273+239472610
3967+238850536+238319249+238818374+240396671+241902196+242270822+241503463
3957+240206494+239054204+238737345+239683118+241751540+244229283+245950117
3947+246162715+245607626+245528481+245736224+245103216+243659702+242518795
3937+242412271+243633032+246338383+249786512+251994898+251548941+249520023
3927+248317502+249041229+250565185+251275075+251295181+251908412+253262832
3917+253751920+251886026+248302112+245092870+243629318+243859258+245632447
3907+249833271+257184141+265983795+272309523+273658105+270569343+264566294
3897+257655542+252758854+252193505+255655418+259633850+260695905+260262022
3887+261682719+264491087+265667144+265403038+265934912+265961720+262996426
3878+259267591+258770574+262040324+267060930+272071586+275268219+274997066
3868+272969305+272230827+272327349+270388113+266206567+262809600+262497751
3858+265927658+273595075+284708809+292366693+288591272+277969632+268512097
3848+263429429+263120827+266576073+271982940+277867669+283478669+287483339
3838+287867580+284849274+281136123+278161795+275282936+272254180+270260810
3828+270041355+271213371+274284428+280559011+288025525+290855743+288430165
3818+286070052+284667026+280796465+274824214+270952443+271740979+276657255
3808+282504275+286021808+288358810+292593869+297254191+297681045+294274578
3798+290940969+288391646+285614750+283272342+282750400+284303202+287492926
3788+291961258+297069542+301739330+305807772+310602998+316706940+322280838
3778+325708343+328660078+334071885+343303229+355774216+369147861+380551196
3768+389552013+397625643+404868470+411076396+417746032+425521286+431891578
3758+434743613+436490996+441470976+451933927+465991312+477414408+482539896
3748+485628675+491724671+500554104+506877517+509020801+511671810+518905759
3738+531861810+547804314+559938302+563493905+561452049+559850313+561530435
3728+566166264+572218248+577837471+581912270+584385573+584987507+583516943
3718+581461925+581744859+586464566+594114210+598394214+593938024+584403192
3708+576446225+572128946+570913367+571648892+572138826+570718492+568520764
3698+567709134+569293770+573683631+581346471+591432593+599828781+601161299
3688+596108081+591295790+590346804+592344821+595359326+598795641+603603303
3678+609990558+614873255+614415587+611129963+610457140+612091661+610470337
3668+603490406+595534683+590349706+587617375+585282878+583222747+583084907
3658+584831565+586165672+586468988+588398880+593953156+600859986+602785594
3648+596589241+586796210+578523352+573280960+570493872+569330182+569322064
3638+570056655+570950816+571801379+573577090+578074355+585569542+591728792
3628+590861543+585192090+581385094+583181291+590557467+599915492+605770804
3618+606393742+605475157+605961430+607338512+608903941+611391270+613650180
3608+612295069+607081074+601855678+599536381+599875004+601321248+603651806
3598+607908595+613476689+616971249+616444142+615242624+618141330+625675590
3588+633486150+637050977+636522212+634254666+631221160+627928557+625487796
3578+624509792+624438212+624927594+626718126+630271415+634777005+638851734
3568+641182777+641265480+640303160+639573751+638516014+636322120+634164914
3558+633750290+634630598+635088681+634804780+635011988+636586882+639006778
3548+640984205+641533974+640637222+638899270+636810189+634668737+632715078
3538+631051676+629691176+628785926+628491385+628560477+628613057+628802232
3528+629591475+630865264+632112798+633191678+633674910+632406994+629339633
3518+626401959+624913016+623945859+622621425+621989920+623073083+624750648
3508+625109653+623956292+622909817+623490747+625236092+625765272+623377850
3498+619181587+615734148+614225928+613953911+613867407+613378025+612128556
3488+610346938+609313798+610305966+612760545+614321414+613572866+611795185
3478+610761700+610220636+608974761+607321377+606336395+605648787+604308116
3468+603025483+602988311+603173410+601576544+598586774+596445322+595937630
3458+596033738+596209302+596999582+598545733+600196767+601409962+601897617
3448+601226176+599376294+597302207+596091845+596067386+596887928+597826964
3438+597912570+596602922+594559235+592857072+591515435+589885681+587975135
3428+586410260+585500312+585098884+585210814+585904503+586649803+586680619
3418+585858418+584629884+583382627+582201629+581182377+580571115+580586247
3408+581337835+582501421+582934631+581524799+578537378+575401443+573317821
3398+572594008+572850721+573256812+573068051+572478347+572322474+572853795
3388+573596505+574061359+573936855+573123671+571919009+570687400+569555596
3378+568685860+568085896+567081602+565239803+563488792+562897672+563228176
3368+563880029+564954313+566240953+566773104+566457835+566402595+566939168
3358+567017760+566123151+565257076+565357675+565898220+565801629+564795193
3348+563220541+561459891+560056761+559639408+560380701+561761895+562780456
3338+562544160+561248607+560278168+560587668+561464452+561696361+561362609
3328+561407692+562034292+562430503+561877037+560515363+559106912+558337153
3318+558155198+557709379+556481778+555400964+555782458+557334966+558510091
3308+558665480+558495686+558537072+558499417+557976041+557103334+556632676
3298+557483204+559880990+562973984+565501560+566399797+564911787+561381575
3288+557948715+557019145+558659573+560447203+560390754+559184434+558730842
3278+559485159+560336793+560171420+558741758+556650052+554958772+554620495
3268+555995436+558493164+560658626+561130942+559827754+558020882+557143822
3258+557636797+558626236+558735540+557588259+556244618+555940231+556829486
3248+558007513+558384239+557643326+556484092+555633391+554969378+554069344
3238+553066087+552320372+551739891+551116746+550705715+550849565+551185493
3228+550775326+549289146+547497509+546096797+544786216+543236506+542049912
3218+542042450+543245419+544907266+546110235+546537158+546855018+547772808
3208+548613698+547777575+544951140+541808848+540034967+539553255+539195977
3198+538433265+537661260+537163518+536667745+535891664+534957050+534196618
3188+533820340+533706165+533479369+532882582+531901158+530507286+528700207
3178+526896271+525787613+525600545+525813212+525855220+525743152+525602307
3168+525080624+523861176+522338896+521149780+520376047+519707578+518951913
3158+518052052+517031798+515978483+514783529+513226944+511568344+510511644
3148+510409180+510938843+511420521+511127949+509777778+507985588+506710728
3138+506215646+506094388+506092799+506234404+506353312+506152461+505606906
3128+504826610+503706172+502262208+501129506+501036749+501776972+502292747
3118+501910493+500876627+499608918+498262409+497178176+496798029+496860765
3108+496486802+495346741+494119382+493550094+493549265+493473540+492961496
3098+492107547+491044559+489921841+489138297+488940589+488899306+488346739
3088+487251416+486221834+485814569+486141480+486786009+486882428+485817229
3078+484087291+482884874+482716703+483016807+483199833+483431983+483975638
3068+484373610+483895525+482520481+480929902+479635593+478592262+477666872
3058+477017057+476808432+476843462+476676534+476060229+475172495+474393650
3048+473936603+473731951+473649627+473706767+473900536+473938399+473470056
3038+472590957+471764231+471210420+470646177+469675773+468291056+466925339
3028+466009345+465466831+464852253+464100665+463726737+464056722+464742120
3018+465212260+465148487+464389817+462852786+460749541+458595272+456904890
3008+455962192+455783968+456125285+456453785+456117132+454837954+453061793
2998+451634964+451186761+451722815+452530748+452694221+451957039+450869488
2988+450028218+449511165+449068178+448547048+448044780+447673615+447263517
2978+446551968+445625403+444804239+444151522+443459837+442617945+441774153
2968+441184034+440939205+440842441+440601101+440081733+439279051+438186906
2958+436876532+435586161+434664260+434407167+434773392+435237348+435118785
2948+434144166+432645378+431214679+430222408+429697823+429549654+429649838
2938+429697201+429278846+428219278+426842990+425825327+425589100+425802458
2928+425733607+425105833+424289228+423700802+423346496+422965105+422433922
2918+421928096+421629168+421421579+421094219+420638347+420104400+419426015
2908+418611208+417899417+417538892+417461440+417285945+416725639+415934081
2898+415311109+415031871+414902668+414584739+413884522+412936573+412077857
2888+411443104+410800786+409910322+408921470+408290137+408330453+408837419
2878+409165954+408871654+408244916+407845769+407573717+406800400+405468573
2868+404302844+403764269+403542171+403249357+402908454+402549277+401964098
2858+401112015+400310819+399812938+399485785+399095620+398682240+398402001
2848+398182114+397872303+397599457+397603291+397788632+397704063+397001703
2838+395835664+394755783+394145074+393826662+393421607+392974267+392824233
2828+392883860+392526548+391360094+389767962+388480768+387867331+387764901
2818+387741064+387442861+386892781+386404436+386067057+385593117+384847022
2808+384090770+383510048+382938065+382224616+381474825+380825701+380308647
2798+379943148+379725472+379577649+379433038+379242377+378865305+378179977
2788+377312762+376518130+375877470+375363698+375062144+374994157+374845642
2778+374261189+373331239+372438218+371738519+371141249+370666998+370436471
2768+370332590+370034940+369433870+368733825+368127262+367595560+367036222
2758+366422577+365827242+365332505+364894528+364341926+363592514+362802787
2748+362198850+361821916+361526925+361177179+360756440+360313938+359877826
2738+359462718+359108654+358817291+358442809+357780385+356867121+356085996
2728+355791869+355865971+355828661+355408786+354803881+354299540+353861736
2718+353283846+352555300+351839606+351191622+350547404+349946057+349534508
2708+349374317+349409589+349550399+349630097+349399812+348786823+348092133
2698+347693815+347581609+347390291+346874101+346130528+345343530+344554978
2688+343782524+343181972+342933377+343003057+343132121+343078989+342776813
2678+342247910+341519848+340704108+340023892+339644367+339532023+339528637
2668+339482553+339248502+338697697+337928386+337363935+337326591+337535492
2658+337379239+336719337+336038810+335733974+335633963+335343118+334789480
2648+334243995+333913664+333714332+333446253+333046242+332599697+332193468
2638+331834463+331493596+331190590+330983555+330842848+330610524+330180147
2628+329662921+329273067+329072111+328919313+328666918+328310297+327932949
2618+327597263+327341310+327198737+327142323+327033883+326702135+326118027
2608+325467867+324987260+324728301+324556848+324385084+324298546+324385257
2598+324511351+324385533+323867581+323132437+322501139+322188599+322206805
2588+322371280+322395566+322142066+321781748+321561861+321475288+321335825
2578+321087576+320802604+320445499+319899738+319223150+318686957+318499302
2568+318549878+318491357+318118741+317602240+317238986+317083735+316977264
2558+316803393+316553278+316276079+316086973+316090116+316232171+316333944
2548+316273315+316075641+315849916+315673523+315548397+315461375+315412526
2538+315354627+315214715+315020634+314892191+314867698+314838644+314682979
2528+314395278+314067676+313796729+313627764+313535353+313448987+313354779
2518+313324620+313362345+313326728+313138934+312932279+312855897+312863601
2508+312809260+312648585+312452846+312274276+312086518+311884491+311756048
2498+311772527+311874093+311934894+311896271+311819372+311819475+311894337
2488+311837025+311439881+310768129+310131649+309811544+309835864+309972633
2478+309957053+309751468+309529612+309440828+309480211+309540529+309525639
2468+309444766+309390909+309403898+309413917+309335117+309154751+308932480
2458+308754809+308682296+308705511+308740990+308706029+308634933+308655626
2448+308772427+308763549+308433943+307915646+307574813+307613055+307871081
2438+308074040+308152633+308191636+308190081+308103059+308021012+308060049
2428+308147797+308120367+307971749+307855950+307875814+307974375+308050376
2418+308109830+308229533+308421472+308634001+308819894+308896310+308765034
2408+308510118+308398948+308533782+308703128+308725824+308719744+308869813
2398+309140587+309366485+309472507+309488502+309461210+309444421+309476929
2388+309465978+309165771+308396391+307201471+305609131+303347527+300079729
2378+295884260+291254303+286662071+282338937+278405916+274960619+271995567
2368+269394494+267121092+265313754+264069087+263353410+263396489+264880405
2358+268328932+273503649+279812000+287082482+295168151+302863638+308214125
2348+309940609+308379844+305477752+303396721+302667381+302412844+301758123
2338+300283068+298044610+295623367+293759943+292802182+292530442+292481075
2328+292406455+292339816+292323924+292351112+292546575+293157076+294288189
2318+295739304+297126681+298179789+298922326+299559808+300266071+301124269
2308+302148254+303247654+304217471+304838197+305031207+304946984+304856403
2298+304920763+305133568+305467665+305896625+306255181+306308797+306058682
2288+305804180+305797685+305966201+306074469+306041409+305946061+305794299
2278+305482278+305015903+304577235+304302523+304156738+304080046+304071029
2268+304061114+303910182+303619026+303390364+303398586+303593254+303768749
2258+303775520+303646076+303533282+303535148+303595535+303581405+303446675
2248+303282615+303169061+303037716+302803078+302570547+302519695+302609688
2238+302621296+302486151+302381614+302491195+302808709+303173449+303416689
2228+303486437+303481912+303553941+303736207+303882441+303814420+303533628
2218+303232834+303094476+303145259+303309733+303511138+303687013+303776730
2208+303740767+303582303+303362486+303211104+303251108+303454309+303656129
2198+303763257+303825785+303849035+303721283+303439662+303223886+303265756
2188+303493312+303685113+303714063+303598644+303415790+303256049+303199980
2178+303262543+303406014+303615260+303849138+303952259+303811034+303577640
2168+303525958+303718830+304003526+304249702+304426579+304534294+304588048
2158+304623320+304696005+304886666+305212437+305515718+305583153+305409696
2148+305224770+305234443+305428455+305657082+305827878+305971452+306131263
2138+306269725+306343205+306403211+306526023+306686732+306812066+306923616
2128+307104293+307343526+307557885+307767581+308103301+308604567+309142349
2118+309588133+309950489+310284067+310577952+310821952+311084227+311419706
2108+311777329+312079297+312326683+312580805+312884432+313209927+313471857
2098+313612563+313649666+313626589+313613531+313755343+314152901+314681148
2088+315073939+315183105+315073628+314941937+314979662+315219896+315503417
2078+315654212+315670310+315727726+315994458+316407216+316727184+316935014
2068+317351849+318110830+318762165+318770801+318217301+317652712+317452966
2058+317592878+317864273+318077631+318152907+318160231+318235922+318423957
2048+318662361+318921216+319268129+319747044+320219843+320416515+320213556
2038+319798414+319460759+319291275+319197516+319147804+319235275+319491920
2028+319782177+319947654+319969107+319939604+320000095+320343104+321068023
2018+321908118+322328892+322101785+321584351+321274057+321304457+321474736
2008+321575473+321560272+321488243+321427856+321465132+321714452+322182105
1998+322736295+323427566+324586834+326193511+327430681+327474313+326522287
1988+325430488+324713342+324389990+324351574+324466993+324576401+324606353
1978+324587076+324542166+324444227+324285625+324246934+324754383+326043822
1968+327561957+328251776+327737279+326733434+326045826+325794502+325780545
1958+325981155+326363651+326654703+326653529+326562465+326745525+327252008
1948+327874462+328724852+330217112+332034486+332766072+331541684+329365305
1938+327806060+327346284+327544407+327915330+328233743+328443266+328576511
1928+328811011+329595521+331228419+333109462+334274534+334849521+335563903
1918+335927675+334786440+332656422+331429789+332012342+333530857+334453069
1908+334082387+333002126+332180824+331965083+332106826+332408000+332975180
1898+333929071+335015343+335689064+335938384+336585574+337964763+338936895
1888+338367469+336872066+335766793+335439053+335575856+335918831+336321053
1878+336675256+336963993+337304688+338305217+341087986+345949955+350744006
1868+351993544+349088101+345049438+342532606+341806858+341878335+341952160
1858+341834150+341661039+341583068+341676205+342179509+343509297+345858166
1848+349235545+353638429+357950975+359307260+356463793+352208076+349601873
1838+349072763+349355662+349723925+351048704+354414821+358864412+361603238
1828+361658097+360880669+360190020+358584311+356044229+354201705+353934663
1818+354448296+354793828+355307392+356952208+359582283+361610562+361754412
1808+360546158+359639733+360495340+363645094+368042762+371291007+371807369
1798+370688140+370496443+372954650+377573103+380946751+379450829+374525779
1788+370798930+370415467+372150655+374093502+375734759+377050867+377615457
1778+377885850+379679802+384469431+391514516+397230399+398155686+394988590
1768+390367995+386175394+384308308+385903688+389276714+391251481+391412846
1758+391452713+391603576+391972426+394639915+401052665+408687903+412512276
1748+411059226+407474708+404772501+403973930+404918666+406580029+407588020
1738+408568960+412404319+419938613+425895905+424233816+417758261+411453157
1728+406866763+404588300+404795267+406541130+409462464+415236040+425339952
1718+437041802+442819765+439209958+431301909+424523936+421108521+421698916
1708+426032605+432302817+437849804+442558457+449063584+457627356+463494724
1698+463737792+460445120+454463369+447241027+442872758+443393198+447518157
1688+453930424+463559775+475741851+482588882+478255920+469689902+464274329
1678+463999030+467817703+472647164+476064720+479343884+483769742+486150220
1668+483195100+478634097+477921236+481251943+484189030+483501525+481620689
1658+483097887+490835589+505597441+522267178+527253721+521222223+518274012
1648+521391431+523679774+518862853+510907544+506211396+506708068+512344598
1638+522418214+533108860+536246937+529704639+522047567+519340904+521204812
1628+524614077+527859040+531482561+534920500+535814626+534797930+535855356
1618+540515955+544698158+543602489+539593328+537447419+538187849+540152079
1608+541685932+542553112+543375658+544474540+545576254+546401633+547205835
1598+548529889+550530496+552735549+554507771+555665692+556495009+557281109
1588+558102826+558994188+560025842+561220382+562700343+565161349+569807749
1578+576804815+582873830+583272977+580099421+579707252+583641309+587805099
1568+588186144+586421522+585963162+588546392+596158864+611434522+631151169
1558+639045815+629985233+618332993+611225656+608767414+609503249+611659418
1548+614936061+621181261+631674821+645012297+658505092+668263163+667953075
1538+659437219+653355422+654081169+658190998+660150046+659958176+662353268
1528+669466201+679198431+688886303+698426732+707483513+713045666+714382122
1518+714640320+714891057+714120054+713481916+715895593+723131787+735019702
1508+748069546+752462101+742975288+731174498+726324620+728577450+734753420
1498+740565756+742370383+740750302+740469510+745082885+753535176+760368769
1488+760816143+756522804+752193400+750334052+750785848+752437849+755105787
1478+759777959+767125185+776341363+784521844+787144526+783305609+778578163
1468+778064391+781887693+786300976+787964999+788642382+792719115+801831171
1458+812087190+814872516+808292976+800025231+794737721+792767964+793231021
1448+794243572+793638529+791408292+789703297+790186668+793037424+797933802
1438+803874581+807509606+805783330+801238357+798272838+797799900+798122908
1428+798244856+798876361+800500657+802729580+805677342+809716351+812926250
1418+811606721+806061980+800613899+797683549+796630717+796026296+795687743
1408+796552366+798622515+800106898+799927880+799887253+802158393+806405093
1398+810707137+813841310+815227168+814495962+812962109+813117705+815703975
1388+818485846+818421313+815847204+814494649+816901002+822309838+828526366
1378+834473916+840414972+846065356+849807405+850836537+850732484+851199826
1368+852192408+853455350+855943094+860037239+863619200+864033548+861572888
1358+858621741+856564443+855261289+854379186+853947427+853799914+853503369
1348+852948349+852366522+852147291+853026424+855527572+858714877+860407989
1338+859601818+857699218+856294360+855275730+854019559+853056755+853352195
1328+854772184+856379966+857699978+858895209+860198086+861669687+863151790
1318+864319660+865023160+865464315+865932210+866552937+867349642+868503348
1308+870364009+872936322+875604122+877682907+878997461+879681891+879837971
1298+879721896+879847575+880431475+880844649+880141149+878240276+875985098
1288+874028675+872295282+870369467+867898444+864910815+862091220+860384774
1278+860033162+860345322+860547072+860514253+860631779+861100710+861492741
1268+861156261+860065359+859047834+859102763+860508518+862527470+864129725
1258+865129700+866209201+867779743+869459174+870730752+871660806+872883536
1248+874997420+877873326+880709987+882939740+884686467+886168847+887199706
1238+887625178+887900788+888954379+891408752+894898959+898307429+900837320
1228+902557377+903786602+904738074+905877755+907696269+910079960+912715769
1218+915802891+919234024+921693371+921917161+920371908+918890081+919048165
1208+921095721+924107946+927346380+931223643+935968708+940102304+941918884
1198+942026599+942523789+944043892+945340344+945573669+945655682+947045823
1188+950125206+953831880+956751314+958605134+960329268+962731959+965566202
1178+968016706+969421010+969521056+968919261+968941785+970206868+972095442
1168+974097259+976070126+977307642+977817199+979468993+983258992+986914330
1158+987831395+986988259+987327710+989738416+992606307+994339838+994901076
1148+995018188+995001122+994918626+995672218+998729284+1003862510+1008154881
1138+1009147394+1008040256+1007412275+1007667088+1007922177+1008216511
1130+1008738367+1008470841+1006627246+1004322459+1003610461+1005672319
1121+1010034266+1015083476+1019585473+1023528996+1026875560+1028354001
1113+1026912317+1023615361+1021132937+1021907879+1026209162+1031223135
1104+1032743792+1029406141+1024339520+1021713176+1023436965+1028638247
1095+1034799086+1039359743+1040997649+1040228512+1038798505+1038138326
1087+1038427547+1039027546+1038962737+1037710989+1035732525+1033699203
1078+1032995012+1035625778+1041249215+1046114570+1047461390+1046975462
1070+1047297917+1047883130+1046958397+1045349371+1045508491+1048508486
1061+1053798967+1059837927+1064388013+1066074906+1066229051+1067548649
1053+1070605162+1073290511+1073741823+1071824437+1068183816+1064159179
1044+1061971158+1062967817+1065856643+1067552172+1066163344+1063007545
1035+1060999303+1061201536+1062216989+1062731797+1062908605+1062951511
1027+1062545247+1062121641+1062348265+1062446998+1061203057+1059282769
1018+1057893112+1056870128+1056163796+1056530953+1057731988+1058280652
1010+1057937746+1058363355+1059998084+1060503633+1057688667+1052946228
1001+1049731493+1048981217+1048845727+1048712102+1050058369+1052783791
993+1054206268+1052491047+1048457842+1044021620+1040854766+1039864809
984+1040590695+1041580583+1041797671+1040884890+1038938348+1037195352
975+1037454103+1039775887+1041692927+1040777244+1037822919+1035734115
967+1034955442+1032419472+1026044584+1018147175+1012391701+1009633115
958+1008415636+1007437079+1006332083+1005252513+1004307535+1003163018
950+1001564425+999793239+997723159+994451768+989680517+984886811+981883706
940+980497089+979097897+977012617+975355572+974903292+974375978+972454723
930+970377112+970380912+972257948+973406611+972412370+970729139+970138260
920+970461336+970802791+971339985+972492655+973261447+972324760+970528287
910+969824925+970229393+970334413+969799706+969279094+969064839+969103669
900+968834001+966576335+961498244+956001315+953507421+954596043+956675174
890+956913543+955134757+953514331+953922391+956207556+958561606+959337653
880+958651219+958162182+959168998+960887328+961011349+958461353+954892380
870+952525479+951482666+950446762+949239855+949252153+951289414+954088006
860+955258501+953725616+950825597+948358373+946618417+945346424+945212039
850+946517334+947668415+946834607+944200594+941698064+940562460+939919140
840+938593048+937291967+937493234+939220960+941447811+943621668+945430302
830+946344672+946778780+947982786+949830250+950603257+949627533+948093887
820+946960563+946260034+946314617+947602501+949519403+950862008+951383104
810+951592938+951595010+951307448+951132091+951484739+952337755+953507560
800+954629000+955042518+954439134+953528149+953264147+953443442+953171908
790+952535083+952606248+953955832+955984594+957449839+957664578+957500760
780+958341201+959879683+960485279+960003152+960056767+961248682+962134517
770+961151123+958269552+954778585+952433448+952512766+954906752+958096683
760+960726895+963009780+965449920+966838541+965381242+962509965+962423254
750+966286008+969763087+968491095+964231681+961759966+962098589+962503056
740+961165840+959185580+958867409+961670561+966430066+969873912+970400189
730+969680522+969450858+969068362+967876517+967163897+967909543+968984622
720+968679648+966542548+963191010+959738389+957473883+957444795+960201862
710+965184190+970213225+972564857+970560967+963960286+955075337+949036792
700+949144714+952113550+951643997+946433940+939845211+934454408+930947964
690+929215677+928050640+925923697+923315110+922437566+924262368+926742857
680+926403129+922166033+916644161+913214410+913004922+913881429+911346495
670+903037225+895055661+897068601+905623978+911419940+913838522+916405308
660+918681975+917893906+914964108+912763858+911560612+910116786+907875633
650+904088951+898222653+892204490+888994591+889372527+892019529+894911810
640+895744996+892677704+886753300+882921914+885071451+890897813+894526688
630+893117340+889276488+888002976+891371304+894595643+889431877+875090764
620+860525999+854216611+857688163+866797040+875530814+879418580+878468005
610+878775674+886442936+899164729+907755758+907054676+901074791+894605938
600+886526055
##END=
