##TITLE=<SNM>
##JCAMP-DX=4.24
##DATA TYPE=INFRARED SPECTRUM
##DATE=2/5/2025
##SAMPLING PROCEDURE=Instrument type and / or accessory
##ORIGIN=Admin
##XUNITS=1/CM
##YUNITS=ABSORBANCE
##RESOLUTION=4
##FIRSTX=4497.3318
##LASTX=599.83466
##DELTAX=-1.4281778
##MAXY=1.7334826
##MINY=0.18837914
##XFACTOR=1
##YFACTOR=1.6144315e-09
##NPOINTS=2730
##FIRSTY=0.20849882
##XYDATA=(X++(Y..Y))
4497+129146900+129104977+129191241+128741095+127795826+127140811+127427559
4487+128435657+129289881+129445702+129183543+129012253+129010361+128959651
4477+128780230+128605257+128574614+128679992+128777461+128767206+128761438
4467+128943157+129339539+129920732+130637089+131058658+130546238+129219078
4457+128070159+127747220+127906853+127986415+127905736+127843194+127983083
4447+128547081+129504266+130292220+130317565+129657382+128880864+128359472
4437+128117241+128027987+127774864+127074761+126295401+126267526+127167846
4427+128187573+128555739+128282301+127707264+126961593+126120198+125416670
4417+125064178+125012757+125002549+124853993+124658271+124615989+124692727
4407+124569543+124027245+123237353+122581628+122343809+122555803+122891654
4397+122811686+122155674+121467949+121372889+121766612+121992738+121779018
4387+121593606+121851916+122080819+121389226+119823278+118583739+118463537
4377+118774338+118492261+117836277+117774612+118450264+119095458+119200827
4367+118975182+118818974+118892657+119092643+119152684+118894724+118446655
4357+118036475+117749718+117752358+118362266+119481483+120396810+120616595
4347+120465832+120388688+120215608+119638180+118883851+118419787+118386513
4337+118609675+118830170+118820746+118509124+117988489+117403188+117025904
4327+117253616+118073275+118725327+118438459+117425488+116684505+116832970
4317+117564233+118288961+118814691+119164646+119198187+118923983+118892703
4307+119626671+120812667+121648792+121817543+121582364+121178349+120649841
4297+120032549+119333647+118645534+118356792+118762966+119538266+120102328
4287+120316279+120405394+120466183+120397060+120171193+119995546+120122496
4277+120451230+120507081+120027713+119386774+119225804+119801274+120787875
4267+121620862+121973918+121898250+121583748+121183029+120880313+120853879
4257+121042429+121160665+121048585+120891768+121026784+121584228+122359398
4247+122980816+123166735+122898992+122471589+122322155+122648776+123164271
4237+123318485+122843150+122022800+121323297+120893309+120684139+120880793
4227+121740039+123038900+124101094+124437425+124192868+123966964+124195037
4217+124665914+124848999+124643974+124414461+124373185+124449064+124664307
4207+125116613+125646921+125912440+125736406+125192520+124496128+123922328
4197+123665477+123715522+123977542+124463122+125210039+126044078+126623730
4187+126796330+126732865+126617721+126434644+126231077+126329663+126959073
4177+127807197+128327121+128469078+128744750+129538057+130598600+131260509
4167+131103470+130398235+129828432+129746294+129906176+129972973+129920916
4157+129799699+129564159+129336761+129413535+129808975+130162982+130212805
4147+130067978+129985609+130045170+130048059+129719205+129028184+128214405
4137+127533823+127179060+127284171+127697314+127968537+127906899+127895915
4127+128341695+129058264+129443265+129128034+128340117+127656518+127418338
4117+127440047+127397617+127387547+127797367+128605885+129211094+129162886
4107+128718463+128431318+128545549+128973506+129494012+129909425+130304865
4097+130950308+131711199+132019573+131690109+131220700+131112294+131405456
4087+131907807+132435106+132854138+133163111+133449166+133680230+133735997
4077+133657247+133598932+133560341+133459070+133383421+133441745+133491883
4067+133336016+133010226+132638618+132243196+131868247+131649358+131638421
4057+131692287+131574900+131185552+130706073+130429949+130477345+130808240
4047+131338059+131802317+131789958+131242926+130650823+130503439+130770831
4037+131069744+131185949+131291198+131709030+132554828+133582392+134346883
4027+134546352+134240858+133763235+133424790+133306720+133349963+133560628
4017+133936943+134229819+134114804+133654007+133234413+133030965+132894703
4007+132741523+132675510+132773071+133088764+133744064+134671944+135432337
3997+135658038+135517290+135374964+135248190+135058191+135042481+135389916
3987+135863663+136179762+136340484+136400220+136352353+136314935+136516453
3977+137096345+137944856+138606581+138559102+137844619+137133108+136930057
3967+137126213+137502639+138149180+139073580+139870238+140172400+140083884
3957+139849203+139505460+139162493+139270908+140260315+141893255+143135628
3947+143171634+142593736+142672043+143461566+143719257+142895131+141891898
3937+141698964+142649725+144707372+147181208+148430615+147437663+145538458
3927+144949115+146074941+147352544+147615599+147624063+148560194+150076162
3917+150548146+149008143+146353271+144259857+143456535+143695213+145144005
3907+148831962+155111270+162166866+167117676+168748557+167332236+162903934
3897+156577821+151641640+151026499+154368331+157626475+157437981+156115214
3887+157517081+160931950+162828249+162976704+163369697+162777945+159440959
3878+156191122+156631318+160424874+165256212+169907768+172934628+172398772
3868+170080886+169706869+170987989+170255498+166425779+162617362+161946288
3858+165875156+175172084+188103167+195220345+187941052+174175099+163676834
3848+159165555+160020490+164443660+170324649+176253966+181735205+185713269
3838+186076154+182663039+178298904+174934560+172212364+169751099+168384029
3828+168556998+169839393+172983233+179519900+187375402+190481750+187858241
3818+184457420+181367594+176222566+170066302+166567625+167625454+172576375
3808+178278044+181519464+183796258+188455642+193641651+194095747+190397758
3798+186939249+184300787+181285908+178799409+178407172+180041431+182818324
3788+186456152+190832102+195196366+199245463+203994377+209898404+215306560
3778+218907672+222344453+228263617+238039286+251409568+265983458+278189305
3768+286857746+293409348+298960882+304910967+313512288+325015753+336374602
3758+345132814+353466669+365785251+384795712+409146821+431787247+446656625
3748+457409250+469920480+483701423+492569840+495937452+500281447+509296917
3738+522451809+536522978+546573424+549121155+546260048+543644457+544507312
3728+547705092+549938709+549359325+547001584+544159010+541015428+538161668
3718+536853744+537733360+540814400+545687420+550174775+550887218+547746627
3708+544017718+542445115+544557191+550001215+555459083+557598997+557429683
3698+558148144+561092912+566042873+573036129+581992417+590473212+593521984
3688+589583738+583543126+579810968+579174985+581021349+585209875+592475821
3678+602044204+607690437+602985070+594063709+590081086+590062257+587330923
3668+580458506+573863910+569687458+566496766+563023306+560649356+561341124
3658+564065997+565670536+566231423+569956087+579761421+593226883+601766381
3648+598701328+588440329+578749520+573115692+571414940+571839260+572657737
3638+573641394+575567985+578755428+583210182+589780078+599267643+608865081
3628+612458051+609717192+606532703+607453818+613575358+622309388+628478186
3618+629690561+629271077+630460489+632621927+634376287+636742409+640742533
3608+644128826+643990967+641396089+639907478+640974463+642586829+642708960
3598+642962895+646207121+651592404+655156947+655866695+657156971+661404384
3588+666159298+667393308+665109591+662274365+660825185+661035111+662212044
3578+663217816+663136740+661960841+661122981+662762889+667740725+674291939
3568+678409394+677346913+673415017+670891469+670635614+670228240+668111696
3558+665685025+664686563+664622027+663767405+661648351+659976249+660866830
3548+663959020+666033401+664876996+662275546+661120987+661880651+663171813
3538+663999262+664231193+663811635+663004936+662511243+662270451+661231747
3528+659095045+657175505+656628500+657374873+658839854+660195331+660277884
3518+658541763+655918087+653804276+652690771+652394452+652968188+654744847
3508+657655833+660688360+662038963+660534182+657144788+654180046+652709158
3498+651495822+649338519+647497176+647862387+649891283+651419472+651423976
3488+650644449+649993994+649272137+647863421+646026065+644739112+644253246
3478+643591789+642066037+640394821+639524102+639243437+639023764+639294165
3468+640785655+643271250+645571655+646321055+644787920+641820815+639594176
3458+639583839+641224042+642779330+642911355+641493557+639762826+639155272
3448+639417994+638919871+637311714+636268432+636885216+637720418+636525690
3438+633306865+630275889+629064178+629302238+630074676+631345163+633356190
3428+635384939+635866817+634242563+631989342+630726903+629974475+628513407
3418+627173067+627799303+630149033+631924806+631659721+629985921+628178027
3408+626892845+626183688+625640670+624706080+623610371+623596046+625323380
3398+627595357+628766456+628808914+628633914+628197742+626817824+624781544
3388+623345803+623173018+623374527+622543755+620722201+619399288+619328992
3378+619492990+618754962+617469964+616654773+616603898+617057126+617848320
3368+618717783+619044450+618600747+618248199+619047146+620846178+622102489
3358+621475441+619325005+617301573+616713956+617410154+618482123+619479182
3348+620331220+620724121+620319110+619395928+618697736+618667129+619175184
3338+619892464+620543878+620924522+621042371+621075303+620935229+620439321
3328+619891282+619698191+619612094+619096655+618295013+617957049+618525098
3318+619863297+621615220+623138313+623430202+622119989+620391621+619985133
3308+621428848+623608008+624843348+624528495+623638873+623300539+623340487
3298+623099621+622916499+623322322+623778947+623677787+623403989+623301942
3288+622892353+621960421+621241738+621391633+622085062+622466371+622146940
3278+621496264+620969269+620664902+620684986+621273637+622284504+622991446
3268+622806699+622047552+621666612+622139852+622894125+623006362+622417194
3258+622014398+622288934+622456772+621416960+619405712+618001980+618459307
3248+620644227+623392396+625377653+625884268+625089678+623584896+621732847
3238+619746925+618211205+617870102+618628954+619169757+618268025+616479736
3228+615525873+616090489+617428725+618801038+619839520+619964014+618935574
3218+617467639+616210811+614969564+613537663+612188499+610873339+609007259
3208+606591849+604758739+604514329+605370096+605814833+605127569+604076312
3198+603515978+603171184+602404247+601539213+601551028+602398376+602545908
3188+600780620+598099276+596891589+598143173+600261010+600995051+599831077
3178+597977846+596744722+596482959+596517775+595892832+594545145+593335649
3168+592495869+591002422+588135371+584803313+582641875+582297633+582984417
3158+583413796+583026432+582425709+582573019+583554350+584347315+583871049
3148+582022174+579604548+577566976+576409759+575893250+575221824+573800482
3138+571755083+569704367+568345124+568155319+568960173+569779905+569674019
3128+568800383+568042012+567628287+566935781+565808764+565132687+565526659
3118+566256639+566207905+565336632+564266177+563133474+561703087+560091275
3108+558725276+557961071+558064853+558953736+559734407+559402202+558095090
3098+556639560+555238819+553800235+552948456+553275308+554011232+553835494
3088+552842016+552410423+553043857+553626195+553285276+552671778+552459637
3078+551947078+550415161+548614060+547570962+547146051+546796937+546570618
3068+546534695+546229404+545283295+543962707+542885606+542465199+542526412
3058+542479192+541961169+541114337+540177199+539104270+537747131+536228284
3048+534876536+533912852+533453938+533570494+534009398+534166160+533680368
3038+532791817+531914526+531204926+530623400+530048151+529227016+527868216
3028+526069257+524566322+524050846+524180878+523954448+523035401+521862419
3018+520790524+520087348+520149299+520782106+520970656+520019341+518229354
3008+516226597+514509785+513663839+514090449+515327044+516179081+515848205
2998+514600165+513134888+511716868+510218585+508713139+507560242+506910082
2988+506488642+506027771+505605407+505291108+504764741+503768162+502709115
2978+502279035+502567343+502905049+502568487+501504013+500311684+499490807
2968+498927631+498222941+497206389+496120870+495502572+495537720+495488321
2958+494539665+493130691+492363052+492298258+492000609+491045455+489897320
2948+489015230+488409226+487826778+486906919+485468077+483984192+483281053
2938+483382139+483236453+482097918+480611338+479898968+480122482+480522287
2928+480439033+479861273+479179104+478653734+478114039+477169665+475691392
2918+473994148+472627484+471968944+471841238+471609012+470790202+469454514
2908+468014380+466874884+466330685+466536698+467316003+468012275+467863746
2898+466726281+465175646+463814187+462829386+462181996+461727844+461158982
2888+460275452+459331337+458758377+458560855+458336788+457905416+457480062
2878+457109756+456495888+455575180+454670052+453929328+453226816+452646731
2868+452419009+452370791+452037220+451254887+450194068+448975933+447701790
2858+446706024+446303191+446251909+445853543+444783937+443482068+442506275
2848+441938557+441586637+441295376+440888334+440261323+439659197+439397989
2838+439259760+438640060+437336566+435786373+434544868+433817066+433401348
2828+432911753+432194658+431523713+431194757+431085658+430838886+430258173
2818+429390223+428531134+428162378+428436323+428736371+428226581+426855081
2808+425402431+424573985+424333784+424059876+423183250+421660673+419844915
2798+418070508+416591940+415687550+415388130+415250271+414833261+414262332
2788+413888702+413578981+412861701+411708508+410658876+410093891+409769180
2778+409216674+408349056+407447029+406705087+405983451+405007473+403776527
2768+402664943+401960511+401444075+400732998+399874168+399151867+398500784
2758+397661078+396774558+396260596+396137615+395920785+395246997+394310524
2748+393568249+393154709+392751581+392032714+391010697+389811576+388408140
2738+386864002+385571842+384919615+384863719+384995892+384882954+384316455
2728+383428236+382551869+381869736+381316012+380808474+380278600+379535402
2718+378494815+377478705+376879791+376600935+376175507+375363601+374337671
2708+373361029+372574340+372096818+372049118+372302277+372361829+371772883
2698+370614780+369368179+368356094+367533851+366755617+366016443+365430081
2688+365096510+364970946+364806984+364308529+363413111+362366358+361428629
2678+360604097+359826638+359254749+359040170+358939527+358579631+358020480
2668+357619308+357424039+357122145+356579496+356051135+355763825+355554895
2658+355078111+354216659+353125344+352034693+351199787+350800461+350693874
2648+350502518+350052169+349467505+348857367+348211417+347580788+347107475
2638+346847411+346664768+346347368+345841750+345304971+344870572+344496536
2628+344109801+343730596+343368523+342947562+342422857+341878399+341418008
2618+340968102+340300147+339363822+338503219+338141810+338284321+338502665
2608+338415608+338030866+337561946+337074493+336493041+335859828+335337781
2598+334959019+334583396+334114551+333617867+333254169+333119412+333046052
2588+332658208+331818797+330874017+330251179+330003077+329905793+329789015
2578+329614938+329390317+329106883+328701503+328085753+327280899+326482100
2568+325912980+325623491+325475258+325318939+325129170+324967203+324881733
2558+324834624+324679597+324305266+323841626+323576578+323601240+323666552
2548+323452490+322918813+322345152+322012393+321904882+321814133+321641754
2538+321421490+321137354+320752833+320380829+320217753+320270918+320263497
2528+319928154+319394034+319103216+319254255+319496560+319317277+318636991
2518+317899147+317591789+317751726+317987607+317971288+317778271+317680470
2508+317737105+317735998+317505064+317142732+316875949+316780474+316725390
2498+316528090+316097197+315493668+314902433+314464267+314113565+313677578
2488+313161512+312805604+312771416+312889597+312869660+312669222+312468156
2478+312369063+312323135+312248667+312039811+311598360+311015174+310563976
2468+310407952+310454250+310529603+310560948+310575310+310597056+310528237
2458+310180230+309525068+308815892+308341028+308176587+308229586+308338776
2448+308306878+308026416+307615811+307318532+307260568+307335681+307315431
2438+307094244+306803887+306626616+306577070+306541553+306406887+306107061
2428+305700314+305387104+305294639+305328143+305366152+305446232+305622321
2418+305813695+305928073+305991317+306047509+306045146+305915927+305691343
2408+305467424+305300398+305191761+305145039+305195749+305384520+305706905
2398+306095302+306453037+306694770+306756039+306619380+306366811+306142910
2388+305992277+305753627+305180833+304157229+302727044+300971558+298983145
2378+296924898+294959781+293100366+291227733+289298761+287533417+286359808
2368+286031054+286241479+286294478+285794158+285117416+285133218+286458384
2358+288982302+292173270+295884938+300652294+306789876+313323110+318498911
2348+321211822+321730989+321396421+321264174+320982881+319717784+317445254
2338+314645286+311502885+307899910+303985902+300446761+297965374+296499931
2328+295420357+294242409+292904081+291572731+290540063+290139039+290474715
2318+291238384+291919372+292256414+292422313+292735006+293313652+294072208
2308+294864158+295521480+295902530+296021856+296084121+296330580+296813658
2298+297306705+297512958+297419624+297320328+297411484+297541275+297485434
2288+297300465+297226663+297357544+297560769+297653124+297547072+297287654
2278+297030046+296931340+296988677+297014170+296845594+296559317+296366872
2268+296321202+296291408+296235843+296290762+296513832+296731271+296757817
2258+296638805+296570301+296666089+296877973+297071045+297131501+297072633
2248+297040365+297137667+297300927+297436644+297558923+297681645+297727241
2238+297680943+297715371+298025498+298604439+299301265+300052456+300892679
2228+301749701+302439161+302907656+303310859+303831374+304541768+305407447
2218+306345711+307340481+308498270+309929802+311621398+313449893+315241099
2208+316847188+318289575+319786972+321538083+323519500+325571360+327605314
2198+329608108+331514947+333283484+335056082+337012356+339080387+341013403
2188+342700753+344206641+345582535+346840581+348044723+349229372+350270070
2178+351044280+351655452+352220068+352545000+352364314+351760563+351032171
2168+350325450+349593734+348711090+347569343+346205780+344741242+343163359
2158+341351441+339277983+337043886+334737463+332268297+329445586+326348044
2148+323315739+320517174+318199269+317318286+318852160+322455136+326793962
2138+331125516+335612280+340375168+345193289+349915085+354558759+359176035
2128+363825100+368534934+373316615+378265247+383507319+389038916+394735361
2118+400475519+406192417+411890671+417691230+423845113+430666322+438417027
2108+447365450+458174968+472068664+490062130+511926684+536282334+561492422
2098+585791437+607119176+624134264+636993022+646501372+653441574+658498567
2088+661574289+661610028+657532299+648799710+635510688+618411791+598213395
2078+575479784+551470036+527714002+504921281+483413780+463789377+446430048
2068+431290342+418286933+407150009+397358372+388755187+381553813+375680005
2058+370807465+366749082+363337683+360383242+357870954+355801261+354089433
2048+352847448+352342679+352719225+354097187+356691216+360776734+366957162
2038+376280655+389683796+407510716+429560793+455121693+482989828+511821721
2028+540231582+566493148+588915673+606803068+620680482+631611873+640383450
2018+647226553+652190581+655345755+656441611+654864541+650178889+642545553
2008+632551853+620628794+606865093+591533441+575263728+558397205+540765702
1998+522477505+504469013+487819062+472630659+458035005+443469515+429414405
1988+416586291+405190485+395197487+386603753+379222395+372692779+366758755
1978+361327690+356404200+352078628+348432899+345498099+343332194+341835129
1968+340434314+338404384+335670983+332881537+330617867+328950195+327726707
1958+326873673+326286388+325706893+324919170+323985170+323170644+322674551
1948+322584356+323089457+324320957+325653470+325718264+323909780+321317339
1938+319401934+318591506+318490678+318645372+318791722+318795082+318639465
1928+318545061+319036612+320414758+322062567+323077163+323600354+324201632
1918+324256126+322743481+320369236+318948410+319232878+320468846+321419718
1908+321419275+320720639+319994019+319588232+319437230+319480943+319864208
1898+320719606+321790430+322483601+322760464+323489041+325003938+326054863
1888+325443026+323855951+322648006+322133675+321949850+321872946+321811068
1878+321727334+321736343+322093653+323388471+326515919+331528755+336229064
1868+337242847+333996148+329493767+326481066+325394034+325366492+325580258
1858+325626518+325445426+325280136+325430326+326074726+327338014+329369974
1848+332466926+336744133+340783761+341515698+338093149+333713527+331308084
1838+330988801+331382109+331850992+333379697+337108422+341989048+344939944
1828+344759591+343384878+342019433+339963696+337292837+335442633+335120839
1818+335624316+336105050+336721649+338242158+340657606+342681111+343094577
1808+342209866+341411030+341978009+344472095+348201337+351227292+352017673
1798+351302572+351441686+354217398+359076795+362423583+360756650+355819832
1788+352179456+351773817+353447692+355509040+357409160+358906631+359540103
1778+359906606+361937164+367119314+374501485+379978404+379874364+375592763
1768+370638445+367044367+366163348+368519575+372226961+374299681+374565246
1758+374801570+375234862+375826097+378426956+384506334+391971796+396205400
1748+395518986+392654186+390699868+390876862+392795479+394905303+395768306
1738+396657078+400937091+409181452+415451817+413665226+407328738+401736703
1728+398187445+396854895+397718858+400036910+403860261+411051556+422839267
1718+435924934+442351285+438933905+431379762+425455189+423439031+425817484
1708+432053846+440031682+446926251+452894094+461087358+471920505+480019549
1698+481773650+479474500+474506633+468701459+466252857+469016939+475415010
1688+484033591+496005385+510627215+519304867+515996291+508595993+505064051
1678+507297483+513863650+521226917+526845313+532386104+539501750+544861190
1668+544642513+542384751+543847628+549490428+554847579+556389464+556317655
1658+559300045+568505467+584613323+601502958+604907822+597523215+594665541
1648+598469545+600718705+594795129+585777038+580711776+581348829+587410116
1638+598027208+608865856+611208165+603470752+595060916+592152403+594280577
1628+598309904+602120406+605782196+608733831+609243768+608657480+611069162
1618+617534907+623130634+622501224+618371290+616005500+616595849+618599160
1608+620439838+621792288+623110254+624562904+625684162+625996283+625784362
1598+625900512+626781273+628012847+628993809+629623146+630004602+629982745
1588+629526932+629230835+629839053+631373739+633356633+636144307+641209052
1578+648930258+655569268+655789901+652128851+651696297+656063626+660660817
1568+661234036+659735088+659872061+663349472+672199762+689199750+710664536
1558+719186017+710530295+700835499+697081632+698159102+701806271+706565320
1548+712932525+723230149+738760726+757573555+775547490+786441961+782712165
1538+769409114+760150121+758935382+761202190+761024531+758667639+758816648
1528+763083185+769176888+775161456+781728988+788458895+792023142+791783753
1518+790698678+789171375+786141507+783786682+785996042+794579549+808694543
1508+823722566+827862837+814991601+798871635+790427464+790180913+795157272
1498+800701976+801775237+798203976+795713433+798813080+806517008+812903633
1488+812392440+806111258+799323830+795650300+795517315+797388711+800154232
1478+804297162+810577458+818348136+824626144+824888644+818678348+811956342
1468+809807235+812296301+815667973+816568154+816876140+821172139+831008708
1458+841664972+843086240+833642056+823026404+816899547+815352530+816616298
1448+818116796+817995108+816643840+815357403+814801537+815999219+820576843
1438+828023586+833387235+832195535+827578037+824628506+823944824+823402027
1428+822239346+821805389+822723070+824036385+825555860+828389906+831503508
1418+830784899+825361514+819378497+815722910+814056272+813159266+812834962
1408+813521820+814805746+815293458+814569533+814211853+815614735+818339645
1398+821281053+823778463+824762230+823154886+820209933+818563306+818874097
1388+819232811+817696500+815171253+814509058+817131183+821958681+827204112
1378+832501896+838584966+844972182+849383741+850666633+850589766+851115653
1368+852402533+854314615+857437447+861393857+863947385+863435085+860882517
1358+858142986+855809427+853665194+851675654+849925503+848279540+846652111
1348+845165347+843969955+843539026+844819998+848180152+852355940+855213023
1338+855821906+855220112+854848698+855028793+855221220+855260355+855714100
1328+856999282+858780150+860440659+861807065+863370179+865859467+869335770
1318+872773973+874895464+875296635+874735601+874702742+876372555+879402793
1308+882102228+883194466+883114645+883265869+884383582+886045494+887581362
1298+888771438+889321028+888470984+885872635+882241416+878546989+875162099
1288+872192337+869902121+868265093+866635892+864423504+861748879+859123431
1278+856976391+855692391+855465408+855852107+856000082+855517243+854802253
1268+854579183+855208002+856217540+856775030+856869988+857345295+858529759
1258+859755574+860430469+860679974+860774120+860638771+860252220+860144340
1248+861092222+863268576+865903254+867925061+868836539+869002531+869311477
1238+870486047+872421018+874288870+875624263+877022788+879197223+881654537
1228+883222377+883854889+884720661+886430052+888470319+890432095+892622922
1218+895286249+898115938+900621470+902483931+903677477+904484989+905359031
1208+906617704+908226673+909960358+911801553+914077296+917039896+920282128
1198+922825908+924131618+924883528+926341052+929002829+932275409+935415815
1188+938281021+941099412+944125367+947583136+951444662+955177043+957944706
1178+959322630+959901977+960793371+962494049+964469855+965868011+966550512
1168+967021536+967552740+968254661+969800349+972786505+976221163+978229236
1158+978578129+978807549+979776401+980710548+980884367+981173081+983150732
1148+986902384+990635207+992718819+993328440+993694686+994570647+995648782
1138+996009268+995380079+994812177+995509889+997667931+1000931576+1004877427
1128+1008453341+1010340021+1010318534+1009579398+1009711645+1011519169
1120+1014378024+1016673851+1017594264+1018411449+1020788426+1024313760
1111+1026812720+1027147879+1026579903+1026676781+1027530959+1028984127
1103+1031524954+1034415930+1035004580+1032093225+1028521151+1028175212
1094+1031599384+1035909044+1038396411+1038923332+1038609218+1037967550
1085+1037122749+1036555068+1036846293+1038385926+1041473537+1045802764
1077+1049868310+1051829495+1051898830+1052537618+1055187876+1058622387
1068+1060881810+1061494459+1061203826+1060819047+1061243035+1063092943
1060+1065473981+1066346251+1065107810+1063810592+1064860225+1068449060
1051+1072368550+1073741823+1071409372+1067221105+1064559918+1065114160
1043+1067304470+1068491444+1068095294+1067136041+1065894277+1064100930
1034+1062693544+1063331298+1065720015+1067271537+1066491715+1064784244
1025+1064299042+1065455300+1066963108+1067571401+1066128054+1061631284
1017+1055507233+1051301171+1051762227+1057181108+1065108622+1071003179
1008+1071214508+1066549532+1061023361+1057395981+1055803405+1055474301
1000+1055959797+1056862341+1057477722+1057127205+1055608911+1053403833
991+1051001012+1047849677+1043160186+1037702908+1033500685+1031891052
983+1032502888+1033693112+1033819821+1032497941+1030478349+1028400940
974+1026225324+1023507798+1019904416+1015862869+1012758939+1011549960
965+1011157945+1009194618+1004385359+997472403+990139226+983984088+980124851
955+978914248+979836802+981839485+983756366+984323382+982476058+978482802
945+974035948+970487059+967787698+965485373+963805001+963359895+964294190
935+965915712+967083783+967246452+966969184+966916241+966781779+965717304
925+963355834+960076608+956752784+954589499+954539879+956257614+957903134
915+957908820+956687362+955497433+954499784+953302250+952335983+952194136
905+952669591+953487588+954439752+954782000+954035110+952820224+952138830
895+952153967+952037744+950880600+948777643+946898642+945955929+945327478
885+944418437+943681294+943728847+944277477+944514871+944249491+944077149
875+944299481+944186654+942908561+940873831+939304145+938893669+939322457
865+939483871+938454175+936730680+935832050+936318654+937173498+937402549
855+937070934+936693539+936510490+936317620+935738052+935079106+935650921
845+938237677+941457978+942908413+941978696+940219020+939109429+938892562
835+939649494+941847187+945356571+948863002+950483785+949178445+946099621
825+943749522+943291420+944026347+945508017+947810785+949805714+950444798
815+950781507+951954379+952867334+952095856+950726718+950842647+952689675
805+954426461+953673000+949851717+945445622+943858510+945989674+949720946
795+952604981+954121281+954832580+954754679+953559139+951635686+950187835
785+950273046+951928756+954097505+955277169+954434731+951708640+948522379
776+946778061+947305130+949077285+950122635+949223783+947041152+945918640
766+948032599+953061237+958232681+960773508+959845121+956534439+952831743
756+950420504+949785704+950337952+951567236+953720774+956994166+960367685
746+961959892+960965270+958862534+958143556+959702905+961973257+963017057
736+962866719+962608280+961954428+959503685+955543066+952775108+952804718
726+953603664+952259115+949118709+947218442+948122684+950128247+950638775
716+949215808+947429624+946631046+947278400+949566990+952524717+953456871
706+951022890+947343083+944891897+943739701+943385196+944024871+944862583
696+944001020+940914295+936972210+933275938+929947609+927384261+926269944
686+925786367+923640952+919492632+915700368+913334394+910802944+907322431
676+904667817+904183945+904063733+901010753+894690436+890832085+895795375
666+904814684+909503437+907666156+900893791+892393871+886087657+884048349
656+884274890+882991923+879501886+876318947+874832183+873530904+870882640
646+868397931+868649946+870996058+872433054+872474700+873232296+875101181
636+876433399+876494981+875515275+873364765+870672271+868367435+865409856
626+860313433+854182441+849535629+847789909+849164806+853033937+857008733
616+857794463+855295133+852148524+849942708+848871883+848955322+850778427
606+853871133+856182097+855094732+849075017+841022787
##END=
