##TITLE=<SNM>
##JCAMP-DX=4.24
##DATA TYPE=INFRARED SPECTRUM
##DATE=3/5/2025
##SAMPLING PROCEDURE=Instrument type and / or accessory
##ORIGIN=Admin
##XUNITS=1/CM
##YUNITS=ABSORBANCE
##RESOLUTION=4
##FIRSTX=4497.3318
##LASTX=599.83466
##DELTAX=-1.4281778
##MAXY=1.7047385
##MINY=0.18101244
##XFACTOR=1
##YFACTOR=1.5876614e-09
##NPOINTS=2730
##FIRSTY=0.1980986
##XYDATA=(X++(Y..Y))
4497+124773830+125469754+125850472+125602729+125018916+124818440+125481157
4487+126617773+127338512+127510775+127935934+128855329+129285640+128542000
4477+127465696+127257965+127829379+128184896+127944578+127554625+127280528
4467+126921519+126509576+126541580+127329971+128538790+129446284+129482484
4457+128613452+127385787+126500518+126182506+126029558+125512881+124540757
4447+123506323+122852006+122667841+122725854+122820404+122946312+123122377
4437+123253625+123277709+123244549+123130664+122715098+121810795+120696414
4427+120158844+120726655+121873716+122443291+121946811+120939802+120105572
4417+119618140+119412173+119501871+119875784+120328489+120540669+120305936
4407+119671976+118890558+118301039+118219750+118707511+119339650+119405284
4397+118622243+117603895+117307498+117923757+118665792+118866822+118736700
4387+118698229+118715414+118628681+118412352+117892315+116934580+115925318
4377+115384453+115263313+115177679+115033066+115028148+115325596+115875959
4367+116393387+116674186+116993484+117697676+118378893+118165971+116999584
4357+115904941+115802347+116653828+117829225+118717047+118906045+118314282
4347+117346580+116591921+116229749+115932347+115376250+114644661+114096918
4337+114011987+114399922+115022094+115562442+115855836+115950584+115970162
4327+116009150+116163130+116535372+117110166+117633422+117728264+117252048
4317+116521247+116087079+116286992+117018694+117910110+118647002+119071043
4307+119058823+118606972+118058281+117886346+118166900+118550105+118748029
4297+118733528+118579454+118490610+118861031+119894912+121194865+121997127
4287+121826929+120858053+119725943+119073662+119132829+119628135+120165574
4277+120619621+120962787+120990446+120610095+120144700+119954285+120004170
4267+120098439+120293837+120809661+121617489+122312146+122499999+122252388
4257+122014190+122120370+122584319+123165222+123442820+123168028+122653566
4247+122421986+122579673+122994010+123681468+124504182+124985269+124875626
4237+124433527+123949286+123474797+123060554+122854221+122947927+123326636
4227+123917093+124602355+125186046+125384054+125030611+124365547+123918858
4217+124056958+124826962+126037620+127138927+127325269+126293885+124773652
4207+123936766+124358226+125666805+127002479+127679247+127589840+127174330
4197+126995093+127238443+127627851+127838483+127894872+128061466+128368329
4187+128439396+127959886+127175184+126654611+126682487+127154573+127884979
4177+128708003+129434148+129945119+130264859+130516393+130882554+131456615
4167+132071409+132488505+132728373+132961268+133166240+133157455+132893569
4157+132562802+132345638+132259131+132296551+132488872+132676255+132527831
4147+132002209+131439082+131088239+130966076+131146693+131708534+132460030
4137+133136290+133734529+134336165+134792014+134887034+134711749+134631323
4127+134844780+135090918+134906556+134224579+133598212+133566705+133900147
4117+133960703+133769706+134023577+134971035+135987825+136406329+136181130
4107+135679451+135298321+135292839+135642960+136034846+136095815+135718758
4097+135166481+134807172+134772267+134978272+135368516+135914044+136490095
4087+136898773+136910580+136384479+135568438+135074352+135278188+135963009
4077+136758824+137546548+138183737+138311334+137765721+136890485+136263949
4067+136283509+136929754+137744331+138217412+138296758+138277677+138270516
4057+138141267+137868484+137615354+137522934+137622478+137875063+138210110
4047+138555228+138811962+138870491+138775424+138797931+139193581+139890321
4037+140471384+140539570+140170763+139949469+140401179+141354456+142011524
4027+141797682+141087061+140847718+141515485+142502062+142931482+142592305
4017+141999003+141658024+141515485+141192132+140600408+140105073+140088611
4007+140545023+141150855+141697491+142374944+143475960+144828735+145771650
3997+145767783+144883415+143659523+142628233+142039174+142015109+142694007
3987+143951031+145167086+145641697+145208889+144304849+143596536+143604420
3977+144435140+145755929+147024703+147729647+147619094+146948492+146362624
3967+146346058+146844725+147415276+147633604+147447863+147194967+147125411
3957+147006110+146519082+145990231+146252512+147619957+149308390+150187192
3947+150054949+149741563+149885717+150127143+149743253+148784072+148022956
3937+147973991+148586149+149682199+150955037+151605009+151069617+150148232
3927+150158425+151166326+151993883+151951591+151720903+152230297+153425347
3917+154287546+153828722+152148304+150406956+149733557+150347226+151829579
3907+154014988+156982350+160099947+162022232+162152241+160961602+158854778
3897+156241375+154294332+154288607+156092876+157662112+157298532+156416896
3887+157334057+159613717+160971645+161191906+161549648+161320639+159373089
3878+157363471+157471716+159562790+162358086+165067034+166609014+165848217
3868+163975807+163153704+163381999+163072856+161707701+160349529+160188566
3858+162142142+166913821+173586478+177346351+174312830+168382292+163960959
3848+162088438+162346636+163961260+166231487+168854782+171648595+173806420
3838+174259764+173291451+172249424+171560839+170641257+169339736+168367632
3828+168190788+168765225+170597051+174365070+178611117+180052502+178634713
3818+177284575+176378939+174165532+170946139+168848438+169281302+172351464
3808+176523703+179485874+181259040+183599378+185998113+186185487+184679511
3798+183683548+183187631+182059388+180540084+179780732+180251664+181653048
3788+183615559+185897312+188193256+190491508+193362283+197020697+200504558
3778+202853306+204602069+207080225+211180157+216881123+223059741+228385583
3768+232918285+237345531+241583337+245986650+252075936+260543102+269772923
3758+277795850+285233546+294566985+307752951+324327158+339724991+349433873
3748+355897888+363877041+373721563+381627207+386946967+393503900+403773365
3738+417609922+433182291+447569370+458049260+464190148+467979079+471490008
3728+475276085+478678404+481040798+482653507+484213733+485984083+487959940
3718+490515640+494978382+503424261+516724676+531666069+542159662+546440360
3708+548180451+551105794+556820200+564425242+571286869+576247011+580552412
3698+584745938+588288552+591700520+596658071+604221703+612995291+618814215
3688+618659615+614689655+610867424+609194196+609695350+611221787+613309671
3678+617099840+622509815+626376459+627447544+627809152+627512379+625008488
3668+621641421+620240376+621481153+623922499+625861114+627315920+629883558
3658+634272492+639312336+644391674+650718322+658543663+665320144+667405926
3648+664303495+659552428+656716474+657397643+660987749+664729902+665920522
3638+664900495+664367468+666443939+671520499+678687496+685767395+688852631
3628+685999783+681148552+679252960+682174286+688690372+695360083+699215689
3618+701058571+703905037+708309663+711991748+713005694+711998280+710792268
3608+709770363+708761373+709109692+711920793+715528694+717614551+719238786
3598+722791274+726946619+727813023+724792135+721621528+721407235+723795083
3588+726300439+727402158+727242378+725626627+722403836+719421993+719585978
3578+723370403+727717365+729279805+727906578+725913226+725095703+725674607
3568+727479871+729643591+730322207+729405647+729308412+731790792+735470174
3558+737288278+735787332+732370747+729678956+728945527+729377340+730320105
3548+732271410+734939099+736488774+736041869+734714595+733232796+731178325
3538+729115744+728905807+730930620+733089459+733507982+732866532+732979535
3528+733249840+731234563+727337736+725228378+726820476+729980572+731710376
3518+731482418+730647550+730466746+731525066+733848867+736732425+738505703
3508+737138483+731798225+724439837+719245318+719371761+723884359+728955739
3498+732174400+733422160+732545995+729699529+726722040+725866223+727437523
3488+729882586+731963262+733698922+735827427+738447437+739910465+738407042
3478+734923406+732248659+731525517+731893658+732736861+734354864+736697210
3468+738942922+740597341+741579751+740802248+737124893+732342290+729685939
3458+729395886+729416384+729568806+730849753+731960033+731195819+730132393
3448+731435040+734378140+735523484+733270188+729794511+728606369+731016292
3438+735025521+737740138+738432345+738275718+737828062+736353096+733255321
3428+729545605+727379483+727782163+728986824+727919268+724490294+722333257
3418+724289817+728868640+731594670+729897828+725971267+723834503+724796865
3408+727282924+729787153+731932251+733444986+734324079+735441942+737062347
3398+737596951+735813386+733182189+732223205+733412023+735165780+736085118
3388+735659312+733810123+731235614+729484937+729651400+731234038+732704199
3378+733185868+732991623+732317812+730828805+729041786+728348453+729078352
3368+730156645+731117206+732736260+735251226+737788268+739708862+740857210
3358+740762152+738970178+735900935+732856921+731456289+732688206+736040743
3348+739950335+743034445+744285658+743214047+740907667+739506509+739578515
3338+739262333+737398803+735874505+736657940+738539867+738873168+737547395
3328+736736479+737029085+736759680+735652855+736117480+739543150+743637226
3318+744904658+742634393+739158115+737097787+737201480+738598508+740741204
3308+743712836+746147311+745178642+740134368+734257028+731211362+731653537
3298+733984395+736883946+739769981+741593567+741200347+739223139+737698166
3288+737522242+738278647+739587525+740535246+739479929+736247302+733153056
3278+732711407+735012832+738057597+740025946+740435834+739507935+737555730
3268+735416413+734368979+734777216+735897481+737272585+738602337+738722098
3258+737033890+735007726+734315219+734956368+736243773+737808315+739239357
3248+740244367+741027953+741712126+742075761+742160607+742248532+742155502
3238+741451957+740234156+738832022+737094709+734547756+731669905+730229928
3228+731564111+735056531+738386919+739064635+736373519+732429388+730315675
3218+730706867+731675612+731718034+731230959+731122612+731668779+732829816
3208+734442788+735663367+735254305+733192701+731114728+730646048+732052537
3198+734409150+736272080+736624378+735706991+734300802+732413996+729625871
3188+726224077+723277523+722002057+723093265+725889800+728107355+727480547
3178+724285688+721292356+720716830+721994924+723131183+723453447+723756039
3168+724382922+724571385+723353434+720475433+716794774+713724105+712178859
3158+712207016+713040082+713391104+712610222+711407288+710540809+709577996
3148+707971331+706312557+705627182+706144742+707276946+708504884+709695729
3138+710655538+711163412+711517737+711998881+711883025+710475560+708812131
3128+708510815+709428352+710056061+709569211+708254851+706603661+704843672
3118+702808798+700132775+697235777+695699691+696327326+697403892+696526075
3108+693691097+691106377+690402457+691482101+693437085+695117559+695531877
3098+694928270+694617944+695058617+695095559+693589958+691195353+689844201
3088+690545268+692081579+692196834+690159332+687349508+685174525+683718030
3078+682644317+682175938+682592583+683261514+682820090+680647210+677981173
3068+676822389+677596664+678729168+678769414+677815536+676544425+675450815
3058+675329102+676562521+677561074+676213601+672950490+670011369+668538881
3048+668285019+668809937+669451387+669355578+668605180+668172617+668409735
3038+668719835+668611713+668143033+667505488+666826571+666176937+665311810
3028+663690953+661104281+658166737+655993932+655324476+655948206+656908616
3018+657211959+656407650+654682200+652685019+651228298+650705558+650626343
3008+650175684+649134333+647801577+646507640+645532363+644947002+644270262
2998+642725167+640265613+637957655+636902939+637206281+638190944+639016802
2988+638958536+637762735+636018740+634755663+634361993+634052268+632600578
2978+629791880+626987912+625742255+626047662+626597771+626591502+626366285
2968+626247350+625790910+624485597+622596951+620905027+619935719+619645629
2958+619601104+619367628+618726065+617632605+616260355+615140202+614883299
2948+615420268+615797006+615153154+613588536+611721890+610041454+609039484
2938+609125907+609932168+610289346+609401430+607726776+606244939+605181625
2928+603897487+601979670+600042782+599086352+599187566+599305299+598567027
2918+597308080+596315646+595507996+594245332+592742509+591983477+592121107
2908+592076845+591106111+589856999+589184540+588690256+587300549+584859053
2898+582382830+580907864+580493583+580269455+579430345+578161674+577247065
2888+576896907+576543032+575727536+574675936+573925425+573649488+573408466
2878+572591618+571137150+569593744+568478058+567807663+567185586+566241244
2868+565020927+563852157+562897341+562129185+561615680+561421961+561346013
2858+561056223+560317426+559004868+557241951+555603300+554755067+554681521
2848+554570358+553695207+552160773+550595855+549429150+548582493+547663492
2838+546448019+545179911+544251300+543676150+543136665+542359200+541270094
2828+540058075+539007375+538008146+536680083+535226103+534345170+534064241
2818+533651424+532835590+532064694+531474752+530584960+529065731+527147614
2808+525335104+524027201+523218612+522541948+521767373+520960736+520068691
2798+518987883+518068244+517745229+517717635+517259918+516191198+514875862
2788+513569986+512310326+511148013+510132603+509260418+508501010+507762963
2778+506972771+506142820+505169909+503791464+501990629+500172525+498744975
2768+497810319+497301882+497078017+496866090+496400188+495652531+494805499
2758+493989627+493095217+491884324+490346624+488788126+487398005+485958404
2748+484296251+482816329+482086467+481943843+481562074+480485208+479057733
2738+477718595+476400293+474865333+473337920+472427629+472340982+472433073
2728+471834084+470407923+468745920+467315178+466090395+464986760+464070162
2718+463206011+462020759+460470671+459084530+458360411+458133280+457753801
2708+456782842+455294923+453583777+451921324+450639814+449993671+449727195
2698+449156438+447904436+446241420+444611478+443253419+442350974+442009601
2688+441916120+441510662+440680412+439881847+439447557+439164599+438647152
2678+437768021+436605858+435298519+434076664+433188523+432664693+432249362
2668+431619137+430675997+429613847+428701566+428044649+427528966+426877605
2658+425814366+424414185+423216807+422665046+422524862+422211684+421535094
2648+420723915+419912887+419038674+418107171+417225000+416425008+415636993
2638+414793302+413926110+413191180+412729033+412453584+412069600+411382386
2628+410517372+409735626+409069210+408313181+407430672+406724949+406436887
2618+406355607+406038374+405284222+404232659+403144379+402247679+401706392
2608+401548676+401580512+401486694+401092949+400467042+399767101+399097382
2598+398476581+397858144+397237193+396718394+396366171+396093163+395809417
2588+395494174+395058381+394409348+393683803+393154943+392898378+392701731
2578+392274874+391519033+390627325+389878654+389381217+389141809+389218058
2568+389537056+389696048+389277976+388374255+387548885+387227221+387311466
2558+387476165+387603284+387743317+387871336+387900695+387769559+387393722
2548+386730160+385934486+385267582+384856080+384648883+384517973+384343513
2538+384099412+383889212+383865523+384120249+384589791+385020403+385139225
2528+384907100+384485837+383991403+383443734+382904362+382511856+382380345
2518+382484300+382627600+382579846+382273462+381840485+381497498+381397222
2508+381496071+381592368+381563535+381448768+381244875+380820270+380126261
2498+379382659+378979340+379125681+379547207+379682773+379274199+378587398
2488+378059589+377945422+378198796+378493692+378509647+378274970+378006016
2478+377694789+377209328+376693796+376445340+376422289+376265662+375860279
2468+375547175+375648277+376038718+376334703+376298925+375922599+375316853
2458+374706676+374369657+374361623+374390381+374166027+373801716+373642573
2448+373783358+373981619+373972797+373697536+373274132+372835787+372381374
2438+371851575+371348469+371099000+371174986+371385636+371434779+371151935
2428+370634938+370118016+369672163+369209002+368773998+368573559+368691142
2418+368964263+369151224+369160272+369111542+369137934+369195261+369204197
2408+369247183+369433280+369672125+369737487+369501007+369067129+368704582
2398+368598412+368685323+368797762+368860721+368854677+368730599+368446365
2388+367979000+367270387+366232977+364776444+362766048+360000035+356325872
2378+351841130+346947927+342102365+337504433+333146847+329066475+325314486
2368+321885737+318976575+316965315+315902527+315595881+316302354+318540032
2358+322236496+326885974+332511029+339778639+348794601+358006233+364905327
2348+367739705+366623306+363559357+360750996+358479042+355703343+351980638
2338+347751334+343725586+340369032+337532064+334754563+332093144+330201344
2328+329472683+329536055+329692870+329658143+329849947+330917541+332973288
2318+335420829+337548170+339119920+340354352+341525826+342760221+344121246
2308+345642427+347188461+348488480+349446863+350254775+351066592+351767735
2298+352214564+352491853+352767827+353072859+353361485+353646244+353954768
2288+354258899+354530556+354771203+354917543+354852107+354614501+354456748
2278+354539641+354706705+354691838+354419130+353990508+353514245+353047518
2268+352629333+352309960+352158251+352219670+352433925+352618859+352596221
2258+352356813+352068224+351919444+352009207+352335564+352771356+353091180
2248+353156766+353045716+352924754+352874447+352903956+353053375+353384611
2238+353851827+354256158+354441168+354492450+354594416+354758626+354873131
2228+354915216+354917018+354868550+354842834+355020785+355428458+355863462
2218+356197139+356525860+356959287+357472267+357983482+358421827+358745856
2208+358999793+359291310+359663618+360067950+360460230+360843125+361219826
2198+361565704+361877907+362249577+362821273+363585599+364311106+364782939
2188+365080650+365487497+366116333+366732629+367035559+367051327+367101108
2178+367404075+367892427+368410850+368915871+369460311+370132395+371014304
2168+372100218+373287197+374521254+375881078+377459173+379267854+381351570
2158+383847916+386789965+389967217+393137186+396264356+399419383+402561083
2148+405533729+408221278+410673586+413082720+415556164+417962596+420168400
2138+422326338+424718804+427456847+430524626+433898262+437428225+440839029
2128+444013503+447086987+450172824+453170848+455860800+457988441+459239993
2118+459335050+458251163+456265845+453716940+450804738+447679519+444580506
2108+441694545+438887011+435801400+432352040+428917848+425886448+423205657
2098+420542661+417661993+414481851+410986314+407283318+403626424+400274149
2088+397357103+394844878+392607387+390559861+388717167+387071308+385542243
2078+384119085+382912134+381987727+381242960+380495829+379676390+378919610
2068+378448678+378335751+378397771+378348553+378029067+377471487+376809164
2058+376191854+375735676+375460565+375298870+375213799+375225099+375271276
2048+375200058+374985015+374827337+374972438+375483841+376205894+376949047
2038+377737850+378790464+380204837+381816421+383424250+384980721+386488537
2028+387843818+388831972+389236153+388989425+388251228+387278429+386200737
2018+384953502+383433898+381696473+379963214+378449054+377211318+376146390
2008+375107328+374049946+373061379+372214760+371456028+370688586+369886980
1998+369112818+368513003+368205944+368038354+367652606+366953191+366226032
1988+365676524+365223987+364791311+364420655+364083524+363666052+363158854
1978+362691564+362369149+362144308+361890634+361615035+361504210+361668308
1968+361917064+361929490+361631216+361256317+361015332+360866064+360685973
1958+360516018+360451032+360387811+360101738+359566908+359044130+358823756
1948+359000281+359528615+360281190+360863098+360686311+359653932+358441011
1938+357720835+357543447+357613877+357738105+357856176+357920373+357887073
1928+357822012+357984608+358565540+359319917+359887633+360392316+361022728
1918+361284286+360598236+359381449+358582396+358579543+359047547+359440616
1908+359427101+359068045+358633341+358293845+358084696+358015769+358088939
1898+358296473+358567792+358735269+358817299+359155594+359811572+360164809
1888+359702662+358771685+357953974+357372216+356955008+356768422+356869448
1878+357159501+357456462+357696245+358209262+359600209+361927125+364000818
1868+364188305+362419231+360281416+359029601+358711129+358805511+358922718
1858+358920879+358787415+358582471+358416459+358460871+358905449+359898183
1848+361611731+364023081+366186387+366443665+364616438+362567073+361727925
1838+361963091+362453132+362859979+363684673+365465948+367665971+368900779
1828+368787175+368277199+367805817+366949174+365791478+365086770+365172366
1818+365684933+366205872+366789806+367786895+369205210+370434199+370893267
1808+370793817+370849793+371583334+373147689+375280549+377204297+378159114
1798+378373105+379009412+381009597+384041184+386257688+386051543+384435980
1788+383656525+384533215+386390251+388490035+390705301+392802645+394256888
1778+395246544+396918946+400264501+404916156+408852253+410236742+409624200
1768+408595012+408124343+408947761+411341728+414258511+416183686+417257587
1758+418623980+420373907+422177708+424713398+428754238+433458790+436727646
1748+437699582+437472525+437396802+438228291+440170436+442670723+444761610
1738+446700714+450176090+455700231+460395023+461120455+459529332+458395814
1728+458427237+459583806+461731495+464431733+467714705+472651232+480003163
1718+488116830+493014538+493141657+491274635+490274280+491283720+494472648
1708+499413005+504901968+509627620+514006117+519802515+527073205+532940671
1698+535833239+537275731+537851369+537759878+538678729+541743729+546506060
1688+552593562+560860102+571107829+578981825+580904260+580256165+581218227
1678+585251258+592126063+600063055+606913945+612811521+618936415+624244650
1668+626872694+628387944+631939907+638078016+644400609+648756881+652211985
1658+657310545+665763520+678150640+691897696+699302487+699556123+700416220
1648+704413511+708380018+709077781+708212729+708778868+711611368+716799730
1638+724222616+731584459+733975310+730529667+726486048+725158173+725971417
1628+727070133+727700921+728258651+728023410+725518731+721865553+719783526
1618+719396914+717728004+713119822+707849994+703739249+700278439+696608143
1608+692851048+689628632+687082581+684909626+682971011+681422987+680467007
1598+680204135+680471737+680752104+680524071+679689729+678489648+677094346
1588+675435047+673566786+672030175+671331285+671319572+671873848+673652533
1578+676924054+679751448+679600978+678076906+678801325+682431076+686569376
1568+689071353+690975654+694209032+699371039+707006941+718522927+733183315
1558+743843559+746998098+748902249+753382936+760019084+767649129+775897498
1548+784903848+794812117+805382635+815932579+825617546+832125824+831658946
1538+826443929+823165275+823460359+824545334+823984526+823233602+825101262
1528+829985531+836133477+841894660+847053889+851476236+854338544+855868473
1518+857235092+858593677+859780017+861726591+865585276+871461865+878595750
1508+885281078+887810611+884601110+880672596+880018382+882368237+885524353
1498+886955394+885567677+883233364+883046403+886023592+890313263+892715452
1488+892159374+890898549+890948556+892116876+893331898+894292759+895682880
1478+898037915+901069315+904108674+906293042+906446515+904581108+902854907
1468+903238441+905659776+908086518+908632535+908465471+910445158+915501145
1458+920752278+920656019+914701041+908561354+905621033+905799059+907366530
1448+908036737+906933065+905566371+905749728+907667995+910547724+913818944
1438+916715567+917922481+917353488+916593104+916233447+915410743+913642420
1428+911895647+911568127+912907490+914747068+915997456+917008022+918303461
1418+918758850+917112766+914216669+911880104+911204641+911905257+912611280
1408+912299077+911091113+909453212+907723107+906567627+906746554+908339254
1398+910501997+911763272+910810145+907780397+904527647+902625899+901776990
1388+900278597+896796388+892359250+889758987+890627643+894085750+898121259
1378+901830976+905821359+910467458+914646229+917014555+917974589+919000173
1368+920779909+923120603+925810893+928500657+930248782+930242399+929016264
1358+928197239+928873828+930493934+931789372+932569203+933480433+934574869
1348+935574474+936788145+938483936+940211562+941635847+943065612+944664618
1338+945992419+946642053+946854843+947301898+948445065+950190787+952111832
1328+953907561+955208856+955212235+953544676+951328622+950334274+951055314
1318+952347523+952858326+952192849+951124241+951183258+953251094+956280091
1308+958234850+958372781+957715864+957352303+957289081+956913357+955895957
1298+954552990+953517721+953206194+953406745+953192828+951644880+948852250
1288+945660393+942421835+938902458+935441498+932953337+931558561+930348419
1278+928774191+927255525+926094939+924766238+922679180+919996399+917392907
1268+915404436+914115980+913131242+911816357+909662398+906401539+902099479
1258+897415762+893449331+890938795+889672789+888858044+888069653+887648653
1248+887961681+888540585+888460320+887493377+886373487+885988978+886687342
1238+888094056+889404061+890173305+890724803+891479556+892397167+893430935
1228+894832319+896618812+898356275+899674164+900535087+901229021+902409579
1218+904514132+907034354+908949994+909822179+910031065+910248736+911081201
1208+912862289+915543117+918843771+922263960+925049608+926935964+928701884
1198+930919514+932855877+933908717+935117057+937758691+941371698+944480510
1188+946687178+948872072+951532177+953897199+955073103+955519782+956536281
1178+958422862+960111445+960800724+961181028+962606739+965314899+967933482
1168+969203692+969759921+971246300+974101701+977280868+979918448+982197948
1158+984486233+986517578+987614117+987505319+986970340+987111124+987880668
1148+988218100+987787413+987716308+989155233+991796267+994413199+996322230
1138+997935353+999848214+1001768809+1003279591+1005007893+1007690749+1010680402
1128+1012680737+1013296283+1012767986+1011424042+1010274794+1010718170
1120+1013238843+1017223745+1021502454+1024556604+1025381186+1024668781
1111+1024410940+1025910909+1028461616+1030177154+1030175653+1030072186
1103+1032135141+1035794100+1037866291+1036940721+1035203183+1035234793
1094+1037608375+1041506254+1045780383+1049349540+1051370148+1051651115
1085+1050989768+1050519662+1050464324+1050488577+1051290107+1053930165
1077+1057557063+1060026152+1060907723+1061766844+1063549958+1065712777
1068+1067426288+1068238255+1068116693+1067714388+1068002789+1068943452
1060+1069114720+1067434472+1064798244+1063315994+1064410656+1067537789
1051+1070818695+1072954483+1073741823+1073006743+1070210508+1065979779
1043+1062322396+1060633739+1061119838+1063656504+1067413749+1069866920
1034+1068372657+1063331837+1058067114+1055503868+1055953926+1057999763
1025+1060731499+1064159572+1067364193+1067853896+1064302909+1059121155
1017+1056518489+1058076049+1061679745+1064848400+1067060024+1067949554
1008+1066230111+1062134684+1058103530+1055821477+1054964834+1054794617
1000+1054947039+1055128819+1055372470+1055994848+1056711307+1056454442
991+1054442169+1050996826+1047335464+1044504766+1042382644+1040184986
983+1037746381+1035863028+1035133954+1034668579+1032967382+1029982384
974+1026773409+1023437765+1019517811+1015676922+1012576895+1009254091
965+1004708380+999753983+995609751+991957699+987693932+982786838+978492587
955+975756571+973910009+971826030+969906261+969078226+968324374+965835087
945+962250612+959918702+959512043+959599667+958976688+957888183+957276317
935+957868511+959551763+961228107+961701216+960718956+958912641+956973875
925+955326664+954576342+955510847+957857474+959505961+958341621+954918578
915+951991471+951543740+953047539+954352889+953945028+952137286+950110221
905+948468416+947296642+946529651+945612489+944129489+942857702+942823013
895+943661861+944111619+943695348+943020261+942878801+943556066+944565657
885+944854958+943525882+940792869+938259432+937556187+938170306+937483130
875+934187882+930665953+930278966+933257731+936532331+937275445+935809864
865+934542733+934638466+934842021+933770560+932134612+931507354+932011473
855+932599913+932756915+932694144+932546227+932491941+932809475+933099452
845+932632274+931690786+931344044+931722622+931601210+930016920+927434152
835+925336056+925064399+926630894+928869548+931230441+934019992+936567621
825+937246688+935852963+934507593+935317834+938081331+940934930+942699724
815+943725983+944642468+945471780+946149271+946967620+948186472+949632606
805+950639419+950447352+949323632+948637207+948948358+949060985+947865710
795+946096786+945237516+945579527+946022302+945612339+945086145+946090930
785+948962174+952235347+954169006+953938196+951650136+948301202+945716557
776+945470729+947310983+949163927+949358622+948641336+948891969+950098733
766+950417918+949147934+947928631+948701104+951153299+952393475+949965983
756+945307720+942492189+943453800+946324068+948670619+950325564+951939588
746+952824913+951811268+949115197+946349447+944932221+945065947+945995497
736+947091435+948932966+952366220+956416596+958650144+958062981+956040195
726+954080707+952273340+950377222+949119627+949620217+951617924+953018782
716+951895438+948711766+945934678+945473808+946909355+947893341+946283072
706+942374681+938404421+935573422+932879379+929719509+927567803+927746580
696+929320283+929985009+928397190+925566942+923655433+923191784+921780564
686+916425589+907957522+901019083+898327668+897508042+895110508+892058235
676+892098480+895562744+897011806+889899696+873730178+858666434+858287631
666+870343627+882801927+889906078+891564402+888718611+882170989+873946272
656+867412690+864940823+865737097+866784831+866383277+865631528+865802271
646+866081662+864889465+862064323+858891613+856834439+856010308+854972936
636+852661525+850287192+850109692+851762759+851510399+846365887+838641235
626+833225141+831032664+829588782+828247767+828084383+828094519+825489301
616+819206653+811618355+806549077+805864980+808375065+812057301+816111731
606+820280441+824010130+826472086+826515861+823512993
##END=
