##TITLE=<SNM>
##JCAMP-DX=4.24
##DATA TYPE=INFRARED SPECTRUM
##DATE=3/5/2025
##SAMPLING PROCEDURE=Instrument type and / or accessory
##ORIGIN=Admin
##XUNITS=1/CM
##YUNITS=ABSORBANCE
##RESOLUTION=4
##FIRSTX=4497.3318
##LASTX=599.83466
##DELTAX=-1.4281778
##MAXY=1.7342283
##MINY=0.18417709
##XFACTOR=1
##YFACTOR=1.6151259e-09
##NPOINTS=2730
##FIRSTY=0.20578393
##XYDATA=(X++(Y..Y))
4497+127410458+127394266+126865173+126193861+125971118+126243248+126594538
4487+126695239+126633093+126813775+127509628+128446326+128853710+128075754
4477+126311567+124652316+124141407+124846865+126023125+126989623+127609435
4467+128080736+128546963+128926106+128990937+128523133+127495752+126267088
4457+125450946+125418775+126051781+126930669+127489857+127167196+125936216
4447+124629481+124265156+125046183+126178851+126579093+125796091+124443670
4437+123650630+123921515+124682180+125031966+124658174+123870753+123118206
4427+122735807+122791237+122919054+122614549+121777797+120692376+119610045
4417+118719182+118250363+118292166+118753503+119543886+120401046+120710449
4407+120072453+118910465+118075834+118034373+118646915+119409675+119803911
4397+119722972+119517591+119424187+119237342+118783764+118345021+118263602
4387+118399261+118282709+117654529+116682707+115798007+115438691+115720407
4377+116250764+116496647+116313178+115858733+115264089+114787963+114903029
4367+115743768+116744485+117207935+117059590+116746561+116546624+116309220
4357+115880931+115478160+115429115+115742614+116129239+116289763+116107051
4347+115705839+115341726+115174938+115254863+115636082+116225817+116637943
4337+116485372+115771086+114881385+114249201+114032648+114148896+114587149
4327+115365483+116104458+116171005+115465631+114612060+114201558+114218441
4317+114343149+114499299+114808398+115163618+115270067+115162511+115224842
4307+115536579+115691179+115505893+115450510+116030816+117039182+117758838
4297+117778185+117303442+116760492+116438412+116483398+116836237+117138278
4287+117020066+116490096+115832033+115279709+114951346+114858209+114899468
4277+115060480+115483502+116113906+116575188+116707599+116930029+117668857
4267+118623425+119036917+118653318+117947519+117458365+117433603+117924934
4257+118654794+119090298+119065268+118909487+118856520+118950247+119349337
4247+120008932+120445562+120414664+120236020+120120677+119941425+119788098
4237+119930889+120207503+120141795+119651230+119151227+119032802+119358655
4227+119979408+120683288+121214549+121354960+121131903+120805256+120472105
4217+119898164+119080094+118648308+119156439+120224543+120999888+121196060
4207+121119078+121063612+121185072+121540541+121929269+122122563+122271600
4197+122624135+123012818+123102531+122896321+122622539+122380421+122146320
4187+121978758+122060758+122514438+123141013+123447150+123153726+122681346
4177+122831075+123830186+124992903+125570654+125624119+125654878+125708952
4167+125464472+125007397+124824205+125007120+125061461+124642831+124021626
4157+123637612+123558370+123576490+123583142+123629613+123733544+123804224
4147+123783549+123732077+123692008+123632833+123656618+124012760+124705061
4137+125334191+125557664+125499964+125516119+125754436+126108290+126406465
4127+126534541+126498237+126370586+126105135+125605270+125082165+124955870
4117+125251314+125609818+125975159+126613303+127444825+128067368+128354241
4107+128403508+128160283+127689305+127450406+127745307+128234276+128379973
4097+128085146+127631181+127218336+126829469+126409335+126002763+125792041
4087+125982660+126525130+127067869+127338929+127355093+127165886+126773374
4077+126381048+126281130+126455917+126634809+126658326+126554561+126438037
4067+126435417+126525306+126526948+126357660+126067225+125685038+125352763
4057+125382443+125826694+126288880+126424650+126302055+126124786+125962482
4047+125837673+125775213+125738752+125713832+125812283+126143128+126604963
4037+126899116+126806330+126466351+126304306+126587480+127113556+127454863
4027+127428033+127191220+127011184+127066992+127327885+127554651+127580742
4017+127542750+127598179+127581877+127303289+126987510+127033419+127505818
4007+128130751+128612846+128811842+128800190+128819758+129003208+129138775
3997+128874182+128151122+127339233+126919847+127090159+127676195+128342534
3987+128837195+129079738+129078418+128854171+128542470+128466199+128874985
3977+129638797+130386057+130843842+130878652+130419732+129610611+128908789
3967+128813807+129475303+130605248+131743784+132566974+132927047+132757962
3957+132126202+131275924+130538757+130289737+130834791+132036128+133205866
3947+133730890+133634893+133308182+133001602+132667390+132093615+131276320
3937+130666444+130843003+131927390+133385210+134347492+134317590+133733888
3927+133493643+133828234+134053099+133721692+133552053+134511548+136358733
3917+137709356+137592527+136397732+135045826+134057823+133678053+134166376
3907+135632859+137785166+139908587+141188206+141286472+140500296+139378811
3897+138452963+138163801+138681094+139615246+140040565+139534223+139088007
3887+139687310+140726703+140943182+140532864+140581144+140956070+140753375
3878+140159091+140085172+140784439+141998434+143502457+144622983+144499346
3868+143694653+143570056+144214520+144515445+143889802+142995783+142817878
3858+144052152+146996327+150873464+152845107+150927796+147514349+145124020
3848+144295285+144754113+146057461+147674595+149176460+150488527+151585961
3838+152030885+151573902+150867901+150652187+150941506+151362212+151696156
3828+151809922+151713935+152023273+153414011+155302943+156208697+156211317
3818+156438443+156407111+155053730+153193260+152441774+153382615+155661724
3808+158186808+159680019+160301667+161232239+162454887+162992099+163187543
3798+164084108+165461348+166513371+167342530+168601658+170580415+173375175
3788+177115048+181515059+185774484+189567591+193637293+198754368+204763893
3778+211298488+218580427+226797846+235683301+244851035+253507151+260333307
3768+264994949+268750561+273015337+278517063+285418244+293444851+302133516
3758+311441689+321931805+334235754+348735160+365318426+382523783+397933648
3748+411091925+423523304+435964167+447222403+457033522+467075698+478107565
3738+489455774+500728550+512313830+523362489+531685933+536524604+539375772
3728+541992341+544350730+544660650+542014779+537978660+534741918+533056216
3718+532354117+532176314+532740798+533908183+534383248+533632141+533487182
3708+535440954+538960343+542776109+545686877+546862196+547010956+547960238
3698+550560754+554569786+559257298+563535950+566773282+569409779+571839393
3688+573588016+574596714+575626483+577081794+578367493+578847836+579223260
3678+580573652+581900204+581091785+578790856+576618132+573887935+569998583
3668+566957322+566165510+566445390+565850645+564055301+563049223+564758728
3658+568326941+570677986+570716809+570772608+573010874+577225203+580425298
3648+579389292+575543855+572895660+573281528+575636005+577903203+579345450
3638+580658458+582247250+583758174+585257511+587490647+590542315+593208520
3628+594871858+596412010+598372832+601113694+605415780+610910014+614903620
3618+616008084+616998477+620278248+624806815+629020885+633140481+636859964
3608+638192642+636862400+635031665+634147518+634176820+634946564+636245143
3598+637472128+638757864+641362033+645928980+651527985+656761418+660244198
3588+660818499+659529441+659342855+661245626+663392923+664230054+664461812
3578+665038621+665276874+664297072+662393120+660309888+658742869+658423797
3568+659154939+658983926+656212212+652052022+649613256+650962541+655422466
3558+659938338+661663601+660135110+656565532+652480625+649481140+648462589
3548+648498607+648094951+647605751+648346784+649731644+650147036+649898377
3538+650501536+651609395+651212677+648744314+645686668+643790023+643974395
3528+645551231+646304220+644927626+642826976+641887399+641835438+641150352
3518+639279982+637116521+635679552+634869582+633926685+632887098+632563450
3508+632719849+631973207+630073905+628391007+627512692+626281721+624143280
3498+622429310+622674353+625104335+629037935+633242263+635528762+634248192
3488+630793312+628355137+628076290+628446068+628196375+627858408+628282731
3478+628926632+628319709+626048192+623533331+622251211+622125664+622438684
3468+623118751+624079584+624485159+623920232+623267400+623514583+624399690
3458+624724962+623291609+619673244+615345177+613183708+614558383+617818780
3448+620472880+621722967+621772714+620233668+616807941+612576120+609390749
3438+608132507+608072833+608078295+608068995+608701936+609883271+610566696
3428+609955898+608120587+605986316+605155348+606543825+608943067+610188910
3418+609641475+608157565+606460127+604921783+603933309+603496586+603193198
3408+602864494+602569262+602155457+601689249+601633524+601915028+601710506
3398+600572422+598884506+597289034+596377284+596405737+596641074+595660792
3388+593084928+590456328+589738139+591393211+594176771+596257346+596599557
3378+595641196+594528392+593834338+593330118+592653926+591717007+590680742
3368+589899853+589710277+590096994+590763850+591351362+591203340+589586943
3358+586873095+584785066+584790712+586742234+589293999+591047199+591379815
3348+590668785+589522029+588166618+586996281+586819658+587773443+588720437
3338+588664675+587929436+587189658+586301452+584956005+583773268+583552803
3328+583845821+583690751+583230336+583015998+582837419+582610496+582808597
3318+583237053+583299605+583521583+584830273+586673703+587359527+585981088
3308+583268716+580802679+579618945+579592633+580158298+580892319+581250251
3298+580999488+580921030+581800674+583201330+584235712+584728529+584971874
3288+585240055+585699068+586171697+586257020+586006958+586121693+587137328
3278+588645485+589571997+589092060+587164453+584498026+582171707+580990852
3268+580948450+581543195+582363756+582912482+582591675+581413293+579857530
3258+578049712+576121699+574788172+574507923+574770458+574918369+575012548
3248+575513520+576600676+577883054+578624234+578418568+577492868+576282047
3238+575226628+574752227+574743850+574538848+573950044+573480330+573121918
3228+572026607+569958653+568012261+567113685+566724347+565754842+564072461
3218+562505406+561891692+562543675+564071280+565474814+565876551+565277636
3208+564320899+563461589+562616671+561515418+560286219+559416871+558905086
3198+557950453+556125733+554307804+553647776+554038257+554206835+553207990
3188+551434051+549973943+549253724+548783124+548140256+547455502+546829684
3178+546112860+545484938+545429028+545760242+545420171+543801782+541698917
3168+540261875+539603027+539098955+538420991+537646597+536992510+536778430
3158+536932504+536577414+534921936+532287358+529683078+527823743+526771830
3148+526080433+525227249+524127103+523004299+521825178+520423489+519108599
3138+518441448+518377088+518149685+517259708+516224107+515831264+516026264
3128+516175910+516034051+515622202+514643138+512933707+511113306+510026298
3118+509717632+509391327+508425290+507229969+506751914+507163099+507527969
3108+506903295+505340262+503626992+502464589+502066210+502093667+501714700
3098+500258393+498148110+496623826+496258145+496405355+496446798+496667632
3088+497322457+497745856+497197610+495913572+494633408+493712653+493169388
3078+493011513+493059820+492904934+492369272+491567901+490516875+489226673
3068+488040098+487365751+487161930+487051292+486797687+486291549+485360608
3058+484158902+483445105+483729782+484337185+484017966+482376253+480199064
3048+478557462+477901124+477867947+477799933+477422073+476936969+476513385
3038+475943070+474910643+473517295+472326033+471751031+471627477+471538021
3028+471206771+470448984+469262925+468087938+467388422+466936680+466055412
3018+464575745+463105378+462305225+462181929+462188387+461871197+461179025
3008+460241220+459244775+458447574+457873569+457096333+455746384+454103712
2998+452753431+451835628+451139101+450764599+451024957+451659891+451841052
2988+451120612+449798858+448289335+446738296+445309520+444262442+443632011
2978+443178018+442717640+442325129+442106657+441894754+441356656+440412098
2968+439384579+438670191+438354403+438182209+437854760+437359213+436970429
2958+436864772+436785207+436175221+434731609+432854744+431355002+430604743
2948+430254598+429894783+429537811+429226082+428700126+427761805+426562387
2938+425364150+424291535+423351995+422565054+422055225+421928054+421996437
2928+421888529+421499155+420977111+420295936+419299675+418170707+417407348
2918+417211756+417159685+416676131+415720981+414735090+414034209+413611252
2908+413401121+413348532+413262103+412868079+411979688+410609626+409086302
2898+407914304+407279001+406860768+406309090+405670761+405172372+404816433
2888+404415840+403912949+403426480+403015664+402681314+402596656+402962338
2878+403553319+403790206+403332190+402266365+400821425+399339987+398344131
2868+398085582+398082814+397547447+396314669+395036793+394386507+394296683
2858+394144343+393591927+392956329+392638769+392483514+391971914+390931331
2848+389752395+388852896+388221911+387711049+387486783+387707100+387921291
2838+387469992+386456607+385617742+385298596+385200025+385011151+384707246
2828+384265837+383525321+382391002+381026291+379791187+378972582+378584721
2818+378443231+378332445+378073194+377594401+376998106+376416056+375790459
2808+374978423+374082430+373398156+372939070+372346317+371472061+370666520
2798+370213781+369895964+369410861+368811724+368230375+367554773+366663946
2788+365668460+364722500+363859684+363109425+362515971+361988133+361367001
2778+360676047+360069087+359520508+358820550+357912083+356984279+356163682
2768+355331865+354374538+353471090+352949230+352864240+352880441+352614548
2758+351970610+351104140+350181429+349240745+348229501+347138692+346109513
2748+345394534+345148384+345165766+344882195+343863091+342318584+340862609
2738+339775860+338857724+337998008+337442529+337335249+337375511+337187485
2728+336790951+336428886+336101141+335564852+334703697+333638499+332539239
2718+331548956+330793752+330257795+329735382+329060038+328294796+327613917
2708+327111395+326758150+326433062+325997004+325430528+324843200+324280524
2698+323642048+322845696+321913058+320876534+319805764+318910177+318393299
2688+318223799+318186157+318074670+317784568+317368179+317010174+316781590
2678+316497060+315968115+315241585+314465383+313735421+313143481+312725838
2668+312336722+311807407+311199967+310719366+310436644+310209537+309833559
2658+309249737+308608714+308061169+307533645+306886440+306234051+305842130
2648+305710032+305520512+305061850+304479671+304035014+303788717+303573400
2638+303142343+302369960+301436657+300721494+300399507+300298205+300222035
2628+300157619+300075969+299829469+299364865+298814848+298316680+297915238
2618+297626151+297443162+297324774+297242220+297141656+296862293+296282531
2608+295551130+294973065+294670840+294506285+294288274+293952281+293578628
2598+293272472+293028832+292765061+292444401+292068921+291656095+291324014
2588+291227565+291313478+291343850+291221642+291062180+290890133+290518528
2578+289866821+289203379+288863364+288836830+288839672+288705286+288515673
2568+288412397+288412545+288405238+288343774+288426476+288896061+289636670
2558+290230787+290454537+290444812+290348511+290107897+289685623+289228050
2548+288848695+288474765+288070869+287772444+287631674+287498450+287270716
2538+286974893+286578599+286060061+285613983+285455388+285497625+285507903
2528+285467032+285494359+285527148+285372170+285021618+284670052+284480753
2518+284512933+284746370+285009403+285035291+284733103+284297783+284008031
2508+283983010+284127416+284259735+284262041+284088260+283718224+283202896
2498+282678453+282269409+282038463+281973918+281929467+281704187+281284163
2488+280868550+280596051+280365106+279962040+279314540+278581128+277981198
2478+277588023+277323199+277067897+276729469+276306272+275930072+275749722
2468+275750165+275761273+275653292+275461465+275290267+275152431+274965826
2458+274679432+274327681+273970155+273649588+273425581+273357401+273359227
2448+273191148+272777159+272395663+272316578+272422308+272429837+272279305
2438+272085670+271923015+271794626+271636179+271328417+270857578+270389118
2428+270081892+269959684+270015151+270265047+270637833+270951812+271073152
2418+271026007+270930242+270881694+270887673+270900645+270918045+270987055
2408+271084371+271124043+271135114+271253761+271490315+271683379+271706093
2398+271576486+271390066+271258964+271268504+271406765+271541612+271471771
2388+271023738+270119128+268673819+266409831+262902233+257883046+251440323
2378+243952109+235932662+227884097+220142814+212837146+206019718+199796998
2368+194320072+189712402+185998326+183159004+181483303+181785012+184877827
2358+190811791+198947985+208928751+221201683+235649460+249742129+259441373
2348+262035265+258020236+251129812+245648882+242770239+240882857+238527107
2338+235425121+231807585+227970102+224355205+221618514+220289858+220292736
2328+220976808+221663924+222120796+222678563+223968654+226382417+229706602
2318+233256529+236361542+238853652+241116404+243570595+246229770+248872910
2308+251394100+253764446+255869728+257615621+259075784+260392888+261592011
2298+262582828+263326075+263934401+264568209+265255657+265901478+266492736
2288+267142302+267836817+268340336+268507732+268483283+268417668+268231358
2278+267847648+267430744+267184059+267072664+266929661+266725157+266542187
2268+266365122+266124895+265924838+265971780+266271404+266584110+266671443
2258+266485484+266176376+265950302+265853964+265738916+265486105+265170409
2248+264965795+264977807+265171738+265400469+265526072+265555779+265623369
2238+265809458+266040791+266214535+266350877+266555233+266909364+267451170
2228+268156295+268900631+269543296+270063975+270581296+271266659+272217380
2218+273366129+274574957+275818179+277158626+278590594+280049687+281528487
2208+283072606+284698616+286386938+288146245+290020453+292002642+294011328
2198+295986708+297938414+299908166+301945988+304048539+306093207+307943648
2188+309582390+311044454+312337128+313488865+314570633+315639853+316667335
2178+317504466+318034629+318345103+318558260+318601549+318359864+317891811
2168+317332788+316719370+315977525+315037764+313944224+312771599+311498890
2158+310111520+308684165+307275575+305939428+304762522+303745687+302885343
2148+302290358+302011216+302336377+304389200+309329210+316807939+325301548
2138+333841471+342327219+350630698+358578976+366371039+374278538+382271101
2128+390168636+397985572+405995738+414271244+422282258+429333768+435117109
2118+439487910+442274792+443671720+444389097+445307638+447270157+451171835
2108+457954573+468250722+481918717+497819775+513797963+527115886+535714303
2098+539088659+537789453+532948494+526075820+518071079+508815403+498087588
2088+485856450+471910678+456222630+439196811+421418335+403808695+387431944
2078+372740711+359746287+348625629+339419846+331811528+325598589+320666772
2068+316680104+313411994+310831850+308669661+306616063+304713329+303048736
2058+301613132+300523356+299797860+299273067+299060610+299498126+300712268
2048+302761456+305877614+310389075+316844548+326010659+338406388+354198284
2038+373420409+395619397+419511061+443452879+465821920+484956730+499572975
2028+509183520+513888341+514311261+511594202+506938612+501203948+494751796
2018+487521486+479500323+470940693+461966926+452406607+442041706+430785056
2008+418827525+406668830+394796105+383459152+372819980+363021851+354065134
1998+345848675+338344537+331622137+325712954+320507863+315837327+311645067
1988+307996477+304951876+302497260+300508152+298770231+297158983+295749747
1978+294643734+293783704+292999161+292143265+291199278+290315095+289659790
1968+289219248+288814762+288325470+287808278+287385321+287093798+286891841
1958+286758414+286710550+286739796+286781018+286743136+286588194+286381310
1948+286220501+286151896+286169887+286174722+285965586+285498086+285038151
1938+284824311+284780451+284724393+284648482+284657634+284779307+284940079
1928+285100113+285356762+285809944+286356455+286837259+287329781+287928032
1918+288325931+288116261+287484261+287074626+287243591+287766097+288190825
1908+288351505+288446902+288670725+288975940+289241022+289461689+289697949
1898+289959690+290179417+290280608+290349360+290618593+291090356+291397656
1888+291315009+291087404+290976876+290936466+290877604+290852971+290903382
1878+290996085+291114141+291296391+291667904+292400393+293453228+294340715
1868+294441444+293750601+292930151+292535997+292612961+292917400+293227265
1858+293424738+293487383+293506573+293636604+293981233+294528981+295231153
1848+296163035+297411093+298610879+298973830+298348565+297571201+297333723
1838+297620154+298100404+298628021+299378372+300509407+301703436+302353851
1828+302424762+302457828+302625373+302635503+302451167+302381179+302566861
1818+302889956+303280567+303840973+304666350+305643808+306472211+306937903
1808+307144363+307399683+307985165+309030952+310408782+311712158+312569808
1798+313081888+313777861+315112975+316975373+318526191+318976235+318708940
1788+318704105+319339002+320378810+321608895+323036822+324541510+325822854
1778+326854100+328069719+329925770+332303201+334345986+335316193+335466798
1768+335382694+335447903+336133728+337759424+339934399+341866805+343325362
1758+344556628+345621826+346717728+348468196+351181454+354174444+356307497
1748+357332026+357952087+358792318+360070415+361730248+363385541+364564993
1738+365542064+367220902+369704986+371477781+371306288+370303901+369777908
1728+369901094+370500120+371448664+372621400+374166128+376584671+380098155
1718+383896059+386336854+386807011+386373241+386184588+386792139+388386393
1708+390840695+393587240+396055934+398605966+402159306+406579486+410195453
1698+412160223+413262472+413770493+413845482+414500897+416430203+419401124
1688+423080788+427724938+433175071+437344783+438605609+438729053+439822335
1678+442436468+446146171+450093204+453699502+457252954+461073074+464510647
1668+466822130+468727780+471439746+475079627+478735487+481708660+484434649
1658+487825981+492538957+498831610+505630327+509809413+511099872+512702983
1648+515744650+519049257+521352142+523206643+525689989+529107117+533525857
1638+539045223+545000794+549404625+551323782+552662881+555334105+559724134
1628+565224199+571094928+577233100+584006944+591449010+599206272+607411993
1618+616493925+625418093+631482900+633778404+633690277+632390665+630462652
1608+628422302+626872554+626622419+628518179+632787310+638706494+645168831
1598+651447017+657286489+662544057+667036089+670711803+673715200+676235966
1588+678449175+680481479+682276565+683731690+685128803+687110696+690140591
1578+694183205+698629549+702675780+706634696+711783988+718783796+727091408
1568+735711819+744632186+754411973+764989700+776330158+789850612+807471323
1558+826421170+840731296+850506360+857783169+862992393+866623897+869439083
1548+871754663+873670351+875039195+875060968+872429711+865989074+857242599
1538+850912009+848604400+847899976+846080829+842566533+839336545+838055754
1528+838247065+838484062+838605919+840016834+843308082+846843193+848745964
1518+849158108+848995435+848586391+847916878+847190164+847074433+848171885
1508+849898698+850340070+848965617+847714127+847549166+848094903+848867452
1498+849413632+849253468+848470808+847745644+847361768+846949107+846172056
1488+845308133+844905953+845146862+845741386+846258190+846692993+847483182
1478+848673189+849696833+850273421+850716048+851011502+850742914+850156141
1468+849859801+849865780+849676019+849279227+849569440+851048849+852701928
1458+852409500+849531946+846889027+846429129+847010073+847080707+846174787
1448+844686374+843174564+841923739+840682804+838971417+837044510+835922480
1438+835888528+835684228+834372954+833060204+832871329+833429761+833684473
1428+833055628+831680363+830032081+828776533+828552525+829385301+830297126
1418+829971190+828361067+826484424+824854964+823393121+822093952+821118505
1408+820371198+819368516+817804228+816136240+815038124+814474378+814133533
1398+814331855+815401555+816534804+816568977+815669478+814807548+814018466
1388+812464290+810035562+808227930+808936487+812833478+818889059+824989442
1378+829419696+832024972+833921839+836451610+840306826+845033936+849327940
1368+852264172+854258761+856212017+858078180+859087800+859010006+858440134
1358+858018026+857917426+857836237+857495613+857124284+857023979+857074316
1348+857293379+858249045+860281866+863046347+866148647+869322171+871923536
1338+873457415+874698718+877081537+880862650+884705023+887292954+888974745
1328+891206848+894633534+898577540+902279604+905714483+909059759+912262807
1318+915422677+918804340+922348012+925793889+929136729+932414175+935294387
1308+937407363+938917181+940332598+941909211+943494092+944782559+945566843
1298+945876837+945804210+945003466+942858604+939519233+936156538+933736520
1288+932018712+930041911+927341348+924499960+922516442+921816299+922100977
1278+922935377+923890674+924211297+923205367+921198452+919510683+919163417
1268+919842820+920416899+920441551+920668732+921758360+923379185+925047542
1258+926821444+928579626+929532635+929042845+927262743+924581222+920984409
1248+916336273+910957069+905628128+901162741+897969731+895771949+893796993
1238+891625634+889727956+888687779+888132964+887012484+884850572+882283233
1228+880384152+879800257+880581810+882507536+885130526+887588703+889035931
1218+889497084+889805528+890752411+892645219+895319875+898275149+901006563
1208+903218443+904747746+905749026+906811640+908423239+910606407+913370961
1198+916782000+920226326+922591948+923631461+924222368+925087324+926270910
1188+927862802+930163842+932969876+935516254+937448032+939153367+940874792
1178+942160528+942587803+942729219+943968751+947199329+951748636+955833542
1168+958270979+959494643+960738087+962604102+964713167+966450830+967724978
1158+969082825+971155724+973765060+975589299+975526489+974484836+974585953
1148+976578548+979356831+982037244+984717509+987046891+988128105+988035403
1138+987727475+987638463+987775598+988654135+990639793+992985044+994952102
1128+997060134+999823581+1002402729+1003849367+1004564493+1005665635+1007910360
1118+1011325901+1015031138+1017909431+1019843349+1021510009+1023246565
1110+1024723168+1025286250+1024666484+1023597965+1023173568+1023495593
1101+1024009223+1024796755+1026118657+1027470525+1028760542+1031234367
1093+1035526231+1039966301+1042145927+1041680272+1040124989+1038750240
1084+1038494716+1040785054+1045325061+1049076502+1049899979+1049497503
1075+1050715262+1053715043+1056224885+1056082141+1053827969+1052761221
1067+1055131272+1059628101+1063404563+1065189906+1065487795+1064832085
1058+1063565391+1062692094+1062710472+1061948035+1058719302+1054849842
1050+1053680427+1055212977+1056491259+1056410734+1057067700+1060050799
1041+1064124561+1067058283+1068326527+1069392758+1071571719+1073741823
1033+1073158961+1069033239+1063673889+1060056261+1059176248+1059677257
1024+1059994115+1060231924+1061683138+1064630220+1066818850+1065506026
1015+1061413960+1058411744+1058948181+1061673617+1063495052+1062784354
1007+1060147488+1057028360+1054537855+1053090479+1052528874+1052620839
998+1053394642+1054709754+1055535887+1054613139+1052322285+1050436489
990+1048887923+1044887970+1037155839+1029099469+1025486196+1027489715
981+1031858192+1034241749+1033398935+1031282268+1029517518+1027485656
973+1023916963+1019306543+1015511924+1013242548+1011382659+1008854512
964+1005750810+1002354680+998187626+992792848+986921491+982170468+979472636
954+978253991+976946703+974207317+969886151+965031132+961122332+959353153
944+960100312+962435893+964352688+964266554+962308648+959669789+957067687
934+954528690+952324929+951150126+951198102+951895957+952668506+953137630
924+952870444+952040842+951872707+953112978+954763178+955608649+955884617
914+956158593+955872513+954196627+951465213+948976849+947643875+946976577
904+945668550+943646948+942682277+944133934+947031416+949194877+949532845
894+948420410+946508486+944129284+941709192+940176051+940266170+941391596
884+942081184+941714727+940792865+939710396+938536331+937711969+937722524
874+938122342+937815227+936337221+934310599+932566294+931407950+930924434
864+931500358+933423869+936091661+938477801+940245504+941315352+941072450
854+939386379+937419394+936213371+935765872+936000213+936881260+937526932
844+937180846+936781471+937507226+938418386+937381678+934050426+930751649
834+929951570+931392081+932483333+931843491+931478658+933985549+938462745
824+941048093+939658952+936347923+934352965+934964169+937575055+940626058
814+942425056+942875063+943827778+946491584+949606431+951285269+951621022
804+951862448+951891159+950544531+948075800+946080547+945078234+944157552
794+943042829+942581307+942927689+943055746+942309030+941050455+939767007
784+939048854+940044377+943229194+946872286+948148353+946171847+942873735
774+940833238+941313285+944453670+949946760+956173133+959587936+957603902
764+952071472+947282511+945123257+944552425+945075650+947768832+952365966
754+955705633+954873595+950964942+947530580+946337473+946778254+948204300
744+950282365+951770409+951671137+951101118+951499829+952151185+951909168
734+951527581+952063280+953123680+954202606+955351797+956130398+956235722
724+956405776+956914018+956557673+954842374+953377653+953543574+954753066
714+956021605+957403956+958665926+958369808+955806159+952561115+950886706
704+951022881+950746175+948073881+943735518+939806789+937019797+934789835
694+932603493+930039106+926124918+920157463+913252647+908048589+906470794
684+907953967+909907518+909689120+906316609+901254042+897632207+897783292
674+900608295+900764547+892287176+875702508+862514191+865579144+879908533
664+892742203+899530476+900388052+895902663+888737821+883567788+882196583
654+881462857+878336791+874476187+873509302+876024975+878828057+878391409
644+874567192+871052748+871535675+875249179+877506893+875320035+870562515
634+866677777+865202427+865580029+865522164+862220213+856000040+850997700
624+850114070+851624330+851749582+849019939+844875322+841696188+840812854
614+841452843+841897906+841365602+841351948+844157392+848590672+849507589
604+844627992+838759071+836962066+836608157
##END=
