##TITLE=<SNM>
##JCAMP-DX=4.24
##DATA TYPE=INFRARED SPECTRUM
##DATE=3/5/2025
##SAMPLING PROCEDURE=Instrument type and / or accessory
##ORIGIN=Admin
##XUNITS=1/CM
##YUNITS=ABSORBANCE
##RESOLUTION=4
##FIRSTX=4497.3318
##LASTX=599.83466
##DELTAX=-1.4281778
##MAXY=1.7106742
##MINY=0.18078151
##XFACTOR=1
##YFACTOR=1.5931895e-09
##NPOINTS=2730
##FIRSTY=0.20020747
##XYDATA=(X++(Y..Y))
4497+125664571+125921883+126713917+126964877+126390517+125429062+124593527
4487+124272390+124596679+125381520+126427901+127525882+128025269+127173609
4477+125250138+123739323+123903871+125444971+126840856+126951138+126119466
4467+125527231+125696231+126020492+125796225+125237044+125033110+125373159
4457+126003282+126783653+127504033+127555091+126522909+124866860+123533341
4447+123172632+123832723+124937410+125553495+125164651+124178084+123330549
4437+122822314+122389072+121928762+121659544+121738849+121985011+122067758
4427+121855940+121407536+120767059+120094379+119777919+119946349+120116639
4417+119835711+119354292+119175134+119346510+119645835+119967617+120150292
4407+119907374+119249061+118597304+118264551+118114584+117874969+117519665
4397+117212876+117082626+117117522+117137631+116967930+116790961+117109591
4387+118101022+119149657+119321341+118394941+117179103+116498370+116071170
4377+115102148+113859719+113471446+114121585+114793059+114949170+115220736
4367+116159584+117307847+117790380+117325796+116431168+115755056+115435874
4357+115253817+115138560+115182809+115393514+115689500+115940246+115965611
4347+115690389+115204078+114602631+113992214+113600425+113621665+114015148
4337+114571906+115060733+115319223+115387070+115497370+115766111+115985374
4327+115875046+115450933+114966314+114565256+114282626+114322479+114933859
4317+115998450+117093260+117863296+118056296+117527363+116612093+116135378
4307+116581762+117540270+118299587+118670697+118896788+119028582+118794718
4297+118047626+117099125+116552655+116860304+117960231+119234264+119952578
4287+119927399+119641103+119624239+119881747+119993834+119582946+118698644
4277+117925241+117904010+118570825+119222208+119457353+119562687+119854829
4267+120216277+120466574+120656525+120749494+120461299+119757099+119222162
4257+119486890+120406350+121251593+121637153+121833380+122211149+122751904
4247+123137278+123116505+122780123+122488729+122499419+122746910+123028146
4237+123220295+123240292+122994981+122525682+122064830+121816339+121799952
4227+122010527+122506172+123130338+123473585+123416316+123314892+123431187
4217+123636664+123869471+124347355+125114426+125779857+125804652+124921893
4207+123512175+122595699+123027155+124575429+126105969+126744052+126609845
4197+126416481+126603093+127007050+127272695+127272480+127057491+126681462
4187+126237997+125950821+126014712+126309987+126466005+126356649+126376178
4177+126960014+127957525+128836373+129393478+129825691+130166974+130140786
4167+129664201+129089682+128788364+128836813+129171352+129635628+129892331
4157+129757891+129546288+129650658+129955109+130033422+129808191+129707104
4147+130098276+130697020+130866347+130608335+130669943+131383916+132083580
4137+132036740+131371636+130748602+130583147+130894687+131598774+132559126
4127+133395446+133614326+133080455+132180720+131489204+131336721+131606201
4117+131952385+132326544+133025290+134071194+134972350+135266718+134908169
4107+134114162+133228438+132673223+132705398+133200679+133759279+134026056
4097+133972285+133884199+133997576+134190090+134125535+133683726+133218664
4087+133317741+134177145+135257243+135744995+135382190+134693620+134386868
4077+134684145+135282702+135805977+136165367+136507688+136879481+137023574
4067+136645038+135881661+135302213+135346471+135886637+136399371+136514740
4057+136335274+136206305+136318907+136660536+137153581+137655699+138034946
4047+138409404+139042586+139846816+140298138+140037861+139303667+138601796
4037+138154646+137835567+137539740+137422060+137694607+138277498+138805861
4027+139043942+139194133+139631406+140358437+141004264+141404415+141766013
4017+142132465+142121297+141455838+140426882+139601804+139338095+139652946
4007+140286633+140887641+141331003+141708538+141920637+141701570+141201491
3997+140997071+141263549+141453462+141132447+140667817+140687205+141286445
3987+142167305+143143145+144061650+144565096+144384321+143714335+143044985
3977+142732369+142818809+143104189+143292372+143178060+142829622+142597105
3967+142871027+143793546+145180349+146629387+147698495+148132962+147992751
3957+147503147+146866739+146279237+146048975+146534556+147717154+148909592
3947+149406032+149387990+149476002+149601314+149156914+148060373+146896173
3937+146313001+146784516+148399047+150459138+151687884+151392674+150317692
3927+149891408+150722154+151979708+152500765+152421854+152872128+154175726
3917+155124423+154319295+151915050+149390375+148028994+148193766+149764450
3907+152761556+157119099+161845432+165111625+165818172+164243102+161108918
3897+157515462+155249230+155654703+158044208+159634206+158694581+157423821
3887+158472296+160869237+161871228+161789146+162676730+163464555+161820216
3878+159154208+158603389+160763024+164287866+168039949+170524228+169948549
3868+167371263+165627670+165110933+163968011+161586877+159622103+159815355
3858+163057530+169702152+178204512+182411565+177656462+169131710+162584135
3848+159693410+160410059+163784092+168222894+172667570+177065761+180768872
3838+181786165+179469436+175832750+172592428+169916374+167958578+167412098
3828+168235184+169633894+171927745+176252851+181225057+182885670+181163664
3818+179820773+179274537+176904777+172691121+169419952+169186856+172306711
3808+177002647+180680767+183436714+186979308+189989097+189354269+186196309
3798+183662814+181735303+179268121+177131307+176824397+178145869+179893372
3788+181701894+183969837+186676718+189668924+193332845+197450819+200436010
3778+201448569+202059603+204554377+210186009+218541265+227167478+233322207
3768+237038225+240095097+243404838+247842368+254907746+264720317+275018778
3758+283767890+291990688+302308997+316180188+332319528+346357839+355704404
3748+363675362+373781731+384582956+391250886+394210112+399277476+409919474
3738+425712640+443329984+458099216+467081799+471291414+474080789+477869293
3728+482720303+487110805+489972872+491801466+493081523+493492271+493703874
3718+495669022+500925916+510222835+523321502+537201635+546802940+550763839
3708+552299196+554850929+560498481+568881795+576301747+579426859+579918417
3698+581546295+585868371+592527883+600930278+610262964+618002341+620118073
3688+615714363+609097463+604593826+603718606+605941636+609743309+614200892
3678+619053285+622269122+621584554+619909649+621007322+623338211+622974116
3668+620088629+618094225+618812538+621860282+625994848+630383293+634761862
3658+638500757+640778185+642577559+646720357+655052866+665861835+673101834
3648+672125601+666010959+660229061+657315029+657141810+658041647+658630215
3638+659664736+662846864+667887403+672999699+677855946+683123651+686851174
3628+685808946+682425017+681340139+684362143+691065727+698365362+701482841
3618+700178130+699702921+703244205+708781353+712947271+714686113+713944455
3608+711327026+709565362+710995330+714737068+718134541+719712660+719931222
3598+719988238+720684553+721589553+721461603+720518293+721178468+725009397
3588+729530431+730582760+728320971+725898161+724353562+722901971+721309036
3578+719528143+717235751+715076471+714761237+717039936+720994101+725653186
3568+730210509+732752890+731810103+729076697+727571681+727885718+727854592
3558+725562199+721639760+718304841+717036195+717936780+720614442+724419707
3548+727638649+727718935+723954973+719308609+717517465+719592417+724000018
3538+728496210+730739293+729171574+724889379+721055981+720253415+723053191
3528+727995635+732503800+734531987+733991307+732469904+731150602+729857339
3518+728357336+727242828+726914050+727171745+728246746+729942863+730328358
3508+728422433+726652838+727413278+729296381+729323991+727002043+723949212
3498+721862213+722002508+724436692+727338678+729025293+729952066+731159057
3488+732406752+732640578+731237398+728987357+728123884+730141147+733594064
3478+735506349+735104543+734298760+734289706+734278108+733918353+734232540
3468+735013182+733911843+729855019+725754273+725714617+730030557+734162056
3458+733514002+728630370+723794849+721857050+722372514+723503259+724277990
3448+724691544+724372119+722887455+720994251+719682730+718739570+718033303
3438+718829434+721765914+725155080+727195689+728110865+728655062+728589441
3428+727941463+727973113+729328481+730337486+729020130+726334087+725242625
3418+726853068+729227543+729677012+727130741+722784123+719463944+719744086
3408+724001739+730374973+736223241+739300166+738823834+736263646+733848467
3398+732175545+730325215+728179479+727151542+728064025+729664367+730121394
3388+729184743+728418767+729319726+731679834+734180687+735568453+735154675
3378+733296787+731305339+730016116+728835089+726839675+724411851+723360270
3368+725430583+730290497+734928631+736651460+736050846+735268782+735197325
3358+735479712+735513906+734644672+732725654+730943788+730850631+732656441
3348+735427709+738097515+739355910+738216710+735979538+735548251+737676179
3338+740082080+740686136+739514612+737739780+736407084+735566358+734409649
3328+732813722+731902062+731972547+731477210+729418195+726984684+726075270
3318+727554845+730524323+732739346+732879567+732312998+733132099+735059798
3308+735709347+733994823+731809430+731504371+732868568+733738775+733124766
3298+732507092+734180687+738548705+742619297+742421461+738164482+734533409
3288+735073491+738912576+742596999+743590816+741992569+739732575+738401376
3278+737711795+736420852+734495398+733301277+733584337+734632476+735411696
3268+735485623+735185128+735342185+736042465+735892742+733941848+731752189
3258+731567598+733100523+734193781+733886178+733256457+733567801+734382488
3248+734149186+732894382+732851358+735432348+739081230+740845662+739105622
3238+734860989+731127781+730270219+731716947+733402140+734573814+735459883
3228+735771601+735723489+736727856+739285126+741893277+743120545+743152570
3218+742767748+742376642+741988977+741043722+739007378+736604171+735170238
3208+734659637+733792573+732194251+730970949+731221535+732699465+733854303
3198+733292148+731398046+729831075+729229488+728579265+726932307+724844410
3188+723542467+723409729+723991338+724682340+725020397+724907038+724719902
3178+724608339+723900726+722059150+719870165+718818510+719658936+721747357
3168+722982931+721358196+717554652+714334514+713270737+713723274+714122985
3158+713123108+710448065+707829289+707947736+711135326+714279218+714227515
3148+711248460+707729773+705231614+704370685+705393010+707019316+706616761
3138+703475038+699999449+698063820+696731124+694772897+693180636+693504999
3128+695256187+696457192+696036380+694606862+693083739+691651901+690357291
3118+689634039+689716271+690024472+689565051+688067443+686411431+685628021
3108+685754399+686088714+686232676+686324785+686621762+687285978+688055545
3098+687965756+686409710+684476849+683823633+684374040+684438988+682845829
3088+680050692+677581789+676915703+678306163+680479510+681988417+682565238
3078+682686977+682553116+681878276+680161507+677339808+674368011+672483486
3068+672067912+672910284+674739962+676519808+676529685+674325361+671289515
3058+668854133+667731095+668369795+670210698+671011243+669033936+665591195
3048+663512875+663485490+663680482+662827859+661650947+660949769+660383498
3038+659765076+659812739+660859680+661940742+661720833+659981093+657891924
3028+656697728+656314029+655594668+653890769+651695948+649931666+649224576
3018+649442539+649605507+648838333+647363546+645893473+644537956+643123328
3008+642033961+641833656+642204860+642089855+641047328+639664275+638444714
2998+637232036+635911388+634742782+633987355+634058513+635449048+637572412
2988+638610599+637404132+634591262+631495631+628961332+627323054+626696513
2978+627122824+628277588+629082997+628441079+626512670+624464728+623126720
2968+622523375+622130323+621133102+619215841+617272205+616501178+616970289
2958+617753699+618146340+618028604+617323160+615872429+613874396+611960652
2948+610746404+610481975+610925870+611204927+610175606+607699670+605145318
2938+603750144+603166290+602434808+601585814+601221345+601230773+601017112
2928+600377214+599439030+598363655+597524052+597219891+597012852+596086639
2918+594343495+592459082+590799255+588935905+586499963+584083662+582779586
2908+582904917+583633780+583912651+583295350+581897221+580219323+579072192
2898+578924489+579192958+578818425+577581916+576133318+574798901+573322580
2888+571727326+570406827+569359249+568228429+567034308+566012845+565047125
2878+564117732+563776346+564288930+564787447+564211337+562822486+561871993
2868+561852875+561960697+561473067+560776565+560409440+559877401+558348965
2858+556059641+554094643+553053799+552669464+552437359+551908538+550619840
2848+548519746+546350552+544975132+544469506+544307961+544091718+543607381
2838+542589808+541022089+539324625+537746281+535997862+533962715+532277784
2828+531599502+531607583+531331594+530350423+529091953+528018149+527185654
2818+526603670+526348220+526248292+526011922+525664813+525399149+525045417
2808+524098104+522315939+520095939+518154772+516899295+516242413+515986813
2798+515947792+515587850+514275244+512230633+510541100+509974044+510268702
2788+510586930+510213669+508969752+507300497+505795893+504558149+503316290
2778+502009259+500823406+499826073+498915012+497966540+496851321+495473581
2768+493906349+492419328+491347320+490831706+490577266+489981777+488687765
2758+486977918+485501933+484609317+484049070+483363530+482449401+481566287
2748+480879363+480180541+479060945+477338228+475359424+473720847+472595527
2738+471606686+470397077+468959552+467439497+466023147+464952299+464285428
2728+463755821+463112856+462382945+461597365+460608262+459428320+458388599
2718+457658501+456926720+455833686+454429496+452976408+451623360+450463022
2708+449586343+448906078+448170967+447279061+446425241+445865929+445639960
2698+445509691+445082107+444090798+442704266+441398993+440370047+439317643
2688+437998079+436626737+435496778+434598475+433858500+433345429+433006064
2678+432552629+431782874+430733575+429472187+428073159+426824903+426105654
2668+425961505+426018896+425849755+425306419+424559448+423915585+423482950
2658+422965615+421991927+420651487+419452128+418731794+418317530+417759714
2648+416753328+415353515+413917786+412883751+412509106+412679556+412934782
2638+412774022+411972055+410615640+409012192+407630487+406834169+406522264
2628+406255254+405789959+405231021+404663928+403979173+403136801+402329073
2618+401745256+401337501+400934049+400457605+399897021+399209049+398436638
2608+397775790+397339265+397033458+396757768+396482077+396120601+395621186
2598+395127945+394746415+394273900+393461533+392384100+391350739+390638599
2588+390388311+390535079+390787611+390844702+390643986+390280976+389718073
2578+388792347+387617568+386692777+386327447+386217680+385942887+385591138
2568+385477405+385531915+385403105+384981470+384508281+384259453+384273146
2558+384320809+384121327+383632089+383077566+382669661+382404558+382167291
2548+381938066+381801961+381770984+381713481+381544678+381352192+381219042
2538+381101793+380995355+380971935+380959290+380775372+380450859+380189909
2528+380010368+379795173+379659966+379852938+380277977+380481162+380178161
2518+379535308+378880858+378355292+377899125+377469110+377195440+377246433
2508+377501135+377562678+377259639+376873658+376643387+376377087+375858180
2498+375306650+375081691+375159957+375203281+374992575+374589198+374180994
2488+373917575+373826775+373811362+373767290+373710012+373706495+373713229
2478+373604136+373339744+373005205+372712043+372532090+372452403+372337847
2468+372055086+371677934+371417171+371315522+371201378+370969834+370694480
2458+370446326+370218748+370033520+369938718+369919824+369928916+369933068
2448+369886752+369771635+369670360+369667741+369690301+369560481+369189988
2438+368630938+367986028+367395028+367066587+367117617+367349123+367387695
2428+367087650+366593173+366043701+365488916+365048987+364891818+365046630
2418+365355654+365577658+365568080+365467255+365587423+365960646+366222531
2408+366144901+365985825+366028849+366108985+365954361+365683647+365562805
2398+365543725+365416299+365172859+364925527+364702064+364548599+364574264
2388+364698510+364568765+363860066+362490071+360488146+357860728+354684138
2378+351197886+347701272+344370281+341166978+337904451+334460476+330984513
2368+327910805+325793951+324983267+325228728+325779921+326210535+326989045
2358+329009563+332782915+338278947+345291406+353373702+361329845+367461248
2348+370549546+370616888+369032745+367336403+365608149+362961651+359152158
2338+354681855+350077205+345689546+341788656+338566534+336152403+334645666
2328+333997874+333837339+333685184+333517241+333796971+334741591+335963920
2318+337038622+337969324+338946267+340036644+341232150+342528705+343854554
2308+345068242+346087948+346937465+347657088+348255870+348723709+348998987
2298+349020574+348924275+349031872+349510598+350187571+350792862+351264293
2288+351735237+352265854+352674806+352738930+352495040+352152345+351792814
2278+351398490+351046666+350824176+350676810+350514404+350328465+350132276
2268+349920112+349716552+349585273+349567465+349622086+349642401+349556578
2258+349398250+349263940+349215529+349209992+349134307+348959517+348817650
2248+348859739+349102731+349456912+349798821+349992018+349960816+349792574
2238+349686398+349768069+350017159+350390233+350898215+351483191+351966369
2228+352240638+352371131+352421301+352357775+352192152+352056121+352085527
2218+352319390+352727632+353282229+353947679+354607817+355125302+355515248
2208+355897264+356269178+356533158+356721603+356966391+357282860+357587508
2198+357887964+358304324+358919642+359684084+360467607+361177390+361818186
2188+362451312+363098243+363690926+364144174+364467003+364738915+364994814
2178+365232493+365514544+365933298+366466047+366994755+367511866+368187829
2168+369150256+370305319+371517286+372857202+374484743+376387674+378476694
2158+380834558+383609230+386755741+390125080+393658582+397250598+400614960
2148+403543471+406131981+408589136+411012807+413443998+415939277+418526738
2138+421213455+424049296+427103549+430376027+433772414+437193082+440631521
2128+444144970+447735115+451255299+454404168+456878495+458616514+459763271
2118+460323631+460039036+458675700+456305304+453301744+450120813+447053054
2108+444200041+441626908+439352998+437249761+435150192+432965172+430571019
2098+427789538+424584663+421103874+417477851+413671502+409561552+405195330
2088+400929148+397173828+394046359+391384223+388981689+386717880+384605328
2078+382789118+381398995+380380299+379512637+378601800+377686774+377021923
2068+376732652+376538745+376015573+375118430+374229929+373656887+373309253
2058+372953838+372575601+372314539+372181800+372034920+371781528+371478864
2048+371269730+371301193+371683957+372443798+373453514+374495069+375525848
2038+376804633+378602811+380898981+383485994+386229764+389068336+391841549
2028+394228145+395863131+396522782+396210540+395120163+393543166+391683745
2018+389505572+386938425+384232591+381828112+379884588+378234413+376753490
2008+375474294+374335955+373112503+371689307+370246171+369031623+368039415
1998+367120124+366404055+366251376+366597102+366701594+365921925+364491695
1988+363153650+362329236+361935024+361691733+361382559+360962009+360529599
1978+360174745+359890001+359635075+359383066+359149764+359066597+359260541
1968+359543602+359464550+358854919+358049809+357410211+356951613+356567166
1958+356312277+356272283+356329487+356258179+356010361+355756594+355633658
1948+355676757+356062700+357000997+358112250+358439345+357596000+356326381
1938+355462348+355075656+354855336+354673587+354585744+354618517+354728209
1928+354957097+355551314+356608731+357641456+358088830+358193510+358462653
1918+358524644+357649275+356171682+355205513+355281572+355972088+356478312
1908+356358705+355809607+355283293+354971351+354801238+354721699+354796973
1898+355125451+355646902+356054994+356245160+356632039+357390158+357819949
1888+357282411+356185188+355231215+354593301+354242188+354200324+354314917
1878+354362430+354313458+354324569+354858403+356680749+359952666+363139433
1868+363822617+361545302+358365344+356227202+355518391+355638447+355867110
1858+355808672+355503875+355214417+355121560+355376711+356191585+357677820
1848+359901973+362849826+365556483+365992671+363666832+360763388+359215946
1838+359052156+359374087+359838260+361114314+363807278+366998946+368650617
1828+368219779+367102652+366051595+364676100+363136740+362280899+362354788
1818+362823787+363279018+363992168+365454722+367485977+369052499+369309071
1808+368625551+368147985+368769887+370700017+373390662+375697196+376715368
1798+376820870+377500611+380014184+384008155+386952641+386419630+383618994
1788+381693541+382000171+383840100+386192651+388690810+390990572+392583395
1778+393835355+396178702+400765245+406946106+411765465+412613037+410509876
1768+407937828+406310100+406572434+409087802+412510341+414827724+416095098
1758+417592520+419273298+420862454+423641241+428774750+434853139+438667308
1748+439092759+438012483+437497093+438431088+440713079+443370502+445305645
1738+447216583+451313064+457865503+462829422+462532332+459659004+457586633
1728+456802811+457231180+458987568+461724005+465480970+471529580+480744417
1718+490852395+496518802+495730116+492198783+489585507+489396052+492126129
1708+497521747+504054170+509795289+515113688+522304491+531363469+538236679
1698+540683733+540767611+539379097+537149482+536653173+539468624+544945950
1688+552381840+562634565+575313206+584452620+585189378+582451257+582088210
1678+585731779+592385680+599612360+605828651+612232751+619800107+626016098
1668+628087310+628462254+631283130+637024624+642796795+646381926+649249119
1658+654353483+663681005+677800725+693170086+700449368+699896716+701220956
1648+706580322+710928137+709836675+706507892+705700612+708411123+713957175
1638+721536053+728721581+730590542+726155481+721041390+719256681+720574037
1628+722794823+724297145+724884142+724066686+721249027+718228744+717679983
1618+719271795+719081966+714340574+707463099+701448796+696877555+693254862
1608+690057545+687102508+684610859+682787690+681421623+680170486+679151528
1598+678778155+678912315+678743212+677807534+676516890+675315062+674048661
1588+672471215+670699450+668904640+667098980+665653000+665759400+668762473
1578+674543100+679937558+680788160+678623942+678431195+681445342+684891375
1568+686554869+688120343+691827064+698183613+708035804+723325102+742090065
1558+752942432+752269761+750516104+752658174+757911364+765003959+773205451
1548+781972465+791454649+802170687+813956487+826139230+836274930+838332299
1538+832178524+826280498+824899616+826130850+826653797+826629030+828693806
1528+833432878+838954987+844003532+849375393+854944266+858464750+859560327
1518+860368205+861479421+862321868+863545021+866529388+872374588+881758603
1508+892699487+896936862+889071107+878325065+872947143+873508924+877704397
1498+882107508+883495125+881961526+881032956+883418580+888495483+892668360
1488+892797282+889855116+886977149+886144279+887551126+890180302+892960998
1478+895843978+899556984+904334067+908580346+909216951+905806759+902287772
1468+901999474+904777476+907724805+908172479+907377695+908913015+914241104
1458+920398919+921085582+915336532+909036924+905610196+905059489+906097302
1448+906816663+905999357+904328006+903294234+903556493+904909167+906974542
1438+909063636+909701139+908294817+906684672+906601692+907705949+908635118
1428+909002804+909543335+910592147+911965772+913888831+916497281+918436727
1418+917795632+915145730+912719926+911315174+910018694+907744708+904920540
1408+903403253+904113485+905482396+905438100+904382778+904239639+905586925
1398+907224156+907729744+906444935+903514217+900178849+898175877+897807517
1388+896955717+893280497+888056265+885165129+886511966+890901085+896248628
1378+901622584+907009036+911578331+913529899+912676677+911318990+911320637
1368+912614947+914796674+917963089+921497565+923864781+924379273+923829688
1358+923174976+923034605+923858571+925508147+927137297+928137847+928855861
1348+929817578+930759167+931332321+932292242+934789803+938619310+941976452
1338+943217713+942544818+941512093+941318597+942036611+943174015+944384523
1328+945465285+946151573+946243981+945822646+945332098+945454959+946658059
1318+948840160+951526278+954056536+955506781+955254848+953952306+953172113
1308+953712195+954712521+954716188+953216409+950867749+948694851+947408921
1298+947063308+947091666+946843474+946065600+944862126+943496059+942166207
1288+940727410+938811609+936315470+933450298+930416846+927443253+924896683
1278+922949306+921350535+919732235+917907345+915917842+914033766+912533015
1268+911251424+909587332+907211061+904491722+901948444+899647522+897413193
1258+895111149+892407447+888843416+884711918+881422492+880331404+881284815
1248+882618932+882742168+881633047+880589398+880688016+881807313+883032337
1238+883722366+884076061+884769981+886117941+887554643+888189452+887962959
1228+887799168+888432556+889646131+890914179+892171152+893687766+895746781
1218+898442252+901278617+903320198+904350828+905356990+907277131+909810832
1208+911927911+913190870+914299392+916218561+918876694+921252365+922883011
1198+924472504+926669420+929205216+931553502+933589845+935269052+936501034
1188+937644424+939378403+941915695+944722354+947244008+949598804+952245714
1178+955256643+958258520+960812797+962484746+963043758+963054009+963765064
1168+965902046+968914323+971438297+972289947+971657831+971276826+972625160
1158+975071391+976921496+978025978+979375958+980688451+981045138+981522368
1148+984099317+988238298+991144249+991311631+990244562+990501209+992994504
1138+996422056+999146858+1001000630+1002743587+1004753518+1006803479+1008431207
1128+1009426146+1009967799+1009914374+1008741054+1006935020+1006351465
1120+1008545389+1013523375+1019478491+1023107470+1022352268+1019722344
1111+1020072596+1024848033+1030689117+1033878204+1034435719+1034504782
1103+1035111458+1035933852+1036246243+1035410156+1033855681+1033814528
1094+1037050455+1041554504+1043260947+1041315515+1038870930+1039580414
1085+1044256559+1049967598+1052645111+1050902902+1046941853+1044187047
1077+1044435838+1046700021+1048534189+1048788891+1048840894+1050758117
1068+1054791895+1058864956+1060724564+1060830067+1061759235+1064559011
1060+1067391185+1068296185+1067649254+1066842274+1066027063+1064393873
1051+1062230852+1061130935+1061797994+1062909284+1062874491+1061930583
1043+1061926243+1064483214+1069066501+1072938285+1073741823+1071787637
1034+1069360187+1068321850+1068533752+1068226374+1066162944+1063369080
1025+1062131561+1063421382+1065724549+1066307056+1063853343+1060384862
1017+1059689520+1063148049+1068117056+1071131128+1071493802+1070411244
1008+1068363527+1065289296+1062058008+1059850691+1058634497+1057358818
1000+1055404856+1053250290+1051905997+1051609019+1051227041+1049997004
991+1049298519+1050803012+1053351677+1053719813+1050539705+1045648066
983+1041251241+1037711901+1034394716+1031217152+1028655617+1026716021
974+1024813688+1022631587+1020520794+1018928832+1017396281+1014294738
965+1008563047+1001641350+996138247+992918483+990761523+988136761+984238565
955+978891620+972763435+967547059+964634672+963553162+962503976+960539015
945+958433309+956983588+955950040+955268316+955512917+956562253+957383524
935+957636580+958024320+958706867+958779147+957805309+956638199+956024865
925+955422080+954018152+952187500+951187324+951838520+953774748+955670946
915+956254575+955485606+954433052+953599435+952082372+949329287+946691132
905+945939372+947020882+948002427+946948976+943758393+940280709+938582422
895+939093996+940525609+941239208+940416291+938395810+936217450+934516170
885+933138505+932169381+932406499+934159483+936408776+937834104+938206205
875+938408156+939302905+940622357+941112306+940029299+937857300+935306315
865+932606804+929937671+927710675+926449886+926603126+928080382+930051703
855+931614259+932620571+933578547+934573785+934509361+932176339+928422554
845+926045236+926932129+930243852+933376297+934071714+931953737+928523791
835+925683461+924515079+925205932+927201197+929493215+931479575+933363277
825+935246380+936420673+936369793+935658962+934936683+934088325+933223655
815+933604286+936458759+941238161+945662896+947784913+947770921+946892858
805+945431464+942853767+939529024+936870816+936068325+937309436+939417536
795+940360846+939581925+939129388+941006879+944358334+946311922+945322071
785+943055194+942508154+944463762+946660005+947002101+946102115+945396671
776+944797029+943625281+942267145+941726913+942515935+944258968+945764208
766+945663195+943604629+940642709+938365656+937972529+939431154+941647899
756+943656931+944954534+945154240+944064275+942004362+939890949+938760803
746+939155651+940964454+943419065+945261838+945926726+946509982+948149382
736+949907978+950464147+950802053+952428285+954483409+954971039+953552969
726+951556582+949714482+947381161+944390209+941754673+940477198+940497475
716+941504236+943838305+946939548+948343477+945848460+940508848+935561765
706+933232035+933703653+935437407+936549595+936573689+935654173+932901462
696+927516880+920591293+914243947+909736157+907527194+907650430+908911818
686+909184029+907296361+903807678+899665180+895406480+892015518+890547839
676+890882004+891393354+889969522+885283800+877962766+872642010+874958196
666+882291726+888177929+890052652+888350773+884974850+881995945+880261368
656+878992049+877293013+875370328+873010145+869732392+866423437+864659678
646+864856990+866266530+867547971+866713007+862561904+857168643+854528094
636+855435264+855716154+851361529+843335950+835094277+829224386+826503400
626+825293266+823294709+821048259+821205016+824079541+826670782+826276832
616+823474587+820724644+819741154+821096147+824311646+828835374+833835732
606+836561208+833929338+826478708+818851493+814993252
##END=
