##TITLE=<SNM>
##JCAMP-DX=4.24
##DATA TYPE=INFRARED SPECTRUM
##DATE=3/5/2025
##SAMPLING PROCEDURE=Instrument type and / or accessory
##ORIGIN=Admin
##XUNITS=1/CM
##YUNITS=ABSORBANCE
##RESOLUTION=4
##FIRSTX=4497.3318
##LASTX=599.83466
##DELTAX=-1.4281778
##MAXY=1.7540597
##MINY=0.19011281
##XFACTOR=1
##YFACTOR=1.6335954e-09
##NPOINTS=2730
##FIRSTY=0.20855626
##XYDATA=(X++(Y..Y))
4497+127667027+127956468+129362276+130688078+131171939+130964256+130372978
4487+129543451+128871274+128959362+129949002+131250458+132015531+131762468
4477+130682870+129484434+128838472+128978718+129817148+131070369+132113909
4467+132232318+131378791+130349025+130017141+130608428+131589886+132078334
4457+131655270+130866635+130504513+130512385+130221440+129490965+128905316
4447+128887720+129233314+129499886+129372666+128739283+127879636+127479987
4437+127995600+129026497+129652747+129295259+128126250+126913539+126529059
4427+127180914+128006783+127888018+126776877+125704148+125415674+125556057
4417+125377071+124811352+124448783+124675950+125240127+125566501+125273613
4407+124473147+123727202+123540673+123741815+123638339+122962868+122274672
4397+122197649+122722420+123469405+124098200+124240471+123635538+122578653
4387+121715841+121309734+121153178+121106074+121231725+121480501+121587955
4377+121264974+120394171+119209071+118283392+118102016+118618569+119363255
4367+119965524+120426671+120814581+120911617+120438365+119559353+118831232
4357+118588558+118696359+118973695+119446481+119998946+120225073+119943477
4347+119503428+119303845+119347985+119454828+119558058+119628131+119564990
4337+119258328+118601584+117604601+116662001+116376930+116948085+118057849
4327+119336437+120444368+120820866+120069630+118629305+117485088+117153241
4317+117336314+117593974+117900053+118344079+118738045+118912962+119037957
4307+119217764+119171982+118722912+118180280+117953807+118186784+118820532
4297+119531058+119748957+119315685+118948756+119457336+120664647+121679327
4287+121994810+121727982+121076036+120239795+119607653+119400344+119405041
4277+119410898+119476829+119594809+119605345+119493002+119372805+119321003
4267+119446536+119894247+120680811+121671081+122606465+123119487+122999656
4257+122486743+122122431+122281222+122841267+123288522+123261211+122962640
4247+122872618+123170432+123663487+124101812+124329088+124265428+123942921
4237+123528513+123223320+123136208+123284663+123629053+124005213+124160474
4227+124061558+124005314+124149427+124203829+123979399+123877692+124274404
4217+124776106+124787007+124428588+124178808+124043059+123797777+123592447
4207+123700886+124077758+124537419+125043773+125663647+126416935+127155756
4197+127599618+127637911+127448635+127174109+126779349+126363126+126198899
4187+126294878+126311361+126088983+125856489+125745569+125555318+125234262
4177+125161206+125635963+126385000+126842179+126817898+126715890+127022388
4167+127689622+128200537+128165145+127618928+126882324+126425993+126663549
4157+127530922+128411467+128743250+128608934+128512116+128616587+128542984
4147+128090329+127700102+127787899+128043534+127881889+127270206+126674267
4137+126493457+126909990+127937905+129218007+130040940+129968459+129311113
4127+128743095+128620445+128833683+129057675+129012395+128716934+128530669
4117+128765754+129359029+130049523+130643136+130935477+130662382+129803128
4107+128789051+128176693+128197718+128743013+129575697+130428593+131111836
4097+131593817+131802065+131481328+130568155+129492507+128774958+128575311
4087+128846499+129588905+130692302+131726474+132132453+131708395+130848492
4077+130161246+129891426+129869005+129895813+129925313+129943939+129916246
4067+129839304+129698037+129381167+128783650+128044948+127599645+127838570
4057+128679034+129557198+129895403+129586688+129053479+128835024+129110417
4047+129634057+130081905+130351451+130495218+130493905+130248987+129762025
4037+129177772+128659367+128336158+128343611+128743862+129359695+129825412
4027+129901733+129685367+129467832+129471290+129746254+130212519+130734590
4017+131192645+131451400+131291095+130597655+129653851+128980141+128851206
4007+129131616+129553357+130022933+130609823+131235043+131527147+131204740
3997+130495948+129887321+129567441+129422115+129459085+129900438+130840584
3987+132029068+133028423+133482446+133285481+132706418+132336095+132589861
3977+133190953+133493857+133343276+133162977+133193781+133193152+132964945
3967+132741947+132887164+133441161+134061665+134358311+134261777+134034902
3957+133969298+134153329+134493121+134922461+135563798+136506872+137401629
3947+137654582+137171798+136497313+136198167+136398671+136811646+137052660
3937+136972690+136796988+136887612+137340021+137847488+137962458+137569705
3927+137081849+137016730+137334384+137495537+137401382+137705062+138801171
3917+139962627+140079503+139162390+138292362+138198537+138625003+139078744
3907+139672575+140867727+142606596+144110627+144714839+144436555+143586294
3897+142525076+141835840+142104037+143225339+144144368+144061233+143782137
3887+144408241+145523934+146013687+146057818+146420934+146586174+145769955
3878+144778016+144869352+146115905+147863658+149618910+150783413+150777019
3868+150132717+149816604+149702765+149060452+147995202+147359593+147717255
3858+149282410+152245466+156041907+157998474+156063343+152475497+149803131
3848+148669542+148734196+149543090+150860938+152630137+154668526+156355748
3838+156889768+156317546+155567287+155109979+154688247+154177450+153906700
3828+154071109+154619269+155904151+158297939+160657686+160821420+159180664
3818+158235729+158478148+158291098+157083021+156092733+156588114+158841118
3808+161760991+163689409+164714232+166301243+168467044+169746106+170093643
3798+170698211+171604597+172245105+172974548+174529597+176926341+179836034
3788+183412177+188020349+193306883+198458361+203510321+209331168+216308737
3778+224032223+232167901+240753369+249941818+259701322+269058504+276249831
3768+280734203+283704774+286542662+290341976+295883845+303074660+310920943
3758+318586197+326531048+336287834+349257098+365158733+381039825+394250961
3748+406193305+419617450+434344320+446406669+454352323+461556055+470614082
3738+481676365+494003572+506943975+519351672+529494086+536516515+541475909
3728+546319639+551508170+554955405+554587435+551135822+547072690+544293054
3718+543153389+542789688+542046489+540027785+536530125+533081613+531736819
3708+532039331+531954682+530995627+530431103+531223669+533331620+536659653
3698+541096300+545811196+549716887+552418259+554235009+555862466+558319231
3688+562081967+566031370+568867232+570681793+572266232+573913793+575550152
3678+577015133+577236900+575325247+573025850+571955839+571056841+569169854
3668+567481537+566782925+566032355+564477726+562681482+561681525+561744866
3658+562124146+562234008+562918755+565208556+568306467+569958771+568613503
3648+565516213+563132385+562042269+561732241+562346606+564415115+567662767
3638+570900750+572983635+573656889+573775471+574595950+576853642+580225459
3628+583078215+583759387+582756256+582552915+585250383+590384037+595419579
3618+598906694+601691329+604839080+608701170+613064406+616864578+618938049
3608+619757469+621089820+623587633+626052023+626862906+625523257+623390385
3598+622805502+624919765+628500506+631607939+634136328+637375916+641574378
3588+645032304+646272416+646309925+647242235+649552214+651459597+651079113
3578+648645152+645802904+643592097+641979016+640694171+639817247+639571618
3568+639656413+639245280+638168701+637285283+637263464+637699992+637717433
3558+637148020+636506290+635976575+635131249+633760149+632354824+631250150
3548+630172111+629142381+629016429+630246909+631488190+630646585+627330885
3538+623569316+621957257+623353971+626625450+630119205+632667734+633686081
3528+633433300+632860823+632173557+630203563+626233582+621894646+619761920
3518+620301998+621278092+620470275+618278149+616607930+616042968+615496980
3508+614235632+612831912+612097944+612226013+612799220+612904886+611751064
3498+609664531+607768130+606774887+606887777+608071992+609601409+609979886
3488+608287410+605403786+603144488+602502321+602984311+603350018+602989054
3478+602505641+602714126+603396539+603614949+603186338+602800855+602355060
3468+600920363+598869952+597991094+598720064+599137071+597722041+595491567
3458+594285168+594218871+593869182+592327834+590061020+588140027+587484578
3448+588199610+589225947+589523241+589237878+588515257+586374103+582505883
3438+578824987+577657483+579371559+582283752+584227841+584238167+583023448
3428+581777388+580906339+580011099+578585743+576594294+574745837+574164019
3418+575252602+576987221+577987031+577943320+577150608+575331596+572482051
3408+570182471+569945855+570909580+570989450+569508670+567261923+565147988
3398+564000880+564498560+566228946+567737528+568003663+567193109+565804896
3388+564095417+562605808+562066022+562326538+562454023+562139616+561900117
3378+561885522+561657042+561161515+560831747+560522084+559278724+556711477
3368+554091872+553311711+554966606+557982458+560730424+562071897+561983161
3358+561600013+561825720+562109186+561647665+560919826+560826201+561116381
3348+560718091+559189806+557182777+555828533+555844186+556935798+558025257
3338+558178428+557427968+556713703+556798060+557234333+556962835+556020381
3328+555692584+556643137+557834723+557718877+555877572+553275735+551387836
3318+550986992+551456176+551500872+550637741+549585571+549236575+549731445
3308+550372956+550179503+548897540+547623020+547862994+549761839+551783097
3298+552546474+552429680+552629956+553209256+553088704+551818271+550354348
3288+549848933+550412435+551419944+552564681+554058523+555810180+557026942
3278+557047520+555991666+554335640+552585916+551320700+550819190+550745632
3268+550494822+549677518+548396212+547295405+546947978+547000008+546589167
3258+545819807+545806124+546813780+547317845+545779160+542810158+540503317
3248+540011147+540732600+541614121+542312222+542891341+543133613+542627541
3238+541410853+540218684+539800071+540107654+540359596+539885304+538735970
3228+537384645+536147160+535101193+534293120+533774935+533443087+532976677
3218+532197939+531387166+530912145+530686109+530213569+529108019+527561345
3208+526193272+525244944+524276877+522953574+521667488+520982631+520976465
3198+521468380+522283276+522999511+523032276+522157870+520594813+518665246
3188+516705614+515096035+514102099+513670752+513365066+512641971+511474649
3178+510539602+510368516+510428390+509529940+507250793+504487867+502377070
3168+501125646+500247446+499543798+499185206+498946035+498199005+496806268
3158+495243101+493751156+492199519+490880230+490518573+491120021+491519588
3148+490649560+488857621+487358014+486736353+486644223+486643895+486527320
3138+485865705+484175382+481757037+479627669+478460420+478080957+477934572
3128+477553869+476694204+475580664+474846404+474798278+475006982+474887999
3118+474379154+473850971+473523758+473142945+472398578+471502682+470843292
3108+470252790+469336498+468362519+468003672+468357886+468867533+468941674
3098+468234597+466723715+464884015+463442605+462795256+462797993+462968276
3088+462831816+462324467+461826459+461642201+461588383+461247158+460507316
3078+459651445+458951337+458380246+457701956+456640811+455094464+453462812
3068+452502480+452502443+452873258+452746649+451682986+449816760+447740699
3058+446208144+445540655+445338080+444986457+444307292+443536034+442912001
3048+442501817+442222766+441842062+441140422+440265943+439701638+439716452
3038+440036623+440126600+439644682+438692231+437743830+437179051+436828705
3028+436197265+435100363+433803987+432573032+431433513+430370434+429426412
3018+428592397+427871929+427418179+427282448+427028427+426006396+424208254
3008+422509940+421763785+421873611+422077426+421936040+421572558+421097464
2998+420407864+419563669+418837363+418317572+417817156+417174660+416389793
2988+415467553+414336827+413034723+411884623+411261538+411135112+411085964
2978+410791443+410258845+409680347+409280051+409116371+408867786+408081970
2968+406741665+405296095+404132130+403264146+402471835+401595350+400753454
2958+400198781+399872371+399381550+398579060+397821996+397450743+397293083
2948+396873303+396022723+395156089+394779290+394752764+394390961+393402461
2938+392327232+391842687+391982687+392166982+391800618+390852983+389882872
2928+389363957+389120080+388668665+387911017+387182193+386755152+386503393
2918+386044827+385171005+384074577+383075679+382296503+381803932+381766022
2908+382110932+382321862+381990416+381309171+380643360+379972076+379112849
2898+378152298+377335979+376727744+376172853+375527292+374814669+374114998
2888+373417225+372766666+372372098+372275882+372165947+371782252+371173944
2878+370384699+369373030+368342314+367636295+367294596+367125298+367095488
2868+367267815+367454883+367287408+366647211+365778279+364915840+364060991
2858+363210959+362533764+362183236+362114458+362080525+361712410+360840741
2848+359839580+359280675+359198835+359072080+358528865+357776179+357274340
2838+357141966+357008132+356476739+355576975+354624086+353823821+353177749
2828+352617020+352124996+351804898+351751007+351767426+351424049+350539645
2818+349405891+348422573+347698200+347076830+346423680+345811177+345433028
2808+345321889+345221441+344898971+344523193+344439237+344605982+344571721
2798+343973921+342798755+341262223+339727261+338608722+338087070+337953091
2788+337809296+337358356+336565425+335690363+335065453+334711860+334309338
2778+333616782+332728694+331854689+331040924+330191840+329268834+328415080
2768+327846032+327563770+327283917+326759601+326054640+325364639+324725609
2758+324041263+323295728+322628349+322177773+321861214+321413193+320699110
2748+319837182+318973212+318154923+317410629+316707091+315935468+315151768
2738+314617821+314437795+314392551+314185197+313661539+312860325+311976177
2728+311169236+310428007+309749498+309259773+308979700+308706852+308264705
2718+307662892+306987777+306322294+305743286+305257099+304758653+304131026
2708+303398243+302729441+302225814+301756338+301128930+300345741+299538744
2698+298786788+298161751+297769755+297589967+297454400+297264085+297045219
2688+296804169+296516726+296184405+295758512+295139952+294362783+293629892
2678+293071224+292567561+291918351+291164680+290614295+290444851+290416555
2668+290160783+289641539+289137876+288880407+288837881+288767936+288455555
2658+287946126+287435019+286942064+286326678+285596687+284934543+284446387
2648+284093067+283805989+283547188+283309258+283093821+282872857+282583700
2638+282159814+281587829+280988443+280561274+280344889+280163714+279929231
2628+279769711+279716750+279523170+278981560+278229239+277573535+277171469
2618+276993048+276959590+276993121+276981354+276777758+276309067+275705649
2608+275216470+274923700+274688725+274440342+274282828+274244280+274190279
2598+274051082+273882842+273671127+273301315+272769776+272290814+272114765
2588+272252174+272439315+272434918+272269834+272093968+271895644+271549074
2578+271067831+270644639+270456915+270521971+270700227+270774350+270598538
2568+270256511+270016446+270073749+270395800+270851228+271387000+271988794
2558+272533104+272824615+272812356+272643532+272433696+272108617+271547468
2548+270771869+269947797+269275564+268846115+268546667+268189042+267764573
2538+267455074+267360938+267345304+267230261+267068679+267068880+267249398
2528+267373417+267307704+267222416+267298455+267427764+267354754+267005794
2518+266562023+266245665+266112160+266076494+266091691+266190734+266333051
2508+266347974+266142517+265864068+265709911+265636317+265421793+264983459
2498+264484283+264141910+264009700+263922259+263670847+263266519+262926626
2488+262770463+262691961+262541216+262253044+261825966+261344139+260958821
2478+260726108+260552449+260354271+260132432+259869216+259522701+259136123
2468+258796450+258491821+258161689+257851788+257650619+257509597+257281336
2458+256919642+256535747+256262333+256110146+255960733+255712331+255412100
2448+255183765+255053106+254948261+254852210+254835170+254917175+254980388
2438+254875488+254593135+254274277+254037496+253853001+253642271+253452777
2428+253426324+253587888+253787817+253882975+253854497+253730880+253540035
2418+253362801+253304130+253382157+253516775+253618099+253652360+253656921
2408+253694411+253747554+253702840+253522266+253384821+253538138+253989553
2398+254435622+254573615+254434801+254310144+254373467+254493672+254406031
2388+253938635+253044435+251697106+249764036+246957692+242986306+237826198
2378+231807758+225410876+219005785+212761309+206730609+201000706+195754088
2368+191186581+187404744+184384258+182045291+180555080+180540321+182734417
2358+187417332+194366331+203377947+214609875+227665358+240247680+248932283
2348+251529340+248629516+243443193+239339050+237025222+235298722+233366838
2338+231093492+228370885+225145106+221681963+218624334+216687488+216084051
2328+216333073+216735085+216908999+216987756+217513476+219020708+221527405
2318+224436314+227003634+228949693+230602928+232435258+234569698+236818287
2308+239014646+241111615+243037259+244641109+245824175+246664210+247360487
2298+248061180+248781301+249473273+250109767+250686641+251195249+251628675
2288+252006368+252361622+252692356+252957287+253127206+253203937+253190364
2278+253063773+252769416+252271062+251662042+251175765+250995447+251063021
2268+251144787+251091498+250951937+250799860+250597449+250344176+250188195
2258+250225850+250343227+250379441+250295594+250120384+249878422+249614714
2248+249412121+249367772+249528368+249810812+250040934+250127390+250152657
2238+250251025+250440191+250634118+250803089+251031113+251386823+251821161
2228+252242565+252645781+253133901+253821622+254713980+255688615+256613317
2218+257471687+258358207+259363764+260506111+261786742+263247655+264893939
2208+266634267+268387457+270157395+271930306+273612329+275146890+276616705
2198+278170221+279878679+281694079+283531188+285351368+287158413+288938329
2188+290618692+292109816+293379191+294421746+295210025+295790730+296324404
2178+296899600+297448398+297872758+298075533+297963810+297582560+297068990
2168+296429723+295591439+294604983+293593040+292584691+291489923+290193475
2158+288695145+287133328+285646182+284307937+283140707+282107036+281242008
2148+280702678+280559285+281031679+283043780+287642994+294686385+302943436
2138+311456788+319993674+328476232+336822730+345095160+353365474+361657169
2128+370047233+378646621+387512837+396520476+405289089+413354056+420284903
2118+425663530+429348659+431718877+433407595+435065299+437492582+441664919
2108+448468756+458363790+471143141+485861728+500757568+513430633+521936177
2098+525822640+525700482+522454545+517045524+510128360+501916972+492587155
2088+482051303+469687646+455075528+438413472+420267827+401716632+384071002
2078+367988101+353586839+341090772+330599361+321890440+314812879+309186836
2068+304538255+300521862+297087872+294103381+291474927+289332168+287645147
2058+286227416+285097785+284280463+283712801+283634592+284403296+286060817
2048+288661103+292571903+298212851+306033830+316587669+330199284+346907167
2038+366673299+389020580+412702000+436129874+457613877+475308144+487950450
2028+495603481+499308495+500351506+499613707+497316754+493525412+488462360
2018+482249098+475026867+467124961+458619489+449243006+438884662+427680483
2008+415830815+403699725+391754316+380225221+369084675+358339061+348150892
1998+338739490+330295791+322929839+316563223+310921600+305794440+301226112
1988+297286798+293865396+290854853+288282534+286139957+284319139+282744771
1978+281390509+280205235+279113624+278052424+277036851+276204678+275669508
1968+275319491+274878146+274185317+273361847+272683995+272330803+272279284
1958+272394911+272513785+272479067+272257866+272004046+271912172+272040095
1948+272297637+272556967+272739546+272758137+272462137+271847226+271220766
1938+270894683+270846119+270863031+270878210+270990589+271239246+271501751
1928+271659392+271797658+272083605+272477079+272828063+273205537+273731312
1918+274175046+274199675+273940874+273853123+274136498+274636695+275129705
1908+275535346+275888247+276180561+276323078+276310526+276310490+276487250
1898+276833364+277219394+277534476+277809166+278195434+278707781+279074382
1888+279050757+278746074+278428657+278245056+278223547+278309437+278387245
1878+278408973+278450331+278620633+279045904+279884024+281120744+282283249
1868+282640437+282009416+281009696+280326992+280158022+280305337+280519423
1858+280713095+280944093+281258116+281602242+281917725+282242621+282728187
1848+283625762+285059109+286572234+287225238+286723436+285834362+285299101
1838+285250975+285496567+285923846+286712453+288055495+289618845+290668661
1828+291012622+291105900+291124526+290883549+290500219+290359526+290579505
1818+290974548+291414870+292004661+292893771+293987863+294925428+295430496
1808+295636081+295939067+296646601+297815163+299242982+300521151+301290165
1798+301654339+302221307+303584764+305675566+307464404+307878857+307320500
1788+307067610+307683762+308856959+310224045+311774734+313393689+314691998
1778+315618434+316752188+318703465+321347699+323621738+324561090+324472172
1768+324168164+324140252+324815184+326424288+328462002+330060269+331129551
1758+332176758+333310694+334519064+336293818+339073235+342338364+344855442
1748+346114236+346752682+347551232+348858444+350597842+352316077+353574726
1738+354737450+356722660+359567023+361634073+361559968+360394434+359437058
1728+358977361+359114551+359900987+361108992+362704778+365204889+368941245
1718+372980077+375310561+375276957+374337422+373875390+374366903+375845603
1708+378146971+380789344+383245744+385790660+389263619+393526516+396936425
1698+398618648+399249395+399074441+398506670+398796704+400555878+403371928
1688+406918480+411556096+417028713+420937177+421576973+420960894+421372319
1678+423468886+426867521+430576621+433812342+436793021+439854335+442432893
1668+444029737+445553498+448136726+451678024+455041413+457517297+459823663
1658+463143304+468189426+475159533+482762248+487297738+488397231+489891547
1648+493231292+496971188+499259822+500630302+502693411+506079822+510802161
1638+516826786+523538239+528882932+531490096+533181842+536277089+541377723
1628+547693294+554306341+561205700+568751460+576713898+584743290+593324836
1618+603021746+612575848+619221332+622385977+623586173+623750729+623242030
1608+622566587+622229084+622605190+624180178+627546157+633010418+640168542
1598+647926143+655151622+661380792+666812653+671724431+676086937+679768308
1588+682976518+686214428+689735476+693395611+697087271+701006974+705477481
1578+710528347+715432536+719292619+722833150+727774775+734966685+743943091
1568+753480226+763356397+774508072+787144832+800562045+814969509+831126661
1558+846226353+856660698+864250533+870536476+874546739+875760508+874997497
1548+873198625+871063492+869153335+867778951+866793662+864897954+860373447
1538+854468207+849607656+845829595+842311393+839285033+837403775+836277574
1528+835033593+833561570+832760685+833411026+835018415+836116594+836007352
1518+835381969+834964706+835058404+835864543+837399104+839537668+842219447
1508+844710691+844558177+840647231+836205038+833690660+832976103+833250046
1498+833853391+834264087+834338739+834528908+835132326+835719034+835721150
1488+835336287+835095621+834957190+834600860+834136164+834105004+834909757
1478+836480148+838437445+840127440+840395691+838443648+835594760+834091942
1468+834513729+836005820+837414356+838112713+838605139+839823578+841706515
1458+842537538+840466694+836828086+834170827+832864964+832422453+832605324
1448+832968441+832776010+831748615+830091385+828075198+826314565+825558850
1438+825571767+825075984+823648913+822318021+821448322+820283664+818329140
1428+816115486+814527727+813929782+814082735+814574430+815091375+815055691
1418+813632634+810906925+807981998+805753312+804445115+803711585+803109699
1408+802687036+802672952+802764534+802534886+802296554+802634495+803552429
1398+804615800+805309706+804926886+803094374+800716457+799174307+798690857
1388+798252213+797170015+796586737+798471863+803298408+809576616+815375461
1378+819830936+823195966+826101190+829071287+832285335+835482964+838257347
1368+840515222+842564466+844658807+846545320+847685386+847884385+847451579
1358+846753441+845904466+844908961+843974534+843552820+843929509+844888382
1348+845914318+846644418+847111595+847574320+848223420+849315835+851284735
1338+854092320+856896913+859113193+861219211+864008407+867776689+872491584
1328+877904837+883270657+887728466+891060439+893672164+896200041+899323748
1318+903341308+907832393+912165053+916129780+919734018+922804454+925262277
1308+927515117+930038105+932533510+934017938+934089306+933573748+933430866
1298+933674087+933787779+933525658+932849777+931615137+929766717+927541534
1288+925311388+923486319+922399743+921720797+920468716+918254114+915880795
1278+914305952+913620000+913419250+913401372+913385390+913708882+915246143
1268+917672880+918730194+917091718+914694098+914403518+916861486+920719161
1258+924483430+927309624+928927594+929301875+928291264+926119133+923960283
1248+922866190+922134776+919930536+915666325+910697263+906570242+903516809
1238+900681275+897281145+893495641+890288671+888361658+887517135+887177881
1228+887051636+886939038+886533305+885821229+885151332+884891910+885373755
1218+886753320+888555111+889847692+890249776+890317642+890832251+892084842
1208+893901228+896248860+899548361+903966837+908564391+911724439+912594795
1198+911862286+911189762+912136010+915118659+919099294+922500300+924427970
1188+925050654+925251769+926120446+928334610+931769330+935888032+940405826
1178+945089926+948886741+950366572+949560141+948190646+947675234+947931809
1168+948423359+949638807+952780903+958052952+963935351+968176064+969291174
1158+967448664+964684717+963923821+966403463+970227352+972690356+973701988
1148+975235674+977966345+980439638+981519428+982038343+983351357+985491453
1138+987690876+989935908+992667382+995566914+997901922+999660658+1001581250
1128+1004091249+1006320080+1006766533+1005545612+1004812154+1006051100
1120+1008098811+1009186701+1009784720+1011429325+1014122269+1017030047
1111+1020270365+1023908244+1026523762+1026805513+1025804681+1025487976
1103+1026214938+1027120613+1027484459+1027197527+1026967077+1027491903
1094+1028653204+1030483235+1033444795+1036457874+1036971900+1034995775
1085+1034407754+1037980394+1043362852+1046252095+1046115050+1045537027
1077+1045354885+1044233427+1042437255+1042505413+1045445810+1049048588
1068+1051208533+1052533076+1054456003+1056938563+1059110330+1060634237
1060+1061838520+1063751084+1067546367+1072221638+1073741823+1069512056
1051+1062947499+1059652815+1060455671+1061564066+1061038875+1061290415
1043+1064159298+1067441358+1068060757+1066748182+1066705054+1068920824
1034+1071439507+1072371598+1071583776+1069802345+1067714498+1065766541
1025+1064271240+1063997662+1065903586+1069209872+1070899065+1068932938
1017+1064761914+1061164244+1059654275+1060567393+1063193055+1065126563
1008+1063917756+1060442389+1057823660+1057394648+1058085416+1058581053
1000+1058389278+1057510238+1055912482+1053325788+1049759788+1046066888
991+1043427725+1042126534+1041273400+1039868585+1038358105+1038496099
983+1040752295+1042787163+1042170391+1039459204+1036424963+1033222736
974+1029409064+1025589263+1022442788+1019522532+1015974703+1011645254
965+1006877307+1001786670+996315039+990876610+986579707+984314827+983585529
955+982930226+981575253+979735297+977236463+973320263+968302090+963878505
945+961245691+960340308+960826093+962153118+963080904+962656416+961081282
935+958813555+956036838+953433652+951775984+950704659+949653693+949407846
925+950898185+953200428+954540223+954756662+955151522+956398714+957808563
915+958199701+956871218+954261391+951947545+951384116+952355467+953113079
905+952316426+950365478+948854633+949082602+950648834+951508317+950434073
895+948939282+948903525+949214976+947303799+943335861+940220765+939798904
885+941243124+943000182+944377047+944708493+942856351+938963503+935405749
875+934580054+936396658+938787126+940278925+940967357+940842354+938978900
865+935414798+932110555+930845850+931100820+930812866+928973640+926871490
855+926594118+928594542+931036968+931863612+931054408+929953456+929408927
845+929549037+930278261+931410300+932686535+933488442+932868239+931025876
835+930022781+931446860+934243135+936068131+935914229+934553929+933289005
825+933284408+935288335+938894543+942406250+943905784+942957055+941248597
815+941190073+943862876+948066299+951341280+952272496+951595009+950807989
805+950193479+948747289+946057629+943331993+941815894+941152710+940461213
795+940092039+940962614+943109861+945640220+947282782+947115308+945693710
785+944691564+944549776+944399742+944720607+947242063+951656745+954933988
776+954948948+952733397+950202236+948188384+946995339+946682283+946549471
766+946142351+946562387+948842227+951460811+951739862+949734110+948336593
756+949538541+952141654+953311275+952015118+950144514+949950185+951681483
746+954184331+956607418+958280483+958159274+956017062+953544425+952897734
736+954082168+955074389+954449809+952392757+949846636+948229833+948829676
726+951586836+954636183+955970578+955427071+954237893+953689497+954902683
716+958538956+963431980+965835729+962256448+954003210+946475767+943704085
706+945192381+947143840+946004285+941722634+937748347+937070569+938746188
696+939099818+936002090+930923859+926795817+924907917+924337848+922959669
686+919538230+915537454+913329930+912981117+912396963+910592984+909217724
676+909633235+909878280+905452944+892885290+874242074+861247379+865754007
666+879555937+887528373+887290698+884686563+883367420+881827969+878300500
656+874249956+872663291+874615772+877908048+879143271+877748673+876615175
646+877577696+879087374+879499091+879729322+880480658+879553018+875143736
636+869302347+865585803+865225971+866768267+868491684+869953928+871597293
626+873854877+875851725+875281437+870933672+864005488+855573829+846448630
616+840227706+840805292+847352846+856241610+866404786+877434157+883016563
606+876168942+862142545+853586540+855200934+860337325
##END=
