##TITLE=<SNM>
##JCAMP-DX=4.24
##DATA TYPE=INFRARED SPECTRUM
##DATE=2/5/2025
##SAMPLING PROCEDURE=Instrument type and / or accessory
##ORIGIN=Admin
##XUNITS=1/CM
##YUNITS=ABSORBANCE
##RESOLUTION=4
##FIRSTX=4497.3318
##LASTX=599.83466
##DELTAX=-1.4281778
##MAXY=1.7965075
##MINY=0.27177057
##XFACTOR=1
##YFACTOR=1.673128e-09
##NPOINTS=2730
##FIRSTY=0.293293
##XYDATA=(X++(Y..Y))
4497+175296214+175155390+174695849+174069051+173036345+171535085+170124117
4487+169518960+169937675+171196081+172992509+174746223+175727148+175755452
4477+175321775+174871426+174490010+174281338+174391882+174608640+174544373
4467+174280341+174299347+174696562+174943726+174626274+174028207+173764977
4457+174176744+175210786+176429685+176973014+176159881+174413221+173033958
4447+172918338+173892121+175086919+175583563+175040269+174038200+173467243
4437+173492181+173554773+173265162+172788914+172418382+172178538+171932301
4427+171630007+171333379+171155113+171233629+171557921+171798690+171580863
4417+170935665+170327177+170307049+171116228+172400890+173306184+173096800
4407+171825712+170352079+169545394+169438591+169442332+169329954+169447479
4397+169958889+170570565+170984649+171019596+170526034+169695178+169104681
4387+169104734+169416806+169475195+168944014+167871123+166574296+165514105
4377+165156914+165647662+166525045+167050402+166967984+166681579+166598235
4367+166602813+166391309+166090744+166100612+166354278+166318689+165805943
4357+165173159+164705425+164440395+164478318+164895501+165544725+166189282
4347+166558728+166316213+165448966+164598302+164489290+165113060+165846359
4337+166220275+166222894+166019993+165793901+165733393+165806530+165747340
4327+165502527+165222891+164728332+163763900+162777435+162461124+162667622
4317+162786591+162840758+163157533+163437561+163179852+162627313+162432624
4307+162695392+162983221+163044193+162961490+162836269+162796512+163099001
4297+163783298+164417008+164574558+164465582+164773575+165832821+167109556
4287+167629142+167009469+165910590+165232082+165086502+164956775+164667645
4277+164551455+164685992+164729828+164647482+164925496+165876034+167196588
4267+168282677+168675902+168304604+167496779+166669877+166017856+165589968
4257+165473725+165697982+166093826+166495565+166994685+167712789+168351914
4247+168350613+167636784+166841142+166508354+166502156+166457286+166396386
4237+166535946+166804716+166936082+166922046+167120493+167845544+168916013
4227+169751358+169994318+169791578+169335422+168666658+168115971+168170263
4217+168649326+168868667+168713718+168636911+168656380+168362459+167807764
4207+167517869+167736854+168209611+168535345+168457790+168028352+167622516
4197+167610048+167956836+168313777+168470205+168480180+168377599+168098836
4187+167691646+167290708+166930667+166615816+166488761+166735800+167410460
4177+168429290+169654708+170943092+172090777+172773666+172724415+172003692
4167+170979483+170085749+169588856+169337720+168846616+167990020+167324070
4157+167333743+167800248+168280397+168696351+169137242+169596373+170147807
4147+170868031+171433484+171342249+170604765+169727828+169061913+168654599
4137+168619384+169045241+169583298+169688961+169323310+169024988+169241337
4127+169808874+170091378+169537129+168245521+167092920+167046091+168205995
4117+169734543+170792917+171231082+171266404+170967905+170326607+169517322
4107+168859904+168636127+168949767+169590976+170074117+170021999+169525996
4097+168991822+168728271+168796456+169100067+169427316+169457436+168986211
4087+168272827+167949569+168368248+169193173+169844801+170096882+169982687
4077+169500827+168791202+168265524+168216771+168478114+168606648+168340051
4067+167857514+167533793+167511759+167736693+168170780+168591240+168596655
4057+168265185+168202094+168542702+168629270+168016917+167201272+167081199
4047+168023543+169496962+170512016+170511018+169755989+168796064+167912804
4037+167180289+166740164+166854448+167729693+169201028+170613457+171290041
4027+171161614+170723822+170445701+170435565+170537434+170539589+170425626
4017+170485119+170925405+171458528+171597821+171226718+170665772+170411643
4007+170867426+171988018+173171861+173785496+173742159+173374548+172928349
3997+172377948+171653627+170961279+170764150+171301566+172193198+172758847
3987+172734978+172406234+172093680+171916519+172003265+172461594+173103230
3977+173548004+173605520+173399913+173224568+173257770+173296868+173027118
3967+172710005+173097940+174403834+175869682+176691366+176955540+177223972
3957+177579970+177649563+177409310+177467859+178343799+179585675+179991226
3947+179182956+178419163+178918353+180082390+180421911+179725003+178971737
3937+178821632+179552544+181467994+184069985+185603965+184953477+183426799
3927+183066473+183990916+184578456+184118292+184001567+185544917+187870211
3917+188642572+186678459+183198605+180267371+178962065+179341040+181484399
3907+185843577+192256019+198948328+203407843+204534670+202566424+197823212
3897+191701717+187195444+186608421+189343826+191932048+191750469+190918099
3887+192646465+196116434+198023245+198173830+198592776+198175398+194932056
3878+191373275+191391960+195163634+200085949+204126963+206039884+205020270
3868+202943298+202611204+203556950+202768398+199319181+195821942+195170581
3858+198865537+207383860+218560194+224033748+217593715+206537436+198468250
3848+195101540+195867542+199485834+204353732+209401998+214243873+217703332
3838+217670361+214245494+210233799+207308603+205083860+203245448+202394232
3828+202672532+203646172+206143694+211632228+218351576+221218205+219540906
3818+217368852+215072396+210165293+203946702+200342001+201371412+206426946
3808+212503536+216399059+219056731+223411599+228230549+229248079+226698510
3798+223972046+221506427+218608911+216583328+216938613+219320657+222718610
3788+227056769+232545677+238566123+244670572+251730047+260291138+268863985
3778+275981065+282891522+291900932+303988261+318596053+333482395+345368639
3768+352796563+356543602+357746861+358398828+360662777+364032551+365905340
3758+365988274+367501789+373551678+384890728+399165002+410930159+417560125
3748+423285332+432116119+442557392+449639969+453654514+459862114+471150542
3738+487013498+504058161+517218095+524410397+528781937+534270346+542395302
3728+552914877+563991337+572802104+578301664+580832512+579607736+575054296
3718+571128848+571643269+576698945+582970776+585380251+581066210+572782938
3708+564874081+559621579+557802547+558630750+559657168+559425892+559398925
3698+561287246+564888046+569120543+573704905+579142085+584613288+586763878
3688+583787401+579200866+577215823+578875470+582893756+587426854+591516246
3678+594448228+593871928+589145210+585451643+586209202+587419515+582814562
3668+573324932+564951814+560757579+560241769+561166799+561848014+562609456
3658+564046342+565391637+566678364+570183868+577595582+586836196+591057186
3648+585479573+574681270+565311659+559792292+557400594+556867364+557851745
3638+560493671+564173878+567473757+569968090+573112965+577482260+579625583
3628+575882748+569976960+567688324+570358358+576533646+583526201+587841596
3618+588493243+588658648+590287943+591753578+592037221+593406954+597261117
3608+600239554+598783858+594954134+593086261+594460768+597605536+601596569
3598+606747114+612225334+615567641+615913771+615929374+618548002+622933899
3588+624355394+619965009+613073914+608131774+606651283+607878126+609695483
3578+609797227+607999321+606837315+608914804+614499827+621923155+628668189
3568+631509685+628335526+621188147+614579555+610857418+609117224+607824262
3558+607277423+608743592+611847784+614264918+614557967+614216967+615346127
3548+617311897+617147810+613342168+607864090+603704268+602183664+602582304
3538+603297719+603202458+601731230+598722513+595059833+592369742+591464341
3528+591848019+592847647+593991520+594400740+593508734+592201914+591769324
3518+592045629+591566940+589564833+587012360+585179613+583979311+582647518
3508+581281027+580301134+579186616+577275851+575183507+574134396+574600117
3498+576209996+577829067+577786317+575485070+572435099+570410049+569418828
3488+568567933+567874392+567800827+567714900+566277515+563322983+560154595
3478+557910704+556940252+557447333+559169715+560556477+559857094+557186276
3468+554446311+553219254+553277999+553057304+551534634+549506985+548424921
3458+548350073+548176047+547648623+547681362+548510741+549092812+548480103
3448+546671973+544215153+541882698+540514817+540243785+540014504+538730662
3438+536747508+535315716+534725202+534082069+533076064+532675821+533306271
3428+533672172+532550814+530585044+528903381+527324602+525603503+524990687
3418+526464231+528509835+528482974+525679668+521808727+519020846+518346400
3408+519300072+520539063+521219744+521529928+521781011+521655861+520740236
3398+519179875+517454287+515871019+514574566+513842870+513858189+514069123
3388+513414021+511713583+510154933+509855044+510685491+511709166+512161386
3378+511981018+511593101+511117725+510256962+509166704+508442169+508055463
3368+507640472+507716673+509126163+511378213+512730490+512016393+509895336
3358+508137186+507838937+508632690+509463564+509529185+508527562+506764318
3348+505113114+504399730+504863991+506105618+507228401+507444928+506804396
3338+506027422+505621514+505376274+504771581+503892613+503578724+504125028
3328+504489362+503738750+502393206+501258631+500090925+498380620+496529883
3318+495553018+495950910+497129197+498016928+498218314+498052481+497635174
3308+496809323+495719243+494673267+493798824+493204355+492952132+492895524
3298+492997162+493395766+493823298+493652905+492887829+492351001+492590506
3288+493249883+493828820+494416591+495220141+496117171+497240524+499055459
3278+501163620+502049072+500812468+498356930+496253257+495254305+495135177
3268+495196130+494793714+493869574+492961074+492455025+492142027+491789342
3258+491646345+491883249+491991904+491449554+490674361+490531506+490974927
3248+490985472+490100840+489140612+488841044+488753194+488241516+487445483
3238+486537802+485218371+483549818+482211790+481613723+481579381+481724765
3228+481527227+480542062+479026481+477808580+477362844+477517348+477833054
3218+477770961+476887290+475240148+473335653+471642910+470378697+469585621
3208+469169026+468946087+468710465+468255110+467485724+466624248+465988740
3198+465428257+464379039+462609169+460604141+459099176+458342615+457918004
3188+457368779+456763872+456343928+455969477+455358265+454508117+453509308
3178+452303876+450886227+449456538+448269346+447416134+446640265+445506865
3168+444023454+442798214+442284186+442181658+441773007+440611679+438912702
3158+437453123+436881098+436961467+436760081+435683646+434048117+432559112
3148+431597709+431119697+430935909+430887958+430853117+430677310+430111198
3138+428922794+427205934+425457226+424183358+423499186+423116150+422572339
3128+421603312+420463536+419719729+419548160+419438650+418839407+417855240
3118+416997825+416514577+416293525+416133392+415736427+414800210+413468987
3108+412348342+411850736+411872788+412119916+412262842+411906346+410990935
3098+410044458+409583047+409524373+409454015+409136029+408565215+407842532
3088+407142436+406594600+406147617+405670425+405154936+404680415+404179104
3078+403420512+402357187+401351396+400856854+400888809+400933269+400418100
3068+399225457+397759003+396565897+395845744+395293027+394492719+393480764
3058+392763176+392697342+392982874+392944969+392320148+391533555+391072394
3048+390832889+390373865+389564971+388546355+387346444+386070048+385142381
3038+384828136+384833016+384780826+384646236+384399108+383748993+382549083
3028+381047645+379616317+378507855+377770353+377183436+376474719+375724000
3018+375262233+375129638+374996508+374616607+374022209+373271811+372320739
3008+371195213+370074104+369150891+368524466+368196399+368083504+368056287
2998+367988849+367736662+367159222+366315416+365533881+365057722+364663428
2988+363894078+362663993+361372812+360434636+359924455+359706147+359629946
2978+359514059+359196999+358731242+358327722+358070333+357870051+357614052
2968+357142489+356240971+354895890+353406742+352097642+351110304+350534289
2958+350437817+350625559+350634252+350205402+349598108+349203315+349008733
2948+348700366+348135608+347467574+346938085+346670009+346500685+346051707
2938+345152220+344044470+343023538+342155970+341461752+341054634+340986341
2928+341104330+341074548+340572382+339598938+338553425+337841573+337472857
2918+337125267+336522213+335705232+335002036+334724200+334808951+334792065
2908+334289222+333444312+332690458+332205677+331865711+331556631+331258310
2898+330988988+330804844+330646741+330254051+329520040+328715741+328082156
2888+327534570+326972555+326500385+326192303+325932065+325534743+324902013
2878+324154215+323611081+323452836+323436556+323140586+322454847+321693797
2868+321248738+321193092+321245496+321081266+320608242+319942131+319229210
2858+318555405+317950142+317435900+317066935+316875417+316825043+316894868
2848+317063515+317105623+316667262+315706713+314603987+313759825+313322104
2838+313229765+313236605+312974550+312283004+311460644+310971232+310867422
2828+310696566+310110077+309359358+308915724+308834998+308858510+308860470
2818+308783984+308429447+307701456+306841406+306151997+305657241+305161916
2808+304522096+303786768+303106764+302555329+302079704+301619896+301223964
2798+301008114+300969746+300882074+300475133+299705391+298787841+298025616
2788+297601415+297409701+297152313+296717264+296294435+296000104+295649129
2778+295048551+294290564+293632933+293211671+292916414+292484073+291727672
2768+290745891+289908729+289530537+289484208+289249583+288457914+287270579
2758+286129806+285339348+284965110+284878418+284781091+284395489+283733387
2748+283061541+282581517+282256530+281943532+281575636+281184530+280791626
2738+280330821+279744528+279131142+278651402+278282419+277860605+277359117
2728+276893805+276492974+276108673+275787125+275585186+275389820+275027268
2718+274487625+273886780+273254317+272498326+271601937+270763368+270251620
2708+270133203+270195511+270149982+269898615+269584815+269349870+269090309
2698+268599418+267945599+267488837+267426476+267514184+267376637+266938845
2688+266403086+265958347+265684518+265595706+265579372+265387961+264860787
2678+264108518+263393192+262888800+262588876+262378192+262150336+261858392
2668+261480646+261036032+260675012+260609729+260836035+261038045+260891734
2658+260394984+259820304+259389923+259056297+258630992+258100968+257658813
2648+257371642+257080731+256742207+256549211+256572456+256599744+256450121
2638+256173068+255885683+255620190+255331559+254969951+254568069+254217611
2628+253922015+253596085+253210662+252797914+252388979+252066290+251936795
2618+251983712+252093561+252194593+252232622+252144647+251976623+251859828
2608+251803754+251686086+251463931+251232513+251074499+250959503+250801988
2598+250573046+250337888+250178004+250097065+250041508+250000077+250022200
2588+250116587+250186750+250126366+249951040+249764295+249628369+249548498
2578+249528762+249536065+249461040+249247292+249017726+248938871+248981229
2568+248951429+248775425+248624982+248704479+249004919+249339613+249570265
2558+249705799+249791637+249805085+249689928+249428123+249052977+248643578
2548+248319394+248158370+248090434+247956930+247711637+247466325+247303770
2538+247150655+246882953+246483868+246065331+245766511+245645601+245652370
2528+245676951+245610938+245415982+245194967+245124305+245244806+245398776
2518+245433154+245366624+245278436+245138146+244863640+244501729+244240030
2508+244213935+244349718+244424156+244281336+243995003+243789021+243771583
2498+243820567+243800795+243775128+243850474+243924716+243800492+243506749
2488+243287337+243242432+243171735+242853713+242342089+241886272+241648904
2478+241586080+241548318+241425698+241198323+240901231+240590335+240329313
2468+240164727+240105839+240120356+240104450+239903402+239478613+239007067
2458+238688618+238512401+238329130+238089928+237882093+237756997+237660615
2448+237565550+237527254+237531796+237448238+237237999+237042366+236963101
2438+236918998+236786029+236568469+236396402+236378162+236444121+236395654
2428+236146869+235808523+235512999+235304648+235215711+235304826+235567202
2418+235872737+236064790+236138105+236237462+236426950+236576787+236558886
2408+236424919+236314857+236301694+236376096+236494477+236617150+236740554
2398+236897944+237135739+237542127+238310730+239724495+242067352+245627789
2388+250833320+258305276+268683635+282353768+299289188+319089989+341160724
2378+364889574+389705688+414999601+440039689+464034512+486267375+506092686
2368+522800339+535673566+544450667+549378736+550277440+546302545+537312764
2358+524443884+508693074+489635688+466807644+443095930+424462157+415490189
2348+417521615+429458981+447445275+464854699+476296883+481139737+481765734
2338+480739066+479616105+478895774+478361938+477413752+475478512+472340905
2328+468059210+462785582+456726395+450017591+442631170+434489578+425601862
2318+416165597+406636851+397533036+388992767+380615411+371875359+362639697
2308+353184231+343837918+334776782+326106341+317982738+310548581+303753494
2298+297368750+291263660+285551047+280376474+275701412+271377146+267321632
2288+263570781+260225250+257359797+254952032+252901974+251130697+249642868
2278+248455391+247473147+246539977+245642449+244900048+244305454+243671442
2268+242897140+242112132+241516701+241189916+241036480+240861011+240533282
2258+240088828+239619758+239126659+238575688+238037595+237632204+237359372
2248+237112226+236840250+236597574+236449019+236390007+236324208+236128344
2238+235807757+235525076+235394422+235349713+235283861+235191237+235108427
2228+235033972+234966534+234958661+235091577+235400211+235822666+236223747
2218+236491662+236631222+236750012+236939304+237205011+237536979+237975875
2208+238554456+239217698+239852441+240395735+240883615+241373917+241862029
2198+242318755+242762745+243253369+243853876+244590006+245375762+246034569
2188+246469974+246755524+247015584+247287115+247524144+247679842+247759837
2178+247818671+247919792+248070235+248183931+248173653+248071856+247947721
2168+247739851+247329099+246746885+246186758+245840468+245749910+245775061
2158+245736070+245608926+245527434+245610048+245836229+246099299+246392490
2148+246859245+247620509+248792899+250720960+253763290+257793866+262381345
2138+267410498+273064259+279350786+286055368+293009982+300209801+307764263
2128+315732078+323998393+332428759+341035681+349840997+358703348+367323095
2118+375290697+382185746+387716442+391783533+394451501+395780872+395664557
2108+394024611+391135770+387568172+383902856+380456489+377056256+373204231
2098+368546375+362994875+356588026+349524365+342127008+334671190+327359082
2088+320272550+313326094+306539059+300178629+294399184+289054360+283977541
2078+279169385+274753421+270884759+267572537+264646094+262013199+259767580
2068+257999634+256653057+255508258+254324646+253124254+252128491+251375902
2058+250740767+250210904+249787700+249373136+248987018+248775728+248779184
2048+248955544+249311007+249883477+250709186+251734571+252798787+253938759
2038+255502558+257703486+260369744+263228749+266083158+268782921+271323798
2028+273817222+276251492+278466314+280325406+281831617+283155038+284421887
2018+285363501+285443977+284469589+282828396+281073987+279450303+277819566
2008+275958034+273827678+271531739+269186371+266941392+264936133+263145743
1998+261481162+260117129+259427061+259386022+259295321+258454205+256935311
1988+255337776+254106979+253381268+253083001+252949391+252758478+252538834
1978+252386236+252266946+252133906+252035101+252109913+252593179+253566588
1968+254561799+254819312+254202738+253420473+253135494+253325498+253648204
1958+253985641+254374253+254725637+254915267+255020502+255303077+255960602
1948+256988962+258362738+260094169+261741009+262282700+261285351+259685661
1938+258639685+258375813+258531706+258827017+259154675+259488870+259852669
1928+260357774+261359059+263146385+265265002+266900994+268070891+269218433
1918+269830037+269079781+267618243+267012232+267880156+269540783+270928542
1908+271508440+271530225+271552259+271815828+272182014+272533006+273019408
1898+273853542+274871517+275583316+276010901+276897083+278364356+279163578
1888+278309672+276582428+275228957+274486040+274051847+273819734+273725685
1878+273623246+273513807+273624119+274481854+276880268+280974683+284986948
1868+285929203+283092570+279033441+276275824+275284353+275222046+275273755
1858+275166169+275010988+274988704+275180721+275691348+276720028+278448555
1848+281143259+284963062+288735466+289739013+287093293+283501862+281517194
1838+281204480+281346658+281509873+282732797+286058467+290524804+293435180
1828+293691375+292811944+291728972+289908426+287605148+286167942+286134633
1818+286743013+287232995+287884891+289454229+291810410+293635391+293869748
1808+293043291+292586440+293544886+296148605+299650101+302435167+303280826
1798+302835695+303156816+305826637+310345769+313531684+312357352+308390865
1788+305581004+305536652+307232386+309306598+311377496+313127059+313953267
1778+314380834+316325763+321255684+328279197+333623504+333959551+330492878
1768+326290413+323188929+322509139+324806289+328367368+330439156+330901672
1758+331510212+332499688+333619443+336369240+342176276+349332669+353710728
1748+353745711+351904022+350900439+351687638+353889386+356262274+357564427
1738+358734484+362658079+369985292+375611390+374037741+368144957+362640445
1728+358859954+357175441+357649143+359451858+362390787+368088135+377730346
1718+388367376+392944007+388939722+381601288+375855491+373480144+374844818
1708+379507305+385560330+390523845+394704365+400919660+409350240+415294111
1698+415893068+413019582+407435022+400707622+396801768+397467629+401403229
1688+407563698+416997184+428908865+435524902+431358275+423299118+418551916
1678+419071716+423767583+429434008+433466473+437062926+441749958+444835483
1668+443167429+439907343+440092734+444079919+447902661+448583128+448319149
1658+451316894+460239665+475702627+492858439+499166394+495372081+494707787
1648+500024094+504700581+502622023+497551955+495584332+498394763+505798640
1638+517355713+530232253+537458149+536189233+533296937+534807851+541261297
1628+550159415+559378191+568987520+578930083+587425001+594322687+602640515
1618+614166737+625379319+630867301+632115304+634038609+637994730+642436985
1608+645875906+648299738+650459377+652777119+655229165+657883560+661122698
1598+665331540+670606059+676632685+682790553+688606211+693931601+698631209
1588+702689430+706486023+710230746+713535078+716349926+719971531+726286147
1578+735730534+745305379+750407332+752342535+756750662+765622917+776053323
1568+784454050+791606986+800323989+811782453+826929068+848121263+874261796
1558+891867797+893098843+888781774+885234981+882414646+880006703+878149731
1548+877177819+877970111+881324460+887373174+894933372+898579985+890682778
1538+875784395+864866714+860062156+857541496+853597702+848870307+846329270
1528+846621820+848068966+850025188+853732078+858424561+860288871+858342695
1518+855545731+852720836+848744196+844676499+843578475+847688209+856827506
1508+866700245+867791001+856807414+844562571+838319275+837839981+840663521
1498+843160598+841940524+838000221+835983935+838198508+842608130+844953801
1488+843084646+838884639+834956662+832302125+830811161+830403472+831671995
1478+835177107+840478843+846234722+850206019+849393990+843600562+837322924
1468+834552535+835250708+836093944+834515557+833020959+836070218+844745896
1458+854534275+856605565+849124810+839892390+833941287+831831309+832213633
1448+832429447+830354666+826741967+823914579+823103334+824396296+827661583
1438+831794544+833731885+831711824+828523415+826823263+825698022+823289651
1428+820337648+819188182+820319266+822305413+824548627+827600023+829959161
1418+827865997+821337561+814840119+811183958+809807706+808832516+807472579
1408+806572629+806744482+807091324+806803263+806829696+808325363+810926035
1398+813666499+815993931+816818856+814782051+810879510+808104205+807876349
1388+808621689+807881194+805981758+805923761+809279748+814597230+819805771
1378+824657568+829880787+834851925+837756548+838325545+838512290+839891962
1368+842429793+845732272+849672575+853309427+854679623+852915347+849563777
1358+846802865+845508691+845160211+844861747+844336568+844012882+844369272
1348+845265589+845874272+845679761+845510544+846734252+849483052+852418596
1338+854387929+855614842+856802783+857948330+858732358+859489810+860990108
1328+863540336+866913708+870821664+874896129+878630593+881751742+884254590
1318+886238314+888230446+891057478+894887630+899001211+902697343+905972818
1308+909295959+913027573+916948853+920276198+922405271+923631187+924809224
1298+926252166+927316489+927397357+926885216+926398583+925617405+923957438
1288+921947137+920718870+920442209+920116599+918835749+916905747+915338190
1278+914409312+913388522+911799305+910227331+909571338+910065167+911188841
1268+912247606+913150834+914574325+916991958+919787854+921947066+923331085
1258+924569897+926150921+928157730+930443338+932709495+934666216+936161883
1248+937009892+936935437+935802501+933654974+930786546+927994569+926150493
1238+925266645+924425974+922765793+920243494+917520344+915187355+913155323
1228+911203732+909886688+909904714+910874204+911826665+912518354+913246950
1218+913853353+913865822+913226430+912344434+911894637+912515290+914160010
1208+916047833+917714854+919607594+922187818+925051187+927441745+929232669
1198+930867200+932802119+935341517+938322733+940770932+941883847+942374470
1188+943810715+946587872+949423596+951066820+951819570+952966969+955007337
1178+957185074+958995092+960969554+963293210+965239528+966709687+968610264
1168+971049984+972677106+972568094+971681468+971913812+974333297+978308156
1158+982081380+984308207+985170894+985973233+987781328+990551004+993365283
1148+995186202+995258663+993396205+990769811+989886105+992430634+997427066
1138+1002204834+1005082097+1006680077+1008281834+1009518224+1008813069
1130+1006244102+1004101064+1003965690+1005365883+1007672794+1010994297
1121+1014909306+1018381430+1020932442+1022720017+1023929617+1024921693
1113+1026101796+1027511109+1028638701+1028476252+1027073851+1026906487
1104+1029760950+1032952208+1032246697+1028330049+1026356370+1029295193
1095+1035658259+1042857222+1049421212+1053978606+1055620191+1055999522
1087+1057857207+1060701125+1060787479+1056453024+1050260600+1045370401
1078+1043233205+1044196853+1047717212+1052468475+1057109160+1060344878
1070+1061165599+1060191407+1059408020+1060217270+1063049503+1067594500
1061+1072067107+1073741823+1071886989+1068939545+1067659123+1068485331
1053+1069455034+1068740831+1067112498+1066700677+1067842234+1068843216
1044+1068692025+1068119465+1068161360+1069035091+1070009853+1069871131
1035+1068214227+1066539368+1067083784+1069518090+1070010209+1066457289
1027+1062430418+1062487774+1066315503+1069543811+1068573965+1063824768
1018+1059162210+1057798497+1058443446+1057332669+1054020215+1051839914
1010+1053587945+1058997766+1065327488+1069050908+1068253129+1064888734
1001+1062750256+1063171625+1064778512+1065766883+1064472353+1060157421
993+1054562850+1050672564+1049835669+1051251038+1053457915+1055188206
984+1055361413+1053438892+1049865024+1045953221+1043233276+1042521780
975+1043528819+1044356523+1042344655+1036915169+1030403904+1025934717
967+1025025717+1026320176+1026539909+1023849319+1019909871+1017236025
958+1015739931+1013427462+1009247120+1003787425+998479063+994907190+993576608
948+993243446+992408760+990900340+989012588+986184488+981888223+977070840
938+973397936+971836577+972559331+975108205+977722059+977894696+975602533
928+974128313+975734416+978577123+979670016+979144695+979179180+980187429
918+980487460+978994786+976412282+973981397+972276257+971051053+969551254
908+967220973+964606834+963151423+963707525+965650495+967525706+968287932
898+967922708+967088022+966196977+964919120+963071695+961440085+960746615
888+960414522+959373854+957783924+956951803+957569321+958429230+957643492
878+955379330+953906392+954659640+956778525+958399448+958063792+955503090
868+952321806+950948048+952179735+954701464+956956078+958389188+959004426
858+958903608+958423174+957820903+956691316+954299332+950913563+948374378
848+948632942+951604112+954881867+956062326+954865337+952480692+949901395
838+947750733+946674725+946753954+947203538+947613293+948623324+950398003
828+951802969+952135347+952059965+952109056+951925090+951394140+950991082
818+951130945+952121311+954362103+957671992+960860187+962791187+963759964
808+964908860+966094307+965781593+963579775+961271652+960449577+960589083
798+960476723+960310498+960859759+961470794+961011663+960231482+960869022
788+962832511+964353899+964469679+963521208+962240928+961551020+961757929
778+961756290+960826557+959679656+959122557+959717347+961878625+964715632
768+965787436+963771079+960437037+958475328+958763674+960410817+961949304
758+962971519+964816378+967847611+969334870+966843993+962368393+959996716
748+961146039+964091559+966416995+966608656+964814027+963037139+963315582
738+965717469+968979051+971640784+972436069+971455536+970058336+969068540
728+968114084+966921583+966076922+965934494+966598610+968531676+971025760
718+971856028+970409952+968463562+967237004+966262527+965628479+966851830
708+969974475+972556766+973459566+974134583+974999621+974544267+972829223
698+971872986+971373243+967951706+960416303+952356006+948097290+948217772
688+948881104+945796862+939795030+935998009+937255418+941272314+943653254
678+942007536+937194784+931963087+928661392+927070180+924633096+919588000
668+914371407+914173975+917513148+918097178+913920328+908514211+905826401
658+905516110+905590922+906540462+909741339+913544416+914201762+910022275
648+903505880+899123831+898347926+898415755+897125786+895313915+894485712
638+894978401+895460617+893733176+889222950+884223881+880280229+876574764
628+872853553+869991609+869145523+872082920+879166246+886379887+887823612
618+882255190+875018251+871894251+872755371+873300215+870496695+866065555
608+864123440+866401496+872077006+879023889+883866494+884976844+885174918
##END=
