##TITLE=<SNM>
##JCAMP-DX=4.24
##DATA TYPE=INFRARED SPECTRUM
##DATE=2/5/2025
##SAMPLING PROCEDURE=Instrument type and / or accessory
##ORIGIN=Admin
##XUNITS=1/CM
##YUNITS=ABSORBANCE
##RESOLUTION=4
##FIRSTX=4497.3318
##LASTX=599.83466
##DELTAX=-1.4281778
##MAXY=1.8492105
##MINY=0.38055924
##XFACTOR=1
##YFACTOR=1.7222115e-09
##NPOINTS=2730
##FIRSTY=0.39341134
##XYDATA=(X++(Y..Y))
4497+228433814+228039838+227739965+228071281+229319087+230610172+230719884
4487+229715018+228781950+228659259+229173226+229954896+230735319+231122858
4477+230823227+230210019+230272627+231607752+233475827+234390259+233862345
4467+232879993+232457724+232570256+232705492+232614210+232292758+231876927
4457+231654527+231780834+232035230+232083631+231871476+231651083+231695799
4447+231933184+231968140+231686160+231492486+231645701+231900928+232119192
4437+232503685+232945318+232902229+232062398+230578124+228954720+228052263
4427+228511149+229926706+231200452+231658092+231273132+230246116+228983272
4417+227999605+227519885+227566798+228286101+229649416+231065268+231753769
4407+231419097+230389555+229269371+228591096+228652268+229425234+230418817
4397+230854635+230429615+229738864+229494280+229638860+229745076+229896354
4387+230483917+231321914+231558451+230514252+228398495+226169341+224741099
4377+224412794+224910563+225566757+225583369+224727791+223632405+222895052
4367+222416526+222201464+222853867+224415009+225649525+225435397+224216438
4357+223413553+223877353+225220421+226392536+226817609+226869973+227085693
4347+227304043+226999429+226109241+225073539+224342503+224142149+224411150
4337+224665685+224247050+223164158+222350370+222540860+223332947+223925927
4327+224250286+224580650+224688614+224368598+224164005+224586481+225185829
4317+225269393+224933579+224537596+223829800+222515526+221220392+220971256
4307+221899410+223150210+223962440+224296853+224458479+224554243+224381905
4297+223708805+222690200+221966639+222139842+223152010+224350670+225185864
4287+225716616+226293034+226800858+226595676+225391547+223794238+222614094
4277+222071886+221922616+221888664+221787224+221603120+221497076+221529229
4267+221550929+221579153+221919466+222647994+223331892+223567063+223475625
4257+223388167+223380362+223406648+223523368+223759508+224098714+224532854
4247+224824801+224678577+224514165+225209744+226668598+227704387+227706031
4237+227184485+226499376+225528444+224669509+224659005+225278409+225552117
4227+225292685+225217843+225493472+225430742+224784014+224203304+224214136
4217+224725767+225573056+226555581+226995241+226269552+224829699+223879083
4207+224085113+225112474+226164513+226557675+226084946+225234057+224785087
4197+224971372+225249251+224984749+224163018+223312372+222874702+222773885
4187+222720915+222830471+223540240+224847090+226055095+226521647+226364780
4177+226159321+226154597+226187735+226270781+226699937+227473923+228136035
4167+228358833+228221209+227797798+226973714+225869520+225079284+225159370
4157+225942701+226684882+226967571+227065308+227316710+227622986+227771010
4147+227839191+228026098+228273123+228241455+227738754+227062591+226678254
4137+226612167+226470736+226070098+225724316+225821049+226351801+226987523
4127+227436268+227492197+226924759+225739735+224419682+223491406+223065884
4117+223092776+223619582+224498920+225337418+225952496+226496226+227064183
4107+227425747+227216707+226485255+225951302+226290421+227234409+227902958
4097+227825156+227075518+225846331+224537838+223782679+223846083+224373236
4087+224952960+225434982+225651498+225438979+224984852+224717426+224856659
4077+225265777+225585463+225472983+224973518+224603198+224804434+225459105
4067+226174965+226782688+227231537+227282932+226701996+225658541+224722773
4057+224442074+224851606+225341537+225241775+224650872+224353041+224796785
4047+225589720+226212100+226733231+227407646+228019246+228147837+227722955
4037+226957742+226124089+225671450+226067814+227171870+228220205+228696222
4027+228737269+228567354+228146314+227574706+227268309+227440283+227812680
4017+228011736+227886121+227369836+226523637+225866024+226150444+227539889
4007+229338762+230714865+231383830+231528860+231422523+231202875+230806736
3997+230159575+229423694+228899985+228819518+229310660+230212632+230908989
3987+230893069+230444947+230231580+230431899+230663505+230586188+230324420
3977+230376386+231106591+232271335+233227644+233608848+233484601+232981727
3967+232278395+231895789+232348964+233370944+234034786+233844936+233210114
3957+232737748+232674517+233121427+234247305+236103941+238279088+239797037
3947+239960670+239444385+239531359+240240764+240341079+239264659+237729543
3937+236641771+236591674+237853843+239915557+241415856+241438283+240643427
3927+240369770+240972198+241531001+241321770+241134568+242319247+244781253
3917+246520841+245624891+242510654+239275024+237466806+237445435+239356408
3907+243635424+250104641+257074776+262161038+264049549+262493339+257678813
3897+251328878+246796106+246623060+250186319+253359392+252634879+250261802
3887+250546170+253604374+256127570+256945545+257400537+256792329+253858009
3878+251049459+251431529+254515431+258100892+261618830+264743173+265681156
3868+264672795+264358940+265035363+264080473+260381995+256265280+254548050
3858+256845939+264109285+275501165+283957150+280775130+270055278+260467826
3848+255798452+256391034+260667142+266222100+271472843+276095962+279355212
3838+279486105+276249247+271858166+268095003+265175479+263207002+262802834
3828+263895555+265676155+268672391+274591510+281992930+285079826+282212509
3818+278030504+274383265+269452988+263818722+260543932+261382015+265952407
3808+271852629+276274442+279703053+284334963+288687852+288780328+285381256
3798+282200517+279625546+276633878+274268553+274127018+276110273+279261542
3788+283249613+287933160+292494363+296526216+301023979+306600967+311877995
3778+315590299+319074874+324753405+334105894+347276591+362457504+376339044
3768+387394382+396622173+404639467+411843787+419625737+428013663+434004890
3758+435336173+434578782+436356008+443002771+452665255+460087822+463374327
3748+466946394+473983897+482243352+487327260+490615946+497120499+508592154
3738+523243197+537251961+546863535+551022404+551999080+553328564+557439845
3728+564436509+571810518+576314443+577332996+576413702+574502573+572313773
3718+571340558+572943075+577612813+584251893+588530095+585429372+576429484
3708+567298911+561845583+561467510+565161090+569016193+569357649+566929733
3698+564902455+565284438+568647257+574798449+582593550+589123507+590371867
3688+585839770+580078003+577160399+577982026+581382153+585931693+591691452
3678+599418962+606343396+606803701+602151164+598507905+595935599+589748690
3668+580067690+572095907+568546682+568142826+568101433+566900522+565018984
3658+563314058+562208185+562807342+566802786+574699085+584142804+588898338
3648+584052127+572849768+561776087+554352482+550499352+548445217+547317990
3638+547797261+550003019+552371684+554171198+557451508+563455576+567518196
3628+563738922+556152065+552466860+555056333+562066494+569760848+574306407
3618+574780521+573764459+573639312+574922939+577274956+580012799+581965321
3608+582194781+580926833+579228793+577924920+577034317+576594329+577866603
3598+582240812+588499292+592997125+593994913+594011180+596341636+601092879
3588+604559768+603250634+598722691+594995816+594015194+595524855+598366353
3578+600860996+601286206+599195593+596136125+594833152+597575667+604454348
3568+612200477+616021628+614611988+611026666+608340633+607057387+605902957
3558+604416416+603953273+605407559+607523091+608658832+609167036+610570930
3548+613108627+615132859+614780259+612056364+608771243+606505852+605324150
3538+604361941+603119395+601922673+601242529+601031758+600940874+600571315
3528+599307935+596763662+593773413+592217446+593116804+595231575+596167135
3518+595074933+593669101+593695404+594473630+594522568+594280925+594875514
3508+595272414+593596629+590445100+588057954+587141844+586663612+585831949
3498+584580197+582913964+581143072+580269047+581002073+582572300+583490141
3488+583472213+583460723+583497132+582199557+579008124+575342854+572772763
3478+571366134+570561432+570373191+571005332+572033126+572653326+572406526
3468+571474496+570607947+570283138+569555407+566896958+562764392+559652076
3458+558944210+559472730+559804703+560156403+561177068+562707875+564246884
3448+565114229+564403976+562009077+559095246+556937386+555822480+555166979
3438+554342688+553415191+553096404+553786654+554875603+555298944+554433191
3428+552343235+549861433+548187758+547719563+547645776+547126774+546439743
3418+546301859+546494495+546246208+545718865+545656499+545707063+544869274
3408+543539271+543118629+543580456+543354007+541692861+539567777+538206314
3398+537862781+537818689+537309308+536423862+535667959+534823525+533197335
3388+531105960+529936925+530278104+531104818+531465413+531715154+532136904
3378+531905091+530735329+529954472+530483130+531267725+530885395+529502543
3368+528405599+528524517+529788070+531303891+532139015+532196398+532065920
3358+531963788+531414745+530162855+528761072+527999182+528155616+528764810
3348+528871788+528009841+526944115+526605774+526648032+526158413+525313841
3338+524935595+524909119+524449541+523381808+522168507+521327811+521278355
3328+522040072+522930536+523186196+522885129+522772822+523376755+524603276
3318+525850805+526337794+525776326+524885031+524688554+525154984+525187448
3308+524301171+523502698+523776528+524489965+524299891+523164565+522341520
3298+522661241+523734270+524535373+524288469+523124245+521996637+521739074
3288+522415757+523675330+525017620+525575730+524643215+522762508+521480819
3278+521832277+523430296+525033194+525726869+525443072+524564133+523544195
3268+522953102+523233576+524159169+525072095+525664296+525987893+525861707
3258+524891018+523027823+520868268+519491473+519723771+521256966+522768807
3248+523323837+523321657+523397590+523055165+521419907+518748064+516254805
3238+514820386+514365134+514126987+513346511+512081020+511297014+511865300
3228+513484291+514797786+514743103+513633284+512582821+511980376+511198273
3218+509870381+508553806+507857570+507627521+507200892+506096784+504397256
3208+502636332+501388180+501001178+501456360+502153220+502154950+501131655
3198+499788327+498917383+498481166+497947282+497059829+496002547+495092736
3188+494452498+493846903+492993609+492177036+492102557+492866628+493546079
3178+493176381+491843990+490425594+489471137+488703363+487479161+485565125
3168+483501126+482098547+481466822+480789448+479308997+477220253+475323245
3158+474161097+473681099+473451432+473138528+472867537+472905158+472993931
3148+472488080+471150947+469370296+467696483+466519730+465969614+465831869
3138+465713089+465428012+465120508+464947150+464835119+464682423+464479819
3128+464000410+462854771+461313478+460482195+460979428+461926306+461938004
3118+460773018+459335137+458376354+457818936+457175271+456186170+454990035
3108+453889908+453109882+452721011+452657676+452727483+452698826+452493385
3098+452138881+451473862+450271741+448770560+447610246+447144646+447200852
3088+447461010+447659634+447517043+446949449+446253074+445749924+445383514
3078+444871088+444067112+443004709+441774900+440560180+439636664+439231007
3068+439403466+439963618+440370728+440006465+438877092+437759556+437366255
3058+437570589+437653028+437156488+436223731+435150667+434020602+432923070
3048+432092134+431520249+430858172+429999652+429298362+428991308+428922504
3038+428953134+429140751+429425067+429497228+429045506+428064365+426936377
3028+426097654+425612534+425199541+424568819+423597092+422390091+421303184
3018+420654085+420369873+420113694+419703400+419229287+418827368+418501867
3008+418185987+417870973+417509859+416883914+415912498+414948524+414317387
2998+413792606+413012580+412081795+411310145+410832813+410768612+411157137
2988+411532406+411168108+409964568+408616325+407807643+407593722+407593792
2978+407490448+407178652+406614416+405786317+404842762+404077099+403692001
2968+403602813+403490401+403061107+402269764+401292811+400394490+399845136
2958+399719884+399652638+399000667+397435078+395345261+393585894+392798184
2948+392959706+393533703+393929841+393867752+393518924+393267384+393132234
2938+392615862+391472542+390349745+390101354+390618937+390933466+390487179
2928+389686422+389039746+388423976+387540053+386558739+385869320+385450201
2918+384861669+383809267+382545437+381648120+381402117+381564815+381710936
2908+381615864+381356432+381128737+380954272+380652686+380188712+379788421
2898+379536880+379184453+378533554+377707740+376932906+376293463+375723758
2888+375103593+374403411+373767637+373361600+373171629+373055480+372920123
2878+372766977+372623728+372457569+372085241+371277390+370150509+369249004
2868+368909763+368815141+368568930+368329225+368401767+368628735+368637941
2858+368324692+367769315+367038435+366228541+365432733+364656099+363914074
2848+363285291+362814950+362540809+362552992+362832670+363140209+363213304
2838+362961486+362390085+361521079+360499099+359615799+359108460+358946281
2828+358806909+358315456+357454755+356687777+356424573+356435752+356099626
2818+355189469+354132083+353488176+353348181+353253525+352738710+351944356
2808+351438437+351391333+351332463+350859907+350164847+349659585+349462969
2798+349420399+349341628+349097286+348651621+348068904+347444274+346846812
2788+346290017+345692486+344984344+344319602+343963195+343860612+343591975
2778+342911381+342078957+341508629+341296889+341203928+340916463+340267503
2768+339364718+338549909+338090539+337909878+337730221+337397487+336932129
2758+336389731+335844876+335391943+335019650+334583434+333964272+333168015
2748+332301604+331532169+330986206+330621596+330280867+329895976+329555628
2738+329347106+329208496+329017175+328764769+328465398+327945531+327054132
2728+326069392+325477399+325347614+325322003+325159339+324905652+324620194
2718+324310371+324040591+323780502+323259354+322303478+321253430+320673930
2708+320631015+320642678+320425124+320216741+320173929+319958347+319255362
2698+318293533+317494645+316912965+316333882+315743307+315381847+315354713
2688+315449197+315405035+315161109+314755625+314204852+313606906+313175535
2678+313033671+313050457+312931331+312473276+311786799+311231977+311049862
2668+311136836+311255996+311281572+311120915+310647182+309900278+309140429
2658+308566779+308185280+307985134+307982642+308069581+308059129+307871719
2648+307515900+307008111+306451108+306003886+305659765+305247879+304719117
2638+304254694+304049149+304080678+304117053+303947398+303580850+303164015
2628+302778466+302439191+302184154+302026128+301897554+301708414+301383571
2618+300895682+300387686+300147013+300301197+300600188+300617250+300158849
2608+299429180+298799289+298472300+298386988+298341857+298114128+297570484
2598+296836419+296294298+296230963+296498563+296662819+296473644+296046910
2588+295621492+295325824+295167902+295079717+294962184+294776401+294561096
2578+294350948+294155578+293973394+293761516+293502534+293314916+293314120
2568+293376902+293257119+292910195+292508380+292196480+292021738+292021461
2558+292169450+292266114+292077909+291609955+291119644+290834775+290728870
2548+290600019+290342699+290091694+290051375+290231153+290425311+290412610
2538+290132603+289727725+289409873+289239906+289116939+288989992+288897862
2528+288815768+288685516+288552772+288501117+288541749+288650526+288769911
2518+288768544+288588385+288402394+288447525+288721683+288966596+288956144
2508+288723102+288450640+288205934+287915440+287575213+287309811+287194769
2498+287164417+287127766+287074052+287033542+286995956+286906058+286742131
2488+286579865+286535963+286626138+286720881+286679799+286478857+286169086
2478+285796672+285440352+285259656+285387122+285742751+286015196+285901504
2468+285386119+284761420+284394664+284480028+284911763+285333651+285405742
2458+285086903+284616510+284253147+284099585+284111231+284174324+284182197
2448+284085291+283910929+283754772+283692752+283671640+283570875+283379641
2438+283204154+283123012+283154853+283311547+283548310+283718259+283700522
2428+283545524+283410876+283374934+283381960+283360727+283324075+283327121
2418+283393363+283519705+283694967+283866750+283952893+283933685+283877410
2408+283857994+283922212+284110625+284395564+284647451+284802345+284974579
2398+285250779+285495952+285547121+285478664+285478145+285548765+285510903
2388+285249896+284798209+284154631+283135333+281447210+278861458+275340370
2378+271124084+266715630+262617414+258988241+255646067+252396732+249202911
2368+246108920+243288551+241109961+239886399+239681788+240543959+242688113
2358+246256218+251122017+257203800+264737826+273512096+281880761+287512103
2348+289073314+287078863+283679652+281084555+279697083+278676280+277668767
2338+276863667+276135659+275055102+273589655+272266003+271544726+271348370
2328+271290226+271083193+270690014+270356829+270477772+271247103+272513546
2318+273960062+275265960+276212664+276834076+277392705+278112338+278995638
2308+279901313+280717108+281435581+282067531+282535570+282758524+282807565
2298+282831117+282852921+282797719+282690292+282679199+282844667+283098457
2288+283321203+283492588+283600189+283529049+283188753+282688959+282266794
2278+282065246+282026986+281953354+281663380+281169521+280685354+280407856
2268+280334640+280343950+280381328+280477646+280612570+280667305+280557957
2258+280356963+280216570+280202657+280267723+280354627+280432757+280448989
2248+280360354+280237751+280236090+280409258+280612034+280634807+280421492
2238+280129233+279967261+279995485+280110873+280217487+280343223+280547124
2228+280768987+280854870+280734862+280504278+280304253+280197292+280185958
2218+280256163+280343725+280348501+280254035+280168324+280191911+280295445
2208+280371776+280369734+280326680+280290720+280267809+280253169+280251820
2198+280244361+280195320+280130150+280144652+280297954+280523745+280669520
2188+280623057+280415695+280202536+280105924+280098621+280089865+280071955
2178+280087512+280129545+280200079+280365200+280599055+280709857+280599332
2168+280442846+280443953+280585073+280741196+280845976+280857743+280757307
2158+280638943+280641850+280780460+280969566+281171944+281384809+281538526
2148+281550155+281457714+281399449+281468477+281639897+281818637+281926809
2138+281958961+281959186+281960293+281994955+282131541+282392270+282665148
2128+282805333+282790607+282705243+282647774+282705052+282914560+283213395
2118+283501120+283740738+283933321+284064854+284162470+284325947+284610713
2108+284935038+285169101+285267478+285290960+285366270+285617465+286040720
2098+286462591+286703801+286749797+286724117+286772553+286976419+287268089
2088+287448698+287397338+287229206+287180112+287373994+287731613+288067739
2078+288256758+288315905+288348750+288429268+288544708+288668557+288892601
2068+289366853+290027529+290554647+290728697+290657575+290559077+290533085
2058+290572851+290608533+290554889+290426696+290337646+290363430+290500967
2048+290733646+291066311+291542017+292176718+292797818+293096531+292980694
2038+292714409+292604490+292705965+292879254+292987616+293006720+293035584
2028+293208493+293552302+293941069+294236079+294486374+294920999+295627549
2018+296274848+296378814+295906258+295340222+295066981+295018770+295002192
2008+295058467+295324613+295741829+296074079+296158803+296041338+295859328
1998+295739925+295937822+296810324+298278142+299520479+299730108+299033629
1988+298165938+297581870+297310221+297275128+297394426+297560759+297722627
1978+297913186+298145968+298319915+298302956+298203662+298447658+299307978
1968+300377615+300862077+300518336+299913745+299635313+299705466+299887512
1958+300127874+300465869+300807532+301023841+301134729+301290817+301637326
1948+302282376+303413306+305162775+307016902+307763322+306808000+305074279
1938+303815467+303330244+303252961+303324879+303521149+303831352+304170386
1928+304553685+305358214+306928787+308761976+309947242+310576579+311346395
1918+311837398+310963270+309097790+307872653+308132812+309283435+310197018
1908+310293371+309841580+309401660+309193347+309116549+309141294+309446618
1898+310210862+311253504+312051907+312547029+313506816+315226624+316488066
1888+316052992+314552191+313425553+313086519+313127601+313295837+313581676
1878+313905792+314152626+314447983+315461691+318198150+322827360+327435285
1868+328931725+326550774+322773542+320118069+319182786+319272528+319544765
1858+319575568+319423217+319369503+319570895+320090970+321130705+322986355
1848+325974112+330162814+334288389+335553742+332954752+329184096+326981833
1838+326630721+326962348+327390708+328804985+332233216+336709141+339467992
1828+339471384+338455945+337422717+335661689+333264229+331609867+331365421
1818+331868225+332352134+333000852+334522833+336857027+338757323+339125048
1808+338371394+337843359+338614663+341015827+344343967+346951471+347614275
1798+346997813+347121368+349601060+354101939+357444200+356232941+351826927
1788+348441266+347966460+349379941+351189249+353023269+354706149+355647281
1778+356129632+357790397+362091441+368489951+373638337+374162911+370775242
1768+366207187+362316368+360715581+362307992+365518564+367447310+367747788
1758+368042452+368512482+369042697+371409770+377109621+384169689+388117822
1748+387295988+384258843+381844944+381257484+382434099+384235966+385189766
1738+385947780+389392658+396347721+401772393+400037391+393967046+388319075
1728+384387209+382420151+382442267+383759257+386366415+391971090+401799492
1718+412941630+418099429+414282882+406703189+400596401+397945497+399135021
1708+403643409+409424350+413826419+417195294+422738192+431122414+437638665
1698+438782332+436148213+430551983+423446334+418837024+418711288+421929475
1688+427505078+436544109+448297969+454843534+450460673+442128330+437156730
1678+437410001+441606733+446372615+449177185+451519166+455123939+457289585
1668+454729531+450516948+449688227+452584927+455226210+454674952+453076103
1658+454488961+461599663+475214121+490505577+494693137+488743579+486223845
1648+489881951+492728294+488313247+480582760+475968502+476286319+481393900
1638+490749850+500987784+504420133+498649229+491587673+489333704+491935532
1628+496442225+500540181+504214623+507215947+508053874+507610736+509290432
1618+514156924+518303991+517428859+513900919+512231813+513417045+515850499
1608+517856250+519194663+520506323+522028962+523388314+524362291+525348900
1598+526895351+528998735+531094678+532718999+533946766+535062365+536137989
1588+537143529+538167240+539295886+540445886+541657525+543740697+548165158
1578+555335596+562041022+563208672+560402130+559883682+563523825+567689547
1568+568513457+567239002+567004489+569531284+576753359+591043634+609145647
1558+616112512+607972597+598119311+592672213+591152585+591930326+593492316
1548+595787332+600733287+609938894+622751903+636984381+648360618+649498643
1538+641598640+635729584+636979328+642315746+645803817+646560100+649069487
1528+655804331+665140068+674744651+684554537+694322892+701330665+704632676
1518+706603679+707867613+707533148+707122196+709759084+717184523+729295447
1508+743214018+749954538+743314870+732998995+728136725+729431739+734504018
1498+740070173+742641026+741657566+741083120+744819616+752548579+759313602
1488+759961905+755138813+749438720+746426736+746971626+749743282+753285966
1478+757832875+764342966+772176519+777997468+777784966+772384521+767597631
1468+767159753+770332047+773592872+774235707+774170295+777646321+786502304
1458+797237644+800777144+793865377+784168871+777558206+775171613+775838397
1448+776746131+775570867+773022510+771310731+771441762+773499842+777637253
1438+782960727+786062972+784348840+780581957+778599048+778681764+778901672
1428+778586588+779001901+780584656+782211919+783727740+786464303+789849444
1418+790250221+786349607+781262930+777508783+775058579+773111802+771881785
1408+772438788+774839986+777246306+778093474+778416379+780081920+783127614
1398+786193519+788215259+788610568+787307594+785656728+785528119+787106514
1388+788436136+787530479+785416815+785416677+789251049+795509252+801488989
1378+806034237+810216848+815121618+819782322+822452019+823371798+824172520
1368+825620368+827757012+830909787+834708441+837044366+836273961+833731142
1358+831762838+830817172+829867629+828563410+827777085+828142491+828994850
1348+829077498+828007722+826855092+827220221+829715279+833236436+835674665
1338+835751498+834252497+833004068+832980465+833911734+835318051+837079044
1328+838947881+840553548+842191124+844615995+847800472+850745798+852827136
1318+854672922+857156767+859982968+862061952+863101895+863968444+865474782
1308+867654272+870194668+872904582+875523057+877547013+878722139+879477800
1298+880504590+881847226+882631682+881927589+879824378+877411552+875613733
1288+874299824+872732158+870576825+868111185+865774222+863911477+862651627
1278+861760228+860943239+860264204+859844253+859450537+858909039+858562323
1268+858755581+859266831+859747832+860314872+861288918+862663255+864159003
1258+865599445+866873346+867596890+867437617+867001124+867596890+869628321
1248+872045093+873965566+875820767+878117236+880279906+881527020+881892564
1238+881892080+881996392+882608148+883942892+885987821+888715178+891912114
1228+894863323+896756110+897399705+897374302+897575798+898614840+900489560
1218+902764434+905177122+907915691+911025620+913892383+915929905+917648675
1208+919948883+922544585+924462567+925686493+926827010+927958320+929281575
1198+931792069+935865522+940232878+943345298+944918847+945603905+945914905
1188+945958305+945988207+946827484+949232974+952823487+956191325+958232723
1178+958999875+959391168+960511196+963192799+967508518+972236226+975260323
1168+975551526+974654659+974961160+976779190+978633075+980019249+982019186
1158+984827805+986875433+987334215+987358234+988237796+989813076+991352432
1148+992936502+995133920+997884118+1000053918+1000191525+998511586+997576372
1138+999466666+1002934525+1005143225+1005402449+1005054417+1005097541
1130+1006219507+1009512796+1015011255+1020260734+1022083609+1020498985
1121+1018764363+1018775092+1019445337+1019654862+1020000056+1021215260
1113+1022858651+1024174084+1024851458+1024542673+1023019792+1021421047
1104+1021991202+1025724722+1030780458+1033877373+1033872043+1032833001
1095+1033243191+1035676298+1038738189+1040312569+1039617959+1038229846
1087+1038086079+1039155578+1040298725+1041131426+1042012650+1043428934
1078+1046092402+1050621522+1055748968+1058188029+1056095131+1051603805
1070+1048702917+1049527243+1052887812+1055923953+1057023770+1057072361
1061+1057763026+1059119228+1059348134+1057054295+1052887051+1049097948
1053+1048026512+1050576391+1055480607+1059991107+1061954358+1061596290
1044+1060940581+1061454945+1062890472+1064375629+1065323857+1064906744
1035+1063005929+1061855514+1063967654+1068533875+1071986367+1072573549
1027+1071977438+1072131726+1073168553+1073741823+1071960410+1067689960
1018+1063499735+1061637059+1061429888+1060963561+1059595522+1057466977
1010+1055356221+1055248724+1057553500+1059004879+1056603197+1052229957
1001+1049871121+1050320905+1051405701+1051719608+1051844686+1052346037
993+1052784330+1053147382+1054499709+1057112923+1059157645+1058333111
984+1053777480+1046705472+1040414043+1038129964+1039783807+1041972295
975+1041930418+1040113219+1037758259+1034318435+1028975995+1022980130
967+1018932911+1017965856+1018441250+1017793986+1015104077+1011347715
958+1007861860+1005229333+1003265044+1001352254+998839268+996032794+994604604
948+995760142+997890556+997867852+994889162+990684955+986635729+983051237
938+980007274+977146533+973695011+969882720+967560709+968083379+969908054
928+970198773+968688835+967845128+969205138+971449763+972317143+971532756
918+970959763+971811223+972935404+972504933+970435224+968144292+966687445
908+965973454+965258355+963997882+962413327+961362310+961580972+962771395
898+963473273+962469187+960220201+958034412+956430060+955277845+954885375
888+956057871+958744804+960977661+960609764+958466960+957263592+957019319
878+954913132+950571525+947554143+948161952+950323515+950621917+948130804
868+944266876+940989092+939752361+940611573+942334151+943824153+944840768
858+945252274+944796676+943749051+942802900+942313593+942268116+942454730
848+942390771+941906517+941258768+940165043+938409518+937566849+939512172
838+943212190+945306403+944520563+943074237+943205614+944733756+945951660
828+945657411+944253240+942892469+941691593+940021830+938477975+938944440
818+942125941+946170391+948564044+948952222+948938171+949439938+950148807
808+951354112+953868552+956767225+957612593+955805361+954047344+955422858
798+959443290+961908100+959618413+954372118+950628977+950135724+950414122
788+949046498+947460005+948292291+951002274+952818435+953025191+953457393
778+955474565+958544346+960715807+960095330+957376003+955861151+957466057
768+960594813+962797699+963207266+962031309+960157973+958831950+958245390
758+957541090+956754350+957250787+959761142+963448078+966925765+968690497
748+966912960+961409171+955464390+953207236+955421059+959243109+961732907
738+962973376+965081363+968528386+971035973+970809420+968994990+967761097
728+968062544+970248472+974245646+978143768+978962141+975716682+970309938
718+965523117+962975868+962499920+962448836+960947897+957516102+953293137
708+949727195+947839116+948272079+950669539+953607597+955737458+956551747
698+956086320+954923376+954976259+958007486+962145520+962368127+956495472
688+947996866+940889417+935550992+930996815+928827223+931500381+936709160
678+937891762+933221574+928684633+928632442+928615691+920353259+902775370
668+887423279+888047286+900064488+909309618+910122869+906031004+903770113
658+905574853+907293969+904508815+898806368+896030559+898993190+904596238
648+907600123+906436487+903954442+902359020+901225009+900306684+899985717
638+899461385+896736521+891474167+887554864+888465713+891130704+890516526
628+888565527+890458936+893864220+891086196+882088869+873712780+868648460
618+864190913+859488954+857689751+860030867+863964983+867216117+869461019
608+871660583+874290894+874969169+870220349+861082646+852023922+845895987
##END=
