##TITLE=<SNM>
##JCAMP-DX=4.24
##DATA TYPE=INFRARED SPECTRUM
##DATE=2/5/2025
##SAMPLING PROCEDURE=Instrument type and / or accessory
##ORIGIN=Admin
##XUNITS=1/CM
##YUNITS=ABSORBANCE
##RESOLUTION=4
##FIRSTX=4497.3318
##LASTX=599.83466
##DELTAX=-1.4281778
##MAXY=1.8598026
##MINY=0.3887209
##XFACTOR=1
##YFACTOR=1.7320762e-09
##NPOINTS=2730
##FIRSTY=0.414772
##XYDATA=(X++(Y..Y))
4497+239465224+239040095+239015232+238923610+238191265+237087905+236436980
4487+236462927+236634438+236609541+236682994+237180199+237882639+238389549
4477+238757898+239272378+239791538+239922408+239662338+239308236+238911118
4467+238216490+237055093+235737586+235090067+235697753+237041724+237992191
4457+238262585+238590000+239351801+239837978+239334492+238289306+237784031
4447+238122957+238531895+238199215+237177549+236222712+235893938+236001596
4437+236074344+236048156+236065208+235900631+235207843+234275409+233937154
4427+234555645+235436702+235532540+234714200+233901210+233742208+233716726
4417+232990662+231785252+231262685+232112513+233705456+234736826+234539661
4407+233593633+232850501+232821749+233240220+233424910+233047442+232545471
4397+232478797+232654471+232533357+232303742+232678646+233716520+234595340
4387+234575948+233669908+232381685+231341007+231042257+231403706+231650098
4377+231071663+229912761+229132463+229272882+229951509+230529910+230851252
4367+231048692+231022918+230642266+230187663+229987900+229866700+229529770
4357+229211353+229293839+229631751+229920504+230280146+230936904+231706741
4347+232147252+232032969+231564085+231160687+231025843+230939451+230548132
4337+229762414+228823975+228089135+227733072+227596025+227389482+227078757
4327+226914129+227130582+227702548+228294525+228487113+228205621+227863167
4317+227935915+228438093+228837877+228546422+227678614+227135228+227550274
4307+228373122+228532227+227818879+226983091+226673467+226887821+227319712
4297+227726069+228026281+228319267+228759555+229327718+229762466+229742575
4287+229197158+228441947+227885432+227670958+227691570+227741141+227621438
4277+227394730+227453369+227993280+228612580+228745601+228261782+227458720
4267+226773899+226663608+227372104+228500861+229078642+228517482+227354761
4257+226677080+227090853+228427993+229921708+230665908+230530048+230315333
4247+230437858+230272335+229424451+228560686+228392118+228825110+229410635
4237+229811400+229742231+229010919+227695098+226229084+225340801+225566356
4227+226664571+227871770+228741798+229304008+229539061+229269269+228578133
4217+227884812+227563092+227714885+228210714+228727465+228883559+228568257
4207+228084145+227873973+228117044+228541691+228665179+228357895+227998356
4197+227881715+227803686+227476098+227007145+226725188+226754422+226897232
4187+226902704+226916348+227412109+228395714+229031033+228540848+227258183
4177+226263204+226183075+226783362+227528663+228133441+228570459+228818985
4167+228827622+228735638+228829532+229051560+228877296+228036123+227048388
4157+226678973+227156081+228160214+229164363+229617074+229277752+228520286
4147+227943451+227706523+227565105+227396864+227298944+227323617+227518219
4137+228021532+228699024+228977333+228500637+227670407+227136174+227041575
4127+227086293+227003704+226696213+226163666+225513791+224921539+224551349
4117+224560795+224981537+225513636+225773896+225858894+226209865+226797402
4107+227040164+226742085+226460489+226652596+227040456+227036292+226421466
4097+225629485+225429257+226071269+226911961+227254982+227182837+227109436
4087+227100402+227116094+227317010+227687837+227808658+227349203+226556947
4077+226060722+226210433+226640104+226617375+225876840+224911525+224424832
4067+224793267+225931848+227144588+227323445+226124763+224770503+224796794
4057+226257233+227910002+228827381+229008252+228719929+228122119+227414793
4047+226810514+226421535+226297616+226365563+226377177+226177913+225907536
4037+225733771+225607719+225484386+225502091+225737402+226064181+226363430
4027+226613710+226835394+227175593+227845892+228729754+229310185+229209891
4017+228575053+227793551+227091145+226486471+225976911+225653143+225581342
4007+225671588+225895664+226535370+227815988+229313919+230170801+230021796
3997+229400827+229105759+229387269+229868008+230051064+229724991+229100993
3987+228728979+229012932+229659057+229854983+229208996+228359048+228384100
3977+229621719+231283109+232314685+232386417+231834857+231039728+230228184
3967+229582455+229224051+229163469+229328630+229657319+230214488+231052443
3957+231838884+232014644+231560334+231229924+231777768+233108541+234310578
3947+234709451+234732937+235132549+235647959+235330678+234127213+233072133
3937+232970290+233897958+235562135+237286636+237963439+237046938+235510103
3927+234845155+235391209+236161734+236310102+236305009+237071336+238448497
3917+239128931+238178550+236068322+233964253+232720388+232695061+234042335
3907+236937111+241317034+246172672+249633650+250535973+248988678+245391118
3897+240718691+237120218+236551005+238885584+241536377+242198555+242135925
3887+243670866+246135145+247054503+246575880+246550019+246355246+244609701
3878+242861645+243381132+246085918+249605363+252938482+254744300+253910336
3868+252097154+251720908+252278403+251372518+248433264+245485390+244709290
3858+247292584+253618657+261975932+266034977+261379257+253420856+247708663
3848+245593513+246605388+249587881+253243564+256920513+260471755+262969293
3838+262922922+260614480+257999578+256058417+254423130+252968318+252306174
3828+252622646+253557008+255629847+259734627+264163949+265102560+262823781
3818+260998228+260005985+257690814+254186253+251732229+251914649+255014677
3808+259416417+262510939+264429749+267179013+269972600+270073152+268190922
3798+266858204+265912556+264285493+262758070+262836049+264942509+268630849
3788+273231560+277852042+281720203+285295568+290171492+297084673+304830079
3778+312050803+319262854+327857108+338576663+351147907+363707554+373530532
3768+380047834+384662345+387815884+389514026+390717044+391933861+392483459
3758+392590412+394394406+399717053+408182502+416905526+422015780+423680714
3748+426494260+432772053+440313120+445595160+449769917+456556874+467064243
3738+480255424+494259353+506664489+515821314+522308231+528063164+534910170
3728+543839806+554283478+563877373+570325025+572974734+572436940+570968053
3718+571185366+573742782+577744858+581812455+583744772+582153068+578343975
3708+573673062+569003147+565813854+564397790+562806395+560149838+558593096
3698+560178503+565068932+572691625+582231459+591700059+597400449+596153418
3688+589800709+583740711+580653106+579800852+579891013+581386913+586304287
3678+594685047+601042780+598881828+591225858+584805840+580835491+577899025
3668+575968394+575349937+575003887+573535069+571081957+569649272+570724448
3658+572865338+573300309+572796548+575329118+582062495+588582516+587765569
3648+578579286+567461134+559408873+555478443+554617690+555373864+557119392
3638+559606503+561771447+562476622+562453979+563780675+566912052+569014263
3628+567365468+564085533+562234567+562652882+565065835+568352584+570519592
3618+570842930+571222841+573285959+576206630+578285130+579067940+579071519
3608+578658916+578020775+577581675+577988772+579738153+582591893+585675781
3598+588580933+591668194+595043967+597758750+598845557+599079767+600535612
3588+603547717+604953388+602137434+596768227+592250931+590541605+591339419
3578+592939658+594167280+595332479+597032169+599324301+602520855+606886738
3568+610514890+609785075+604519175+598766272+595688646+595779701+597903281
3558+600387433+602059800+602666350+602116718+600049573+596675590+592969596
3548+589727205+587371067+586273660+586248470+586219908+585364213+584273757
3538+584344784+585934974+587524752+587216418+584898408+582251831+580954902
3528+581454292+583123700+584977006+586113299+585912400+584452426+582859964
3518+582326024+582319210+580951461+577856835+575068376+573984975+573176287
3508+570683773+567395200+566045861+567525279+569829592+570532806+568909925
3498+565640107+562210168+560418288+560785123+561738858+561669380+561051267
3488+561191566+561941856+562097812+561225909+559745391+557965692+556261563
3478+555357002+555460687+555719019+555184941+553964648+552804852+551900464
3468+550463236+547663111+544113693+541673210+541521074+542815250+543521011
3458+542545836+540633926+539242157+538971848+539219582+539112423+538483745
3448+537852246+537549728+537243321+536461165+535100263+533449129+531995693
3438+530944089+529998199+529042743+528654848+529060844+529139063+527681979
3428+525095417+522821455+521647653+521172351+520497079+519307207+518385199
3418+518806267+520643022+522636833+523157766+521819577+519884541+518652307
3408+517881541+516514377+514657285+513588303+513981566+515213525+516181438
3398+516110962+514863724+512840766+510640515+508695087+507180672+506215443
3388+505825587+505891624+506536406+508020331+509743904+510304101+509233535
3378+507599332+506324048+505338206+504743837+505143708+506429178+507470905
3368+507326305+506133680+504806330+504240902+504688330+505543234+505914818
3358+505591446+505105166+504895458+504993257+505446157+506223943+506747525
3348+506393182+505377849+504383782+503552210+502666266+501985076+502039172
3338+502761175+503303237+502843283+501430178+499862735+498891277+498664844
3328+498768597+498630397+497943873+496860403+495870741+495436562+495665059
3318+496239193+496546150+495986848+494528766+493007882+492457699+493018550
3308+493810410+493848849+492844837+491332728+490287112+490314125+491103370
3298+491950428+492592561+493171788+493742309+494172083+494278211+494087739
3288+494145896+495082907+496583522+497411584+496827883+495406554+494132991
3278+493332562+492865760+492821333+493426851+494447519+495198016+495169557
3268+494393113+493259918+492128718+491100273+490157034+489370817+488805320
3258+488267044+487497448+486703489+486356579+486367797+486196183+485879109
3248+486102685+487038423+487965592+488096600+487069876+485013847+482662905
3238+480817548+479619932+479029212+479418896+480701647+481599532+480862800
3228+478742764+476530125+475096889+474370859+473882653+473362615+472718761
3218+471826830+470751791+469896509+469563054+469562917+469395604+468630792
3208+467310015+466155037+465962913+466643071+467279664+467187095+466483295
3198+465551205+464359164+462696433+460990102+460248105+460816561+461666819
3188+461410757+459770325+457648878+455999705+455027353+454383431+453730802
3178+452918879+451869994+450659715+449619845+449004726+448576638+447872047
3168+446844359+445840829+444954232+443830465+442239036+440494576+439188596
3158+438695710+438907345+439307697+439421636+439184914+438700218+437824804
3148+436260664+433989834+431588719+430032356+429818381+430235870+430029224
3138+428916539+427872574+427797831+428379914+428387278+427017636+424848494
3128+423218661+422777117+423008023+423143091+423030735+422910121+422804200
3118+422508839+421940280+421110704+419954142+418592484+417493184+416915609
3108+416523757+415934963+415265679+414793130+414473888+414086165+413549299
3098+412902349+412120399+411166767+410283404+409893823+409959585+409888868
3088+409445603+409153099+409398046+409779987+409711610+409113835+408246956
3078+407334618+406585016+406202489+406154587+406066767+405510080+404377401
3068+402940965+401671944+400945811+400712943+400550173+400158321+399599741
3058+399027328+398528901+398213891+398107557+397994685+397574133+396740255
3048+395714426+394928760+394640832+394642759+394465192+393835620+392886048
3038+391959670+391244825+390652418+390052509+389390692+388551549+387486490
3028+386414204+385505824+384647479+383829087+383275256+382988602+382721288
3018+382464641+382458000+382696924+382777311+382252902+381072012+379700959
3008+378723169+378249691+377882856+377267117+376451513+375668049+375020651
2998+374557737+374369709+374344244+374103943+373470895+372680893+371959130
2988+371307741+370787703+370518289+370371590+370053449+369454572+368695335
2978+367889916+366996987+365959182+364998495+364561391+364773714+365139069
2968+365004345+364205774+363114975+362168053+361478603+360868061+360174792
2958+359464626+358953983+358781990+358881097+359050475+359062656+358680233
2948+357777083+356580432+355607494+355219496+355315196+355433815+355109205
2938+354270578+353329953+352705130+352322156+351820081+351129462+350488775
2928+349925102+349180868+348277890+347650417+347426049+347091046+346254760
2918+345244416+344571828+344291781+344159982+343988781+343687261+343259655
2908+342803520+342404269+342142048+342126115+342269889+342163383+341499537
2898+340522332+339759550+339420245+339282355+339035447+338524391+337794954
2888+337100721+336770192+336904916+337242569+337394086+337164831+336607009
2878+335863739+335071259+334348773+333752444+333251952+332853355+332684218
2868+332796643+332954561+332823932+332354687+331778419+331220562+330527430
2858+329600192+328710326+328215684+328085124+328040698+328046444+328207081
2848+328277419+327818257+326847969+325870420+325269651+325043838+325048793
2838+325143151+325130144+324864791+324432160+324022000+323667726+323255639
2828+322711891+322069827+321443043+320971732+320696262+320480394+320147215
2818+319676455+319211133+318863913+318546322+318077558+317496645+317088172
2808+316974370+316894087+316553887+315987633+315417870+314968205+314635438
2798+314370120+314074897+313631013+313028111+312425828+312003211+311752621
2788+311522506+311245143+310942831+310538040+309930801+309231751+308622379
2778+308067550+307448955+306849528+306432968+306159459+305829308+305352939
2768+304880459+304634274+304583688+304390807+303829818+303122612+302636814
2758+302349885+301855381+300928556+299881253+299197241+298970980+298922837
2748+298824143+298631572+298295777+297737783+297024004+296372442+295916652
2738+295538599+295049876+294509604+294140876+293953983+293750297+293439451
2728+293047461+292561836+292046134+291671763+291423100+291031936+290341626
2718+289530598+288918094+288627310+288419701+287917730+287075455+286285385
2708+285901206+285810289+285620849+285174247+284704830+284475197+284440096
2698+284377690+284147248+283687053+283000167+282280744+281829634+281749901
2688+281874060+281960797+281823887+281389157+280787390+280284558+280003754
2678+279823417+279599015+279318280+278986735+278558784+278070113+277695105
2668+277583351+277678398+277725216+277513426+277139726+276885643+276792110
2658+276583675+276087072+275477493+275038823+274877481+274893173+274894378
2648+274742448+274428849+274033641+273677423+273488241+273483802+273502333
2638+273359109+273051326+272753161+272623582+272620863+272518573+272152840
2628+271612808+271134409+270867129+270779739+270720842+270540574+270209235
2618+269840319+269584928+269485356+269412523+269181152+268780662+268418731
2608+268248683+268173733+268063666+268013045+268160158+268376026+268399805
2598+268186913+267894753+267636231+267443867+267349525+267351194+267400163
2588+267464996+267520640+267519057+267454466+267373528+267268915+267084190
2578+266857310+266747053+266879058+267203566+267514309+267621812+267514463
2568+267307680+267046422+266676628+266239403+265941927+265953076+266237889
2558+266644367+267033483+267286534+267314545+267130732+266847760+266572566
2548+266340266+266139487+265958032+265773857+265514922+265107137+264607660
2538+264202542+264001385+263920086+263834795+263746167+263695477+263612441
2528+263365395+262931663+262441994+262073353+261925844+261972869+262108040
2518+262240200+262324442+262326747+262229378+262070995+261922300+261822935
2508+261772762+261754213+261719577+261595212+261369398+261153461+261072851
2498+261126207+261242400+261389633+261501834+261433422+261140419+260772208
2488+260482216+260296700+260196353+260149398+260073140+259918922+259759042
2478+259674130+259609022+259440832+259160940+258887380+258687531+258502531
2468+258292048+258122843+258047480+258019968+257975662+257880202+257683622
2458+257342786+256920358+256590603+256504228+256646144+256835773+256876362
2448+256718531+256478316+256297273+256210623+256164597+256101570+255968550
2438+255713521+255360244+255035341+254853937+254812367+254819611+254796744
2428+254729846+254636383+254515269+254371942+254265539+254270512+254401949
2418+254586244+254678331+254575628+254372200+254276964+254330423+254377413
2408+254359175+254417211+254636710+254880348+254969321+254912610+254871986
2398+254983344+255319191+256009242+257329124+259690837+263614419+269699211
2388+278557253+290712211+306489782+325925032+348753296+374505534+402542127
2378+431968011+461797241+491421477+520462839+547749348+571257529+589925557
2368+604353720+614967561+621441125+624192592+624034570+620684950+613514882
2358+602378113+586876081+566469889+541783880+516222595+495592587+484729189
2348+485430097+496474194+513212349+528709357+538755395+543839083+545701647
2338+545510796+544319754+543204831+542927675+543592726+544447664+544303683
2328+542533792+539283692+534604176+528235122+520456301+512163257+503710437
2318+494617240+484674095+474504516+464824900+455612912+446164786+435831199
2308+424519169+412561839+400498899+389000079+378516179+368894169+359671512
2298+350691979+342100340+333932936+326104595+318663634+311781045+305555868
2288+299949217+294866080+290274969+286250749+282862053+280037650+277600661
2278+275411370+273436038+271709197+270249997+268994328+267819339+266646036
2268+265483383+264374861+263352663+262445143+261678334+261050655+260525696
2258+260053181+259583626+259068956+258480214+257841041+257221896+256672762
2248+256167349+255650305+255149091+254779520+254581977+254412978+254096214
2238+253646772+253253664+253057841+253028229+253045212+253027094+252954535
2228+252844227+252742281+252687101+252649316+252563905+252421318+252251631
2218+252047187+251787478+251512696+251312847+251274564+251441979+251755853
2208+252028880+252063757+251839389+251557553+251463246+251609223+251829220
2198+251945775+251944914+251925368+251953259+252030618+252151594+252293682
2188+252369286+252301270+252161195+252107082+252167424+252222329+252206895
2178+252183976+252203316+252229469+252224187+252185714+252091665+251903189
2168+251660015+251490569+251490225+251626893+251756370+251699675+251386593
2158+250977655+250734962+250709170+250682363+250481929+250214133+250102345
2148+250186586+250310005+250394642+250579281+251004324+251608672+252255468
2138+252917164+253646738+254507182+255581756+256932196+258527996+260285481
2128+262158764+264177817+266433626+269003206+271847878+274817656+277766098
2118+280615312+283302135+285704712+287657711+289023223+289716562+289697841
2108+288993009+287687237+285864677+283608593+281060882+278411878+275830391
2098+273427882+271250826+269281756+267471293+265779002+264186351+262686631
2088+261282163+260016154+258969419+258160146+257507999+256981406+256663626
2078+256576167+256591016+256604213+256629626+256657001+256595335+256436952
2068+256339187+256432186+256635580+256797025+256927069+257110951+257290548
2058+257341014+257265032+257143487+257022494+256967933+257098132+257450961
2048+257875419+258146794+258227611+258313934+258526912+258728774+258792660
2038+258822685+258941992+259109752+259254318+259374830+259490248+259636982
2028+259867923+260170561+260464425+260717200+261003579+261422927+261954716
2018+262418903+262642961+262645680+262596419+262655694+262885533+263210024
2008+263461078+263548589+263536183+263509755+263498811+263540054+263661857
1998+263842349+264148756+264770654+265659023+266318293+266305922+265781910
1988+265226771+264879293+264729824+264765320+264957151+265176684+265299794
1978+265346474+265454580+265704516+266013986+266306094+266720573+267419124
1968+268186483+268538417+268331909+267965350+267859980+268045720+268353589
1958+268738903+269221156+269686995+269983732+270147414+270380144+270829723
1948+271533883+272569383+273980388+275360113+275863995+275150405+273946991
1938+273167932+272993737+273088818+273220807+273394795+273650186+273967535
1928+274391253+275136726+276294630+277452740+278143170+278599597+279241592
1918+279653851+279141659+278068839+277487290+277812262+278565838+279030954
1908+278903595+278464408+278194754+278266693+278486983+278658270+278855882
1898+279305702+279989164+280566739+280964269+281649194+282779567+283586672
1888+283349176+282479716+281855529+281787307+282086659+282497610+282830687
1878+283023963+283168219+283465352+284355907+286475564+289882910+293161331
1868+294139156+292421812+289896779+288310064+287924956+288160026+288501327
1858+288768366+288993147+289273297+289682184+290320600+291343229+292894809
1848+295192205+298330155+301346871+302168842+300223862+297624738+296302551
1838+296312324+296752353+297254463+298494852+301156124+304465241+306462494
1828+306493740+305818606+305166081+304112412+302717718+301775441+301591749
1818+301782152+302069115+302697827+304025280+305855771+307335877+307786815
1808+307520670+307474592+308392470+310461370+313139813+315239545+315856832
1798+315499427+315791656+318006841+321734411+324430852+323734761+320898950
1788+318993337+319232227+320767289+322514778+324215741+325712330+326579519
1778+327119344+328638542+332184828+337189471+341149082+341864203+340046927
1768+337570930+335602756+335178694+336855569+339489551+341145779+341711344
1758+342321198+343070697+343917892+346163361+350851342+356517044+359967905
1748+360089759+358740971+357913356+358386972+360058444+362136187+363681985
1738+365233944+368718460+374403467+378516076+377456213+373617836+370272827
1728+368131559+367315403+367861767+369223494+371355884+375520696+382577513
1718+390418690+394129569+391820645+386900105+382876074+381298410+382617087
1708+386387672+390936766+394437490+397475266+402347216+408983963+413580649
1698+414031897+411943245+408031122+403492765+401203352+402385069+406022857
1688+411304312+418855944+427770129+432374798+429412247+424188501+421622070
1678+422780386+426635454+430826763+433719526+436476945+440247806+442941975
1668+442139551+440070238+440392234+443429941+446485784+447502700+447884367
1658+450538136+457474408+469198009+482112068+487160896+484847498+484700214
1648+489025421+493398186+493431566+491295529+491099275+494173150+500642103
1638+510428054+521502330+528547172+529242506+528691222+531562959+538390557
1628+547431310+557247853+567918920+579208136+589342820+597819315+607082956
1618+619152297+631819724+640409297+645174844+649937431+656108994+662465556
1608+667489608+670898348+673469081+676058466+678870566+681564977+684005219
1598+686595154+689728458+693181109+696457981+699628176+703172431+707132456
1588+711067222+714550224+717252962+719144604+720987793+724092880+729389063
1578+736605519+743497330+747356733+749636408+754148886+761811188+770347767
1568+777728645+784964991+793454563+803057096+814372947+829929144+849458167
1558+862911500+864568037+862707229+862146791+862632554+863528718+864414421
1548+865146920+866595607+869670067+873989286+877938024+878230803+871807481
1538+862752447+857182617+854942930+852053883+845930911+838946393+834825044
1528+834334601+836018323+838741503+842241504+844928964+844491240+842105851
1518+840523782+839355830+837193846+834912382+834417052+836773741+842106264
1508+848151121+848467300+840669621+832622591+829253562+829561277+831382236
1498+832833745+832167661+829443243+827600673+829142136+833091011+835267654
1488+832680885+827360269+823057636+821346177+821524983+822191961+822915445
1478+824342934+826852619+829793835+831613624+830525852+826649105+822736570
1468+821190771+822275101+824333298+825205236+825020236+826205325+830386964
1458+835787417+837049314+832323204+826432996+822919092+821896704+821851693
1448+820872664+818188784+814775019+811922657+810254488+810312438+812715308
1438+816796051+819441941+818003921+814499721+812329203+812119013+812338769
1428+811864569+811271577+811517487+812742081+814682519+817003695+818455616
1418+817204387+813567012+809907131+807741224+806962956+806525301+805591696
1408+804438955+803774592+803547677+803490209+804178936+806058602+808264427
1398+809763769+810695653+811087402+810008509+807601234+805740495+805486395
1388+805518536+803997652+801811854+801851635+805161612+810038035+814537506
1378+818457888+822422042+826168504+828703379+829756050+830126808+830675890
1368+831887752+834187591+837765365+841847346+844710652+845177627+843869823
1358+842289888+841280852+840671617+839940976+838955203+838062962+837753527
1348+838370057+839830582+841480718+842716737+843831144+845599177+847938453
1338+849674482+849977448+849340064+848904611+849432771+850810775+852260494
1328+853379237+854830608+857373261+860639534+863681164+866254306+868812857
1318+871655929+874661220+877588671+880435390+883545432+887184803+891263825
1308+895600389+899937158+903693256+906390488+908347720+910321263+912673960
1298+915300509+917842198+919773689+920510318+919495157+916744448+913518367
1288+911475037+910713769+909632123+907237856+904493272+902807553+902320207
1278+902205064+901996388+902071819+902936118+904453904+905947809+906855673
1268+907173849+907221957+907162562+907055746+907274126+908353295+910416860
1258+913250847+916794139+920751755+923886573+924873792+924019473+922988413
1248+922783936+923018283+923050011+922888411+922751864+922535135+922125285
1238+921621834+920943568+919828749+918475934+917423264+916744792+916129776
1228+915597487+915359285+915302849+915278761+915499550+916128193+916907286
1218+917297108+916830616+915808090+915390394+916225098+917387337+917801179
1208+918252255+920552026+925007105+929834043+933103689+934584517+935371319
1198+936314834+937365922+937979492+937799103+937194136+937168877+938704559
1188+941895194+945603390+948385139+949902857+951071015+952801263+954988024
1178+956869962+958217133+959618400+961428071+963157631+964463301+966032293
1168+968497931+971155521+972922315+973899760+975033025+976636223+977838794
1158+977576297+975858506+974001001+973530379+974836737+977032652+978873226
1148+979878752+980782624+982636481+985392490+987821582+989131519+989853075
1138+990862111+992593392+995250293+998898130+1002798139+1005303558+1005325926
1128+1003264838+1000168836+997319639+996378464+998091231+1000909663+1003002342
1118+1005123995+1009004389+1013997814+1018042630+1020776615+1022735016
1110+1023045277+1021063682+1018823169+1018906584+1020924243+1022229776
1101+1021578489+1020683771+1021945668+1025493709+1028671681+1029030669
1093+1027874624+1028633414+1031826459+1034512610+1034877243+1034344472
1084+1034918055+1037137715+1040057594+1041857080+1041639388+1040737649
1075+1041112881+1043258554+1046536940+1050518438+1054695673+1057049884
1067+1055049568+1049113730+1043477484+1042626469+1047218234+1053327786
1058+1056168173+1055165606+1054015618+1055532716+1058551979+1060573423
1050+1061860235+1064700760+1069497553+1073455444+1073741823+1070504318
1041+1065964722+1062113303+1060114226+1060408382+1062470364+1065054587
1033+1067107829+1068263048+1068351212+1067273696+1065459963+1063592686
1024+1061667114+1058983577+1055367331+1051743721+1049735422+1050561109
1015+1053821670+1057985691+1061632908+1063881336+1064506606+1063993244
1007+1063007264+1061701113+1059627293+1056403828+1052301062+1048490730
998+1046864063+1048334774+1051404760+1053502737+1053317393+1051544130
990+1049370789+1047466966+1046523795+1047307568+1049896540+1052723988
981+1053170866+1050385400+1046306997+1042950357+1040456157+1038456668
973+1037270890+1036925804+1036637842+1035612495+1033385953+1029571974
964+1024372145+1019244788+1015913062+1014589154+1013842821+1012246230
955+1009551682+1006388094+1003727339+1002715137+1003845924+1005438041
947+1004268506+999353128+993373311+989092151+986636562+985217676+984951531
937+985419263+984820627+982564147+980828599+981390895+982600968+981502873
927+977682218+973337946+970954278+971905364+975531796+979067655+980178070
917+979454793+978509144+977057016+974137618+970571889+968204464+967574238
907+967743064+968220569+969537525+971538185+972490785+970903623+967610095
897+964653876+962742138+961280993+960121300+959886884+960784493+961733446
887+961013128+958496078+956664383+957688354+960628606+962831816+962811100
877+960981469+958713977+957193850+956283921+954703917+952122310+950112359
867+950168106+951892642+953700456+954220838+953124394+951564969+951280311
857+952710071+954758288+956571814+958379077+960403825+961971234+961714106
847+958748320+954272800+951113824+950621522+951220089+950937289+949568507
837+947781135+946284339+945667259+945904291+946542775+947366742+948392572
827+949910840+952970296+958124564+963211934+964647888+962081698+959617505
817+961137976+966363614+971815273+974302315+973551027+971766407+971040240
807+971494963+971692903+970546493+968281754+965909166+964373003+963640504
797+962586938+960849601+959993080+961429861+964400533+966954335+967670936
787+966040002+962626237+959203044+957683536+958653205+960982020+962630298
777+962491892+961678455+961918721+962904563+962837391+961367781+959679516
767+957997858+955773931+954197162+955442541+959534158+964243613+967789521
757+970011589+971229025+971950857+972956521+974113048+974336934+973189285
747+971018767+967807759+963487576+958776951+955333799+955013696+958230691
737+963452957+968608395+972562638+974762545+974716294+973190042+972465595
727+973817102+975813564+975806819+972296149+966427759+961371085+959796036
717+961939644+965340401+966634232+964727725+961673912+959733612+959094301
707+959317086+960637553+962819565+964716506+965598561+966317089+967796885
697+969266082+969364432+967625305+964095985+958134474+950101553+944118570
687+944799451+950042983+950595369+941590370+930585744+927502200+933043949
677+939471470+939812564+934497041+927642808+921318387+916505626+917068267
667+925244205+932650342+931678746+925723706+922237951+922558054+921686804
657+918044267+915073870+913877700+912972176+913082708+915120120+915878153
647+911115842+901774498+892842246+888156949+888762742+892755252+895741616
637+894595413+891966936+892366187+894895144+895782016+894833890+892737427
627+887569257+879810876+875047601+877886818+886724573+895140572+897357341
617+893444461+888806171+887450466+887549298+884751581+878718425+874179242
607+876082859+884177723+889937646+883616734+867993089+855813078
##END=
